ECG,-15.401974038868072,-7.629122653330576,-6.9182334248089035,-12.892019731205359,-16.89829173314735,-13.995859138087944,-7.940343679801277,-3.988637154831782,-7.508192440215858,-19.163552654925184,-25.571013133552228,-13.175230465319125,7.472038205493005,11.723067910826444,-2.110160936015319,-10.237737343654267,-5.612653784107177,-4.250268477811744,-4.969145517620348,1.1548555555062414,-2.686830557262663,-21.969741070872757,-28.60718492385713,-18.06722488265531,-15.220846750553115,-17.490643644178412,-9.183717708026503,-3.8244879510767475,-12.93754253667639,-18.525005218288396,-11.24317619996394,-8.632286843349068,-17.800723773436445,-22.88120463077256,-17.730579790740006,-12.15044704623476,-8.27134186925381,-4.028659242044888,-3.539534470883954,-5.015864320229337,-2.9410460894227164,0.6971322279759065,3.4128656834651743,0.2357361047824007,-17.31085869784583,-39.79855245757108,-45.34334397492054,-30.866841067912414,-12.035536643644225,0.5770251224497542,9.662242880772165,7.253503401730841,-22.863126635312632,-51.23348531079889,-47.746664842638204,-55.16872983520669,-78.23560910025188,-70.9655527314706,-72.11997942798706,-77.82308798244534,-9.57164063615243,106.73696153442404,343.15123468254757,695.5668852694776,556.140194934403,-271.5091381842501,-708.8747046922539,-256.5265071814599,84.2572676245956,-92.22854985861855,-127.79893148730025,19.901818935272146,-12.359825624629153,-53.79418560896676,10.145356530210606,3.805619406486578,-27.19398565867616,1.992980888879977,8.512836078305902,-8.233891356054642,-3.660718055876668,-7.267441627820174,-14.419250384381002,-3.3735480265077875,-6.454016518096907,-41.09746804240799,-76.7146613370967,-86.72974328970506,-75.73288455915056,-58.376744710497746,-36.00185991040557,-8.824057784887366,18.379926402335958,51.153190698095806,89.36777074644718,120.54652080812127,146.92764450805947,172.43774313889162,180.65947015082966,162.05503135525518,120.46127515973748,53.91282022680307,-26.81396822540523,-92.92694487453788,-130.73345518592856,-143.78712825411696,-137.78581119878126,-123.65369951453205,-106.84827800165733,-83.61542891460871,-60.85811692300319,-44.72957345138826,-26.111896151751488,-8.175720169741446,-4.006538411628995,-5.601800772293593,-3.890247601926049,-5.21463746214642,-4.589210117433609,4.236116308517655,6.870039002822072,-1.3238990089794704,-4.600243438454271,0.3179778142808871,2.3183279159071475,-2.8923370739700474,-10.230692943898855,-12.84896238937306,-11.199225866353189,-10.851905793319446,-10.907272636335389,-10.088710600884191,-12.522423733456634,-15.928814859432148,-14.862637817612189,-12.800127347914678,-14.359382615100014,-16.64970476118492,-14.359469959889815,-8.469259555636665,-7.65794628884602,-14.450618248188253,-18.151206304237473,-10.963503601750137,0.37170421556720257,2.6708157285292664,-4.168544635597893,-2.8882114534137955,7.275246630883499,6.54557596172525,2.48931307530718,10.635727746697953,9.781405294603804,-2.367417207920621,2.044124044111026,2.6572419229511794,-25.18550611117894,-42.05496176806419,-30.362503553981014,-22.99243481204551,-23.141427684989644,-23.983707308804036,-39.10496572528683,-52.52429908628834,-39.305897926312085,-16.09242447065084,-5.62307480307247,-1.2637880501408034,6.822569742208241,0.4340397679514503,-29.069402073672393,-45.1819550111691,-46.560261630922916,-65.62450076057993,-69.00434970684651,-59.23811547180124,-89.23773454742744,-81.78115605940977,19.865515260967257,200.00048641418036,546.8472859830858,753.187761933014,207.30404120005343,-600.461134050513,-563.4089746008877,-27.926432490848708,15.197478462579568,-160.99554953737774,-47.54745428320834,25.084099261355874,-65.77809141984855,-40.13413199346299,23.82800259545249,-9.421747906440338,-19.762789398723562,3.7515167333538635,-9.821025771654849,-19.561896376607606,-11.904362527592262,-20.49106782521769,-32.529501943223806,-36.02796986365871,-40.539757705693866,-45.006484930088675,-47.036294823097506,-47.173321430448254,-46.24795403508754,-41.504595360312535,-18.900360634113163,17.997111472563223,46.14450965512407,75.92320833921342,123.54798304278103,155.3776012558128,159.8775449828985,179.79698881764656,203.58173806987,172.66993313289564,100.2880735397538,37.692768270728976,-17.95946544941708,-85.5140009330308,-142.50728749399335,-152.15392711467896,-123.5486165593597,-112.79993313189952,-132.02150313777582,-125.19374313178909,-79.76492904384804,-45.49316290030555,-34.675562538609526,-27.994996730121883,-27.88268519502062,-26.732706676572313,-9.492641294486312,4.706504452933711,2.672488471287302,2.2565579117112264,0.9989184069279986,-10.181944861197913,-5.936098908072456,13.497000539892419,6.638235110765297,-16.604669348182796,-13.191748977781806,-0.5415964896772714,-8.620705601842651,-17.33965285839945,-12.90171958838279,-9.444561540460771,-11.735676611266573,-15.159816776078806,-12.508400352693169,-4.791495247317091,-9.558042675043367,-21.27726833904015,-15.472366799586098,-5.950086430309078,-14.166454628808768,-22.064110603162014,-17.49690038152889,-12.983759195016091,-9.8191646263896,-2.972924115796147,3.769820542230292,4.7741050092284,-2.2007464761491917,-8.06421849084522,-6.801199065147884,-13.64303877818574,-32.21424647086964,-41.238356262107544,-32.4124924053077,-15.052233243334099,0.894103487415876,9.91519302675619,10.601994080704532,-10.342010215117101,-47.689387747069205,-60.54157091238708,-57.75655976085551,-67.44431160473047,-59.67059570483019,-59.9952101103474,-92.92211952880776,-58.14849384483677,63.10674794937121,289.4394357633938,684.6329828068192,732.6035136572973,-66.1892169058267,-790.8989447197089,-465.33821711830217,78.95400628193596,-23.314799763036667,-173.95506665528725,-12.006558877621472,26.8442919764298,-42.11527481231969,10.167431074820628,34.32282481998749,-8.055826047410186,-12.975607186172567,-28.60216313445435,-50.38687296337236,-32.0282661345778,-29.380257815991854,-41.349884077649726,-30.84966026453546,-37.58677618181066,-57.24404022658999,-47.597272090237084,-40.059850785431806,-54.942667923619936,-51.82963586586146,-22.977714282970254,5.475563278993272,32.6135909449154,66.55678987987227,101.79373295663899,133.8999265062402,164.97595156039378,194.68548698316965,210.81075095961683,192.08864026992364,134.94063008867442,62.86086017010281,-8.208276184570693,-80.71370849432793,-140.01687768069235,-160.771406887974,-152.0709191615237,-139.08138209500905,-119.89231185350135,-91.3325478168581,-68.77892489658079,-50.77520151849467,-28.052723540828616,-15.897865658041276,-17.766923802275972,-9.957249143891062,5.234968944150069,4.456039020315977,-4.379313408852013,-0.04909724218990519,10.949670638944507,11.17861081029619,3.1227156254531643,1.8806571831975845,4.181330176748045,-8.449421306119625,-25.820268758550323,-19.3101801120217,-2.2626903370425744,-6.671589878205463,-18.992491870610948,-15.371344657221272,-9.373956584428026,-12.423275741288894,-14.512767394531135,-14.797762092792823,-15.95605058669491,-13.914818324600372,-11.643168978337421,-8.919953454819261,0.27345680685762375,7.734588805602586,5.015687947492038,0.6702673207821217,5.045370919913195,17.820552536472352,18.980615785703066,-11.398667295819486,-43.479914619944374,-35.577605586807046,-12.896873840475806,-13.76289350630686,-17.5560384623577,-6.8063324431319785,-6.276517756723241,-20.00595891015517,-24.887562012131518,-26.207480251718785,-37.37548010023022,-35.89043971803476,-11.352186132957018,5.198964341639741,2.615895509129313,-10.63005418102436,-37.79389099552994,-57.13050815122358,-58.70062670690915,-70.26189818535583,-74.5133823426126,-69.6182444002175,-88.86759705182882,-63.31316933682957,33.55872012041799,182.30302876169225,523.6839372413137,782.5859766524122,268.527845793236,-588.6897904630515,-591.610342275801,-24.378479043338725,37.63348128929822,-166.8505142901932,-59.16445424701104,35.87666897917566,-53.07655298251225,-41.7295222827654,18.802382707385515,-4.314740072121481,-3.4355121410399043,16.965462209248095,-12.802637620383038,-35.17123524062589,-29.99586417572587,-33.90425285588396,-38.369805258692345,-38.06748956023229,-43.41843187485945,-48.68446681273941,-51.3042862127693,-51.72675717207562,-45.736471662237705,-33.48582499136553,-15.064494809095486,9.724745293983094,40.578949129547354,79.67359641759933,119.47611966982168,148.3695626060812,171.7155664681478,193.4128174125992,194.75532630193595,162.6064762482171,108.07667614835542,41.16280759930501,-32.51064029803909,-89.62483680751818,-116.43376746731658,-137.4438083869635,-160.38461488124506,-151.31187696071342,-111.88155308856102,-86.14796670628067,-75.9047897831943,-54.60727419659644,-32.30716817752493,-23.53385107967275,-14.832296509809936,-3.070123623923294,-0.43576248214760227,-2.2641446213891463,2.921711551602094,9.514125272489974,6.869124672332152,-2.40099946467258,-8.149495168727032,-6.5365466341452745,-3.634473049735387,-5.631060682315805,-7.9205563889345605,-5.578231275633264,-6.529996696398747,-13.657045646581327,-14.713590514637758,-8.142976727806143,-6.528607094708583,-10.297522770026774,-10.928066240784606,-9.828189301865873,-11.039780686919947,-10.269218301236275,-4.2179219668008265,0.4860746501923181,-1.1962184812300904,-2.678444530570747,-1.6545479515282437,-7.44943480180142,-19.09907223243049,-24.06363350790553,-20.749499315753255,-15.802625546357884,-12.155086379689699,-11.038713412463746,-9.180988368278935,-3.450744247904538,-0.9906233587278059,-4.886237822039476,-8.391310363047857,-13.757098277897619,-26.02382943160019,-35.56759979984119,-31.449183017655987,-17.542895604119792,-2.4315136753766247,12.210420724578661,12.751857679709296,-19.605278374250396,-50.54037134042261,-42.13247960652801,-41.345298214658285,-64.74211716615282,-61.11267522865394,-61.31926364506702,-73.68568764388483,-17.07395812716357,98.21194163847764,327.2848128925978,666.6192287895763,548.8193911973243,-246.05791867918785,-697.259457626473,-268.1008141669558,92.53763203365216,-61.92273907629288,-113.62587793666741,2.4384072850558596,-48.88321596968211,-85.9134456508811,-2.705445128492867,1.2717937297993132,-30.450514700352116,-1.2085600283068363,2.763164693853284,-19.24008644179763,-15.942575541255827,-20.11673095662769,-30.522503143874875,-26.25797706061546,-33.63395094921441,-47.087065400882125,-39.89634947809999,-35.085798070658285,-50.531237569549525,-54.253944338839936,-27.16114187237874,9.834542306352406,43.119691230599756,74.67895039530055,99.25571021863624,120.92081651954646,153.43708522539617,184.9386128311493,188.4971373934773,158.66302916584442,107.77549995224595,47.02670869209035,-19.672871739072313,-86.53316189930078,-132.22571851016409,-142.40591280249146,-134.8251351948603,-124.94327477641632,-103.92100759176553,-74.55760388477623,-53.95127925884205,-42.945794225860034,-34.84057311940944,-25.84232240552747,-10.208005131718384,3.308159740759539,0.39008659381637756,-6.999793953606428,-3.6457799936225825,1.9201760452805203,3.7201834378149634,6.6117566130559595,8.55751295830487,5.914304983509467,-0.663947237350591,-6.933624504193393,-7.205477645371644,-9.058459223634753,-20.187310162516617,-24.748292702177412,-15.671498455926795,-11.512439194453762,-13.89947303428633,-9.683797677485913,-6.978748367065787,-14.718353556826553,-20.637080925956184,-16.673886885776923,-10.503992736836363,-7.848356007850288,-5.943495763584469,-1.7197244292762264,3.739925618673471,7.194821685163996,7.491104231349977,8.153215759778554,6.567604734968906,-11.607540323164553,-40.58828390475492,-46.438019627858644,-25.10288983962338,-10.685742560880147,-10.767708215841033,-8.747344326665893,-7.710989221799963,-8.606396183710515,-1.4317513378380973,0.21319708251937897,-15.955509588484986,-30.22753827783024,-31.497582045564222,-25.267113784970615,-7.139940498517831,11.293889843463933,8.913650983107402,-7.072720489763487,-30.59864476804404,-54.61242000659739,-57.66968627466749,-61.72430298725717,-79.39252566160727,-74.07529868615612,-76.11272298100806,-93.22365535478863,-39.96643137602692,80.137182703738,329.15437595632267,728.5786031892211,666.1745692167339,-197.14999270537388,-781.6810208897541,-354.07008721802464,89.42980171814857,-76.91977677858637,-167.2294102798001,2.911183620479889,3.512984281690237,-56.74412854005567,3.967725225097432,14.898354630520402,-21.02701140111562,-1.8724425905696798,7.683341350790187,-8.98979303044332,-14.082151265010076,-25.921627013256327,-36.053322374854,-30.69428572445434,-32.68697365456512,-42.83136284927768,-51.49447501274768,-59.24433209833255,-57.85528305200526,-45.3635662399347,-25.87355402856805,1.147629572819305,32.04022320442044,68.70146183011214,112.25503319197158,147.25587756600933,169.8887254461842,192.56402065634887,206.62150921723057,190.4698167341495,144.0677866074387,80.54996644126072,3.0937759575185435,-81.83248321991564,-145.9640209901497,-169.22952656249666,-164.8512980102301,-146.37957455279525,-116.43240351039407,-89.7382622232759,-72.43352015392801,-51.670141707486415,-30.025329406112483,-16.870903164669464,-6.310153324414017,1.0451050137247506,-0.32172589882400615,-2.2532060840354973,1.5104765987475268,7.7082351153331246,9.357361451883627,-3.0142895058506554,-22.877443002867416,-29.5049529550181,-20.684693258291627,-10.805073030560088,-9.31304371003749,-16.871460536213757,-21.65308738878929,-14.155110960496607,-6.992715464975397,-9.76175513635869,-12.07710452518528,-9.786790781080583,-7.663988186487277,-4.738641283336587,-5.059210410335595,-13.214289218676086,-16.452244006216787,-6.963789346883527,-1.5526256000299519,-9.66469309182433,-16.893549271297516,-16.878052149168944,-17.57279326937926,-16.08320232234085,-7.738585673660129,-2.457347771136785,-4.28617428411432,-4.170397178426537,-1.138374633360204,-0.8688438870662196,-2.409540794317806,-5.755629603078798,-14.667623079440816,-27.097391149619142,-37.776221056580184,-38.65342948322569,-19.904379830961116,5.064247009991586,10.717693355170784,3.4728302668950413,-7.888464871388386,-32.95677393222151,-51.264716477338794,-52.63138312767684,-62.56247737592705,-64.68489045728208,-60.83245190982451,-82.18937262666603,-56.835621413708,50.35476281471037,222.12829804025287,555.8914011331365,752.2077170927548,197.93638001203112,-625.4507694284903,-594.8245424998174,-36.1453419961459,28.242562212962184,-162.27536061097746,-70.00703522695588,8.471585581482756,-66.2301894538094,-42.33040714190084,7.590644962913132,-26.407413972223708,-22.313993898004107,11.112829817767635,0.7758956544689184,-9.107572780066057,-12.808186816760923,-29.79622921770011,-30.501270357336757,-27.364184625070056,-45.36083615079227,-55.84637067834981,-48.01861905149433,-44.954380832913955,-44.65005894162392,-29.580522027892478,-3.4907020390014107,19.063174119971272,42.33951751068953,79.00936449897412,117.29919259678196,142.19879589235524,165.0407828582887,186.76483169769102,183.02315261851965,147.27159525486746,91.94059860691354,21.983384143589628,-52.695569013312,-110.92624376119153,-141.52974195884462,-148.15322567691666,-136.64170086287902,-112.74556117991196,-89.232785412326,-75.10123484216982,-59.504651872469616,-35.5343600555895,-19.033026695256986,-14.336681033173583,-6.952374524320856,0.9488197773799136,-0.742150772185795,-4.814167597795432,-0.8635331518058358,9.915617773553835,15.162880234944456,5.208847528087755,-6.367175581666672,-4.020951807903721,1.1762269487535235,-2.501292856107792,-9.08162587294225,-12.15298683759957,-10.045992103331713,-7.4637635415925025,-8.336171870262646,-4.039865660395524,1.5746530624830584,-4.60149506367928,-5.968554062548726,6.396352697396885,6.0412409205368895,-6.749360446026685,-13.838360555168638,-28.23415727168367,-43.64602439278079,-31.662936519922546,-11.832807923650645,-12.986032533681254,-21.100060775896836,-24.51132019386823,-24.507530649812075,-15.780771220452245,-7.152922459726497,-8.423460004590783,-8.719921884913354,-5.332914960945885,-5.218900867994844,-3.462557608151698,1.469617550131094,3.6950491046872926,1.859747622501338,-8.2723225125462,-26.287834989714582,-38.05082299683821,-35.56305903933117,-23.39743581860703,-10.22767406128554,-1.7301601136736142,5.841960418561646,2.5628547420084313,-23.244237240507093,-39.41635127674343,-38.65946660699823,-61.01147239362735,-75.54026946794319,-59.251108958591324,-73.23656816555533,-71.38981975178476,15.081567755037227,152.63886130153054,433.0452951918198,699.5910370530744,325.8218074257028,-494.7045948519467,-638.4248651483282,-108.81199000402438,58.622397395645734,-131.40494758087715,-75.63431154081488,38.71998092277869,-26.732556741995232,-32.84915860326291,25.355105169549855,-0.9266628320532106,-21.123645349080864,2.283637614662968,-2.5955895561913493,-12.09118844752999,-11.021811457417115,-25.260342771502014,-30.991254512974535,-23.636756893755717,-33.39138450917365,-46.066698991715626,-36.2683276837751,-24.511142119340615,-35.59064135316373,-47.639241067654396,-27.3292737572471,11.932893103722353,44.578274491602244,81.83465468013361,121.91351192873361,131.8469390814987,122.47710030846537,138.62158340683573,168.1134360986422,158.2782713824722,102.10223300326456,33.82337054248167,-30.64758887943752,-91.73275028825532,-132.71393105628047,-139.95029514993752,-129.7987825542606,-117.37967637692506,-99.77186033055224,-81.34886269572877,-66.16607260998708,-48.576494223236665,-35.65862866966616,-30.26227273336331,-15.926717815462268,3.623564752548983,9.357282481197135,4.035778557984262,-3.982584520632642,-8.6856833282189,-2.060448663104843,3.983845874836046,0.8654271659174597,2.4627679650564858,1.2730421377424577,-11.927088794439626,-12.042319237676285,-1.1753107779523333,-7.394504087771821,-14.683987544012307,-6.69314409934972,-7.313461013419847,-18.787866340463708,-19.079215275816047,-9.541210293207246,-4.171724982168584,-8.929828837469568,-15.800984158775018,-9.80340208596468,0.22721884421347838,-5.720758188816411,-19.02275225999824,-22.19718002320499,-15.385064065861972,-5.282292670974833,-2.0758843565772196,-9.152219588804673,-12.006445934806056,-7.01248582728676,-6.968657530189551,-6.533477628846089,3.67246633487348,9.406915599852177,3.6167565305465637,-4.887566985209219,-20.812165280473508,-40.25225862984418,-39.15503882540061,-22.543008308451192,-15.62852684623591,-13.147713367308878,-0.5109293778036523,9.107528120555822,-6.482880284513332,-35.12563280460137,-44.23833801213176,-50.172329428447036,-70.55290787562873,-62.8788033067124,-47.28434124775845,-68.15058410972276,-48.64602519574914,42.47134844958828,233.00461025937767,614.2700613069302,738.5215741779937,32.17558241320444,-752.3755571333043,-546.7789967233699,18.70134951050421,-9.140112475185155,-169.00716373701533,-23.189970455477017,24.006197399115976,-65.11304587625057,-19.06409323492559,25.525482453215737,-18.935283573100506,-10.865504680786154,16.69274236252246,-4.88715124190572,-17.568973277686865,-14.766657239109719,-22.513449136830438,-27.959275090582295,-36.386326383242064,-48.28484456232988,-46.04593105542772,-40.744130464247824,-46.76424255663264,-50.55122063150609,-37.030541869537444,-8.623664654804108,23.950851026031472,57.7340388211236,92.69354646715936,122.46710329920617,152.98861199622132,193.0985028683467,217.79886763603048,199.08545651825756,151.1120211963136,92.00659053137304,14.484654156397372,-69.51527012355706,-123.0884003194982,-142.57400431702058,-153.17441018706955,-150.75016506532666,-122.0619984315841,-93.10908862378136,-82.71261101641853,-66.22668966396056,-39.497009003499116,-30.732478689949232,-30.35134804698277,-11.090842624457991,6.383833075615563,-0.7400518714967816,-8.722667037797383,-3.2843019036375054,-1.1023341129761626,-0.7368801734578412,8.570390804124434,14.135238398831593,8.248600435338389,3.5724628549744075,3.807968529435385,3.5418443797467045,6.094782054935703,8.945034159226765,-3.907650864010222,-30.919993218938114,-45.036353976118356,-36.337600055140854,-25.737124938331878,-25.546934586861287,-26.71104322859049,-23.011085261848756,-17.981081937626307,-16.04109141198824,-15.87547972867744,-12.665655341800758,-9.36570549514336,-10.364641096946041,-9.91303271600756,-5.89175477215808,-3.2742878093425993,-1.4248917031080168,-2.2133744625407488,-10.013874816781005,-14.793014488249025,-5.826768005935712,6.1631630287202945,4.591735474031239,-6.211146003733589,-7.63089363139062,-0.45811193271933703,-5.328670378587226,-23.142336237487072,-36.448563998469844,-39.09653988645007,-27.4777275306005,-3.467635090575227,13.765164958697266,15.469622368261762,-1.5488756699675328,-36.98042791694861,-54.594417588852195,-49.79466585032522,-63.95700701492109,-73.05949856130265,-66.7726643002603,-89.7082956186983,-78.81977609851839,13.26197459714578,181.83089140570758,536.2909654864346,769.9392076827031,232.00059354820024,-604.7396730833706,-586.1946225126815,-31.29993127209977,27.39476966109583,-163.5476277093742,-65.1120985650659,16.99290604997745,-57.12769442406017,-32.22357758199501,22.433618994867377,-7.883740477448079,-13.865006608334204,3.052511009103265,-10.564985441432292,-12.238826082724081,-7.885310203553491,-22.548348973848636,-30.509040754043205,-33.368339612495234,-40.53221516242395,-39.23622806881046,-40.03792858933225,-45.35392986228423,-33.328372953238315,-13.041571558853644,1.0217571354074515,25.083085099655474,54.71687639238299,68.72109013384052,83.62082424315966,117.20888964460616,151.30754738796034,173.67866598900997,181.78776646553757,157.74692669492703,98.60393150302392,26.154441670420553,-46.299632312346915,-108.60664694232072,-141.85340658552278,-143.13290790780405,-130.94090174107046,-118.97291813482573,-104.09848774961775,-80.77492985196169,-56.079788893233825,-39.698450993185446,-29.678042647780963,-19.824737663728158,-7.678874437930066,2.4219063748477794,1.0744170309596797,-5.174603920829242,0.991436035626748,11.195936925555635,9.355633475481774,6.973099452237296,10.727698815493,6.40293841499593,-2.3368179694027376,-2.7780079143912957,-5.821030460015503,-18.50410963618699,-23.81888398123558,-15.70380728993954,-9.758210089443779,-12.611161968583545,-16.44310498553,-16.721497014821686,-14.082488901961828,-11.767830806822897,-12.817338819024112,-10.834921070547676,-2.953918518790637,-3.328386399291567,-14.381629503471359,-18.132488465303425,-12.842208583666082,-10.654436979093692,-10.990209303040118,-11.461301672350068,-12.047151685261579,-7.743513517747232,-3.018946560084437,-4.648589474932141,-5.079279723647511,-1.9387919785484442,-2.8803052889355527,-7.116359530135803,-9.07720637650974,-4.837172371640701,2.4528614109473548,-0.2278866973617255,-11.545753659000948,-16.763712980165728,-13.003646963899786,1.0062343505701232,16.630196411260712,9.302886950864332,-12.788733656358833,-30.153233766983185,-52.161078280563146,-66.02707503955116,-62.08898780531052,-64.75663671975859,-62.170123117123495,-62.06375712277814,-90.35687318481855,-68.80676000516749,30.607126034910266,194.6193388996113,516.644164749466,674.2505591942299,115.24203519055045,-607.06210315367,-496.50652100860094,-1.7157268251266657,-2.790129577190932,-152.01295440154857,-29.601169632369917,26.061999293308524,-45.862886651289934,-8.46918250927917,32.28121918582583,-3.936575382537356,-2.72816446485135,7.825253897366373,-17.74230262677019,-20.84661394642069,-10.879822822472502,-21.750845394630847,-29.591070418432306,-30.111582828821945,-36.59326917267197,-44.24352431341089,-50.40989931809097,-50.3552426429065,-40.72354904820556,-31.85107965620437,-22.659338971072483,1.3835830029908749,39.71790111916156,77.96170761040969,105.69684936076973,125.19720222500902,147.93153054308345,172.94723305373026,181.0781329976782,160.2189187058491,111.71162926594236,38.006996664197786,-46.138279272082,-109.74319890066259,-135.25565451266473,-133.3071334195593,-124.16241594084816,-115.00160645166648,-97.00239526189603,-71.32927899830506,-54.53386801260337,-42.876083754441346,-22.5463022290606,-5.500373559123354,3.2732056060728922,17.177608722443956,24.94455017246084,17.983529027292803,14.915614554809897,8.73774390508072,-15.628860908345573,-32.74881683581807,-28.342992417342508,-22.73244168190684,-22.415758960262206,-22.032405970175887,-20.792676590015557,-14.108774830950644,-7.517970486465394,-12.158134642011891,-18.883057253620713,-16.45707637172002,-13.959553398353751,-17.156906615864514,-14.01853919173725,-4.835920286298254,-8.178103876890344,-16.819413937370147,-7.766936281837722,2.751718784979463,-5.346335459968238,-9.29007296959508,-0.14019902855089228,-2.1688693169870277,-14.833050137428298,-18.33783695930427,-12.611731236396416,-8.532176322237348,-10.849760036642078,-13.844267852764567,-11.64194684537648,-9.035420967692168,-4.96161945405775,0.7667547649660733,-10.642086788194863,-33.50400133844577,-32.673788788490704,-16.306313313914615,-17.464671907853745,-21.905525697591237,-4.515047854710772,19.846390590428072,18.359256815002876,-21.9114148281672,-60.09002586603141,-57.04932467503709,-56.181395719379836,-78.68618137216775,-79.88471088181184,-81.49186041811595,-87.59993355784336,-29.46345763480016,91.52841092075586,356.7978396960009,741.0833222588673,610.6153051875051,-263.88676503384505,-774.6702851261249,-325.0329470867178,75.02801952588545,-79.1201327125027,-123.30612004878782,29.748637943802244,-11.129192345983185,-66.45596945550989,13.09986796080361,14.899222124655786,-30.45581095177299,0.4581278117298595,14.17337780680364,-11.085992664193686,-7.149512761093511,-2.97638589943751,-15.278821520679564,-14.051653929009255,-22.20795497578406,-60.7788197567574,-90.60211766812478,-81.70610614738985,-58.19735300265539,-49.911374033887476,-43.94011232027836,-14.216479504370055,31.646886044449435,72.12513143318296,105.78468441666794,140.20717493129098,175.53348248250998,204.82389681445437,214.06774666426833,189.6932569393857,133.72627936002397,62.59922802371828,-10.741080063902915,-82.65163992679868,-141.33422856450312,-163.66713405196717,-149.71470444144666,-132.18493751396565,-126.90982214069149,-114.45081513218204,-86.10115540735039,-58.26657144239185,-39.26996149536686,-23.455478938790634,-10.082802335720075,-4.801022981130231,-6.852860903963062,-5.397763667655653,2.83499809270889,5.5744477730524835,-1.2591096312524002,-6.93737849473732,-6.329277453074887,-1.9678072353547513,0.04460518848641115,-5.834539387186673,-8.664810198285483,-0.6017582489645079,-1.0950386402368188,-13.279088964180513,-10.932143950199102,0.4940495761236754,-5.199962756256706,-15.95632184715091,-12.922406351117882,-8.35723853484166,-9.490816330367544,-7.407331539756097,-3.989693087999804,-7.277401447232297,-15.583368513535966,-19.92644829678074,-15.06840715306018,-8.08085632023457,-7.476459352244259,-10.266078129558725,-12.103317604727184,-12.371843240561063,-7.155106196896547,2.5773331696527464,5.747790267317409,-1.8795458804108414,-9.448397145058252,-9.375622553339866,-11.57488320969324,-23.27949084591047,-27.89396038678869,-12.064701830504971,11.98120130112698,33.439592860701886,34.25258989470366,-16.516499642534093,-76.0169253193849,-70.52852806141328,-52.486622430850495,-80.41663782567002,-94.72760363328786,-97.99511132915761,-109.871887347386,-45.842919219257524,79.77059227705041,292.47341200361063,666.8375954555286,680.3876475135315,-101.23341402459656,-737.3010279391999,-393.9458849302133,63.92406477546323,-67.57044607707533,-167.71448080122119,0.4146361050177063,5.2229801761213395,-65.38917315781676,1.5628322463193882,24.315088994066762,-17.169144873894943,0.47989537117404524,5.772182650099339,-24.735035564706067,-20.66037348999206,-14.048571275960953,-28.142589281873065,-26.45163138373383,-25.10366617191847,-40.6034528816139,-44.81923846625335,-39.70003808193612,-43.96382583843007,-44.43434935991098,-31.346983746521996,-10.788629177823903,22.03796369507115,64.58440995433577,99.08719218736805,126.07856548495201,155.98998171764464,179.7884824038444,186.61122230436067,175.8249322675362,139.1304868779471,72.20068481003244,-5.324844963778423,-72.36052048106662,-124.10275982411825,-152.78846723912136,-148.28454614808697,-123.68642561076564,-102.8528712684372,-89.10655461143699,-73.43661364405317,-52.59112863514903,-29.594850032127788,-15.900479360424661,-16.30179776149038,-12.889022961451019,1.996214187183547,8.987815491575581,5.011068909253186,8.532645414487035,18.053387450084383,17.973222436065004,9.139047609277199,2.8510929800047933,3.794668121799143,9.081863263712492,12.342077004647807,2.937075267324353,-24.9418925964443,-51.22263402075908,-49.25415760495714,-31.052009003184057,-24.169071738231157,-24.831620537051762,-21.98328355227466,-19.8766405762549,-16.690321783602833,-10.914466103606003,-10.368632350295456,-11.534404408127102,-9.422895382881396,-11.735521109947285,-14.509056496144215,-8.026543807978552,-3.6539044128142493,-9.028438023839396,-11.007846270908058,-6.778852783040939,-5.029035424972484,-3.436949534798039,-1.2732101686808903,-4.679483773085593,-7.860572588852079,-3.3357038816255873,1.5256808764791092,1.3534909186012953,0.7863173477690388,-2.1340926800464075,-13.778658441376596,-28.547665978183108,-36.12913409332438,-34.390383452519785,-23.10123465384157,-4.7897753032717585,10.377951225824013,13.837420727369391,-1.3002487282226145,-28.712108298242327,-43.89672622477657,-53.514169892639686,-71.53731777758286,-66.46664633257933,-58.68406678461156,-88.43963622844146,-74.95941919096104,21.39555261221348,196.44929361606353,531.444723516131,696.6431268253123,145.0482408094755,-591.0750993188194,-513.0553277370104,-16.150167341655607,12.974130279887909,-134.6470292915665,-23.988716072417844,39.868241404330305,-30.817904175870368,-10.128347944903306,23.45563628373828,-4.967011496343609,3.741385345334212,6.502860036242399,-42.104014666473425,-56.296121085994145,-35.34344502513325,-37.62250604542167,-44.377787106200834,-40.35556126725321,-46.67896244854474,-56.211244286610864,-51.902882016274816,-41.91076591614568,-38.42174682034319,-36.96250940465981,-23.111325680542663,8.103573896861004,45.53211702438058,77.72407791162814,103.05839800444349,124.70901791048576,147.5392251520114,171.22089070976568,181.7034333837089,161.91120413550385,108.47472319482125,33.18055872344126,-43.172403606200874,-100.20483116148583,-128.15332581620208,-129.676610375488,-117.9735509439707,-108.84227900543699,-103.29940106193158,-89.07072772995872,-64.16978640049506,-39.94058698185752,-23.695151185313428,-15.591013943212225,-11.769417174798491,-4.9314558211618404,3.061971482312231,2.4335458745135483,0.07546082771078844,7.593239659033298,9.95671357077055,-3.4986871743284134,-9.86821358492799,-1.7370054487935604,-1.69945328597543,-8.429191108952086,-6.979403889860237,-7.261839793901935,-10.838911954952138,-4.985542243643906,-2.3233706711771696,-11.967741616703155,-15.226490529780563,-11.017127037864011,-11.056162432814594,-6.921408361325788,-0.3614878546587832,-4.126114688111304,-8.01423932471122,-8.124154329333535,-16.791650532399885,-22.301104638931292,-14.741163793427095,-12.363630587527048,-14.509657439713603,-9.165213854381804,-11.718005034995763,-19.47468721340625,-5.8616434854448585,12.067748886590596,7.412874399621208,4.810764927085005,16.850561271979174,9.69763204274797,-21.68118914309326,-42.26304138208066,-38.79543421744158,-25.233529944763156,-14.723089631523408,-12.648289130334568,-15.003103760328205,-14.635073839840523,-10.518707452224834,-3.71897268569883,3.991123363327109,5.831241748413635,-4.307138862630428,-22.397857575663828,-35.606434952488776,-32.36598012037715,-11.924682081514845,9.028849025649613,10.80303123385485,-2.113768295247116,-18.28231693403357,-40.28384655177506,-59.759193306812925,-69.60745349537999,-75.95864371893694,-73.61024930848124,-85.70256775136535,-113.66554851112717,-69.64665520564924,33.92054860282195,176.74597065290803,531.0953628513649,802.4085876235023,275.36635036761936,-603.1467630550892,-618.1044132390398,-47.89285073958841,29.084932983644354,-167.00722552459345,-64.05455701018707,28.37416050317421,-50.07162479055811,-21.96853844782122,40.59268426259636,0.15577024879921453,-9.877089683922751,16.378110002422922,-4.610215760944406,-15.501048018708339,-0.46442162543976906,-14.40502586790328,-39.96062614160243,-51.0631574842508,-61.322429923849604,-66.30653184940832,-57.871314413689234,-51.54577422175045,-54.2737586795598,-47.73334484796782,-21.269501561330415,7.541515834059194,31.80419193587139,71.01745794683006,119.84441778772418,152.3596498267238,174.46937782254173,198.20715466450258,211.98404098739465,205.72940997856676,160.48726257078783,60.71469767035936,-49.596774631774245,-119.07321970937537,-158.7228879383661,-181.37780928153822,-172.04050179625605,-140.61755181769402,-112.47922928639564,-93.31682838292112,-74.1900587990531,-46.51694418262793,-22.85930450671455,-18.358007333326782,-16.638468858971066,-11.10016649811326,-18.415322647917833,-22.596162690228297,-4.617141365864445,10.453864313270756,8.633107369715141,4.7581853804235585,0.2574692090988755,-5.556749444953617,-6.948104923392993,-8.314552746868266,-8.830661462065965,-5.662284735974577,-8.789021752199734,-16.338007434814756,-17.62674950939536,-16.724467273081252,-12.76878857374987,-3.3139413811727003,-5.061439044215774,-17.872833056383968,-19.858659675188548,-15.358066742294596,-16.383891425367718,-11.803003171265747,-2.82980698560306,-3.2914801787947603,-5.579067922968633,-3.113299345900572,-6.298371515193704,-12.962604955284807,-10.85078001935053,-4.453113067043386,-7.456205144920805,-18.401633169730694,-21.90294879655979,-15.298867300406755,-12.771590461408529,-15.519410379471815,-10.876960246501714,-0.2762084374572886,5.611415422800199,5.024283025549217,-0.3021422493872592,-9.92705927374525,-20.994021035616033,-28.64759037356491,-27.163585366135635,-15.243762107772184,-4.527315859467304,-4.5425303448960825,1.0510672440146873,16.26172016079004,2.052885588984749,-37.09950634083024,-48.785821881420915,-59.174669356288916,-98.61090784895876,-110.83653943613358,-108.13993558483874,-120.7159499466203,-70.4766952096443,60.6382678805533,319.02354696541715,712.6562428506764,674.0824311955165,-144.27666891053917,-739.6632364144003,-357.0169488346546,85.98271647798829,-63.31072905303695,-164.50174570949937,-3.7241712775509086,-1.2410229951882172,-66.78054372589202,-5.521055334072573,16.71715189836067,-12.167966456726475,5.154038414406248,3.604816092597307,-17.831767280790633,-6.034574965960562,-5.460874475853949,-24.81741327369667,-28.547484360532277,-34.8973913854593,-47.91128439483579,-46.727303198152455,-45.0885986028087,-49.45343982532566,-42.62569181471757,-25.54945779971565,-3.5445521277578003,28.465240073130644,66.0867958839548,99.66781757105264,126.87350356154204,152.96200779402642,182.49405981657188,200.20392942019703,187.15393087108328,149.75986231015278,90.6804710884272,3.84119448805757,-80.36750675042981,-128.32770481074868,-151.2897784472797,-159.20039822487834,-144.99370011925512,-120.65700334686234,-96.25251098767262,-68.1522159278976,-45.02344766061981,-31.608472728541628,-22.175379649910298,-19.647365012496987,-16.339991916531698,-1.516440475953214,5.9866549739287045,-2.6260889233898723,-3.311782347159788,6.07686985030152,5.862965932216564,1.070258777399026,2.6859929622320564,2.4796970209277696,-2.2020529996260585,-4.290871463550786,-8.441799105842467,-17.660093499810095,-16.410339762355513,-1.2315078649690498,4.690061999843568,-4.023018349914857,-5.7473557839464675,2.8899582161791386,9.056731557988433,8.266217625382794,-8.018115808732578,-36.424405963003224,-45.17359129302175,-28.204380379553868,-17.907656361123987,-22.104764395433108,-23.363161687616127,-20.62179679720476,-17.498158846385277,-10.457903346144217,-3.452786569677869,-2.222067861805627,-4.959710690382124,-7.1548971353509,-4.431600364162783,2.3592301631504515,5.840137207183096,2.9016729715261818,-1.2617511869324503,-1.6144333775923947,0.055546652199087276,-0.6612357610838941,-2.872553828074203,-3.8508009889434938,-5.399717317692765,-10.895384999413743,-22.644137468558682,-38.73583633741271,-49.98002284713553,-47.69300750592638,-33.026799223311095,-17.43333903415668,-7.284841669891218,3.708208667278786,2.7964576719137284,-27.38211668696954,-53.55118053336927,-56.02891523133036,-66.742222425082,-71.57736482262516,-64.69161212203852,-92.43350396339572,-95.64378559307907,-11.779695322833149,143.37008755818175,469.98514163491393,755.503442537623,352.00590143116483,-479.3974329519901,-600.8946565153045,-80.36916716878278,51.36200281954132,-146.70142526596567,-83.81608424598346,22.901882416375074,-48.76273274545561,-48.436827922847115,17.50523962510833,-2.3484198761739847,-15.5646535666529,10.82965804080585,2.261069223625043,-10.438908381823243,-2.6203633478796142,-8.050113704160372,-16.914411484235927,-15.425203343121206,-20.432196753014928,-28.525786831658007,-27.279821275449052,-30.937568645385106,-52.51841648207356,-68.63692782277371,-51.16730318291433,-13.476337021402319,17.030995518425197,43.971218888482056,81.21582555168168,121.00721699091481,150.20464527437733,171.43328240959084,186.6332965552976,179.66070684173732,137.31833316377106,68.62978151803856,-8.200483882476966,-75.77656294732074,-120.9254730382068,-141.7707867616374,-139.7346194920187,-119.36592466347105,-99.16873187258543,-89.1417811706769,-75.56714523433583,-53.40950097881323,-36.098052999265306,-26.932438030028877,-17.319926631947734,-7.0456103336389475,-3.7082793734035633,-5.991858014774831,-3.081752293363291,4.770336311867947,6.06802709346514,1.384904924569497,-0.6312760994994839,-0.8585297710925737,-1.8146489017760636,-1.898105247938524,-2.448201465644914,-5.025760185977639,-8.341784861009305,-9.534799596633867,-6.096556453379453,-3.381081193803251,-8.348755104733275,-15.27949385459813,-17.667987485540564,-18.688713314730233,-17.277231512509474,-11.329016928038975,-8.464581502564169,-9.747400221621039,-7.907794978919057,-6.3030420684683435,-7.283637286966421,-4.049892648830767,-3.975505083356758,-14.733534243725526,-18.279557411751274,-7.930972955279087,-2.2113394761229372,-0.04965347561281774,3.6047356378689948,-8.454834094307468,-22.640210134642913,-7.619626202521866,11.7111902115199,9.9587232045031,15.566425683781816,22.34477104894478,-10.6692740501218,-53.84677421387168,-56.0047454873456,-41.27776208024836,-43.524883739200575,-43.567023646086604,-25.424402365673828,-2.2574380063064794,9.30579579028884,-6.996675741670021,-38.95861085995122,-49.64985071534595,-55.200466814971875,-75.87179149985145,-67.29642178619295,-54.46795635073207,-88.024139438862,-73.73551606366652,28.753856362564704,203.97094372562617,545.7086274388313,712.774273965782,127.8282993356346,-631.9423755548476,-522.064698797392,-2.8707583572784436,0.20547876781877505,-155.07510344096306,-23.899188804704487,33.052764852973404,-52.43393316503059,-17.605460192652046,27.484690164647386,-9.814566599061362,-4.03998228465106,13.13230171691791,-11.561003612870842,-9.663200221605063,2.797015094646831,-17.379818858079588,-30.110575746446905,-30.700229078903643,-46.12520820145337,-55.38113599673805,-47.998680687091316,-46.62136217228112,-49.91313730677765,-41.77429351664009,-22.822560429200614,5.590181597890215,42.1685312483976,73.81019860203251,101.02226922154593,137.09015784819476,169.74443192605378,185.57599181788083,196.6553870477477,186.1086137846478,121.6573009818557,36.8525068414702,-25.366813768686136,-86.44035975587599,-146.4313371784847,-160.15908448712653,-138.08742144011035,-122.18834974196778,-105.962962599038,-78.72564250918239,-53.845927163769886,-32.098482390721415,-15.616519737440193,-11.985967629714658,-7.18148137811588,7.048898839861696,17.98569775038747,18.455034122423143,0.7181464071762917,-30.430801856214735,-37.03843195146952,-12.96010439568094,-2.333365883262701,-10.955691618994354,-12.468484771236618,-17.524682405337096,-29.293899748115386,-19.426338849276764,-2.1502303762886825,-13.07411517025082,-29.563623426036116,-20.43791248312288,-7.944978111831226,-10.45777818752347,-10.984270660315964,-6.760742461946759,-9.931114451299976,-13.38068538652243,-9.31375457846691,-4.083290308054128,-0.20185396654395404,-2.546777985022267,-14.389902932682201,-13.386759187054032,8.026671815911023,10.22907827674575,-17.304078474193833,-28.075038776856214,-12.909610472812634,-11.007919981170666,-22.38239631025777,-18.777142264102515,-7.523353174316245,-7.685097651920351,-13.565747072743811,-13.148194344344589,-5.3234772184014325,-1.9370114998716872,-15.853465809077171,-35.94036602792498,-40.29099825568207,-29.392283154223872,-16.75512948358908,-6.210850733359965,5.860801403713914,8.407022384458198,-19.934535126638497,-54.77507597238021,-57.329253563273184,-60.666215435323,-78.8814126050213,-70.99355176730941,-74.91717654848487,-94.01242433969865,-33.087168361158824,91.83328416635008,328.8136104563286,712.3613435449879,653.8503905856246,-189.66682684379245,-766.693455206532,-346.1779729700331,99.14313994498843,-57.15799634494573,-143.96869862269605,25.214607691297104,25.1250663640758,-34.78937898141153,21.24520158281134,10.954951729674193,-47.28479186860088,-30.462560534886915,-19.835359873427237,-38.27590666850659,-27.61247835201058,-18.422299782490825,-24.898467972769435,-25.89278446067337,-38.068608298208005,-54.89548281815873,-52.58292020730114,-46.434609386483515,-45.681489757084435,-37.73044191033787,-24.725804243878233,-8.889065869264163,18.759375290052933,55.94927102474884,94.51819337037188,134.103577263339,168.94339101961233,187.89420775884855,192.5477176096638,185.22295340505138,152.41009752408826,90.23412620891813,16.44694660908841,-56.447066305059316,-119.0076880739741,-152.40038929191448,-154.65001211495317,-143.18764623581285,-124.60230717549791,-99.25257416023848,-74.1241077786332,-52.53183866590015,-34.39410887912059,-20.465391776952913,-10.773449578551457,-6.727802937633701,-3.8502497846304458,2.780252589967752,2.0935573679215125,-7.753424869920401,-5.856900091530964,6.411020998398698,4.872500786990958,-7.084098029651059,-8.663322843963403,-0.4608596104747029,4.828061305692692,3.340501390908793,-1.9370266865841081,-10.126255792377098,-19.21445591730786,-19.867991593226712,-13.081328134633367,-13.246395729721069,-15.647972395772399,-7.357617359931343,-0.7326505456611159,-4.683722400679322,-5.13997491841473,3.3530109426121886,12.306673584728637,12.06867775631807,0.7687463102419336,-5.343649917709136,-5.2260207021151786,-23.113392339917354,-43.939045183587595,-32.074621722892104,-11.864515175091405,-16.816036631578477,-24.41308121236286,-16.92648737342295,-9.124365842332928,-3.906252450741654,2.4700454298715186,4.167356433599647,0.7492705143794431,-6.589093647789177,-18.609055860007395,-30.606315957348336,-39.599843788182014,-40.65489395617437,-27.47564735686038,-11.078722364584618,-2.820627983404407,-3.840490514060466,-22.944948843739663,-47.1670373931792,-54.940493295988446,-67.46215965685795,-78.17307815418613,-63.37816087009212,-77.15811553270359,-103.36433959062097,-41.53718229424488,101.17764680419725,372.92127819136863,708.8996535748818,521.2305052582619,-296.85850462250994,-684.7257691312205,-233.57901493266212,76.32235104910026,-94.78224206838932,-115.73908408416824,21.284328577834174,-19.50152541113971,-53.69563756730347,17.116237725635592,14.498586571179896,-14.732907259305463,8.908943753543351,5.471874046531127,-16.87233308801084,-10.595379022596493,-11.628067894395945,-25.682748438843372,-28.627775300585263,-32.707424769085556,-43.620203639892466,-47.50843074426488,-42.13848258004701,-37.596392730405505,-37.83156674867537,-28.37724574823884,0.54083289441256,36.18609723488876,68.64101801637908,94.40266887622622,107.60094626357994,122.12442679071992,154.28082657721316,182.0707234866953,175.95224830597408,138.085693309722,82.45951727877353,17.786872876205905,-47.37961894529163,-99.65079133426372,-122.02600945471467,-121.6026655412434,-129.16186571666614,-137.94064742793879,-113.9566968913925,-75.86267483514249,-62.78823408049692,-58.21134312922395,-38.29114200397165,-21.319614083518083,-16.029464667555686,-6.248549802131805,4.594931123071415,2.772372215148792,-2.8724682045109375,-0.5346149780481184,2.6293340914667382,0.21632896376517863,-2.2174316363150375,-3.434094104665043,-6.584021412851843,-7.6496282655197305,-4.603806520947472,-2.9480271762919763,-4.116542658447543,-6.238208981720028,-9.574657218492113,-11.738251999412238,-11.600841366731672,-12.594868793750706,-13.364322300106025,-11.0653591240631,-9.842514994110676,-10.997198714734608,-9.505606503226506,-6.226689455429639,-7.002481420690941,-12.217085433527238,-17.57411961796327,-19.094090073755996,-14.689877261255313,-6.6916664482835095,-1.1802353114775244,-1.2206151409227886,-3.5259154881993595,-1.7817237853760446,6.662432865906364,12.477357065017367,2.9612070173369034,-12.114367189821484,-10.601398995630863,0.3896302407987733,-2.546670981465791,-15.107886177722367,-24.177011915813882,-32.20322755970991,-31.945817147034187,-18.688872992276153,-10.562636743634663,-9.769287409904372,-14.854488615605,-41.69550948820567,-61.633145026528446,-49.91605343800697,-54.17696822315978,-70.73276516884505,-64.90118132058377,-80.50528423717796,-81.54704769821689,6.377518026190714,148.35380174524323,421.5840350906876,711.813455332862,399.92807171553,-427.1181858870485,-651.2706926431518,-136.18923689894552,81.01982482112956,-117.22313437356433,-104.9707708975317,13.877056978250778,-33.05316023253384,-48.23861297309288,4.438281628473618,-10.107044273469803,-23.819244725468423,-6.57219883428543,-17.59283869947944,-19.715413193979195,-2.1497444370981817,-13.14481185343238,-34.60279495482789,-35.27185689280161,-30.22922358229057,-37.076587583197266,-54.76085866833038,-61.851687834792486,-44.935957780632805,-27.538590798697253,-23.68320964407294,-9.81119257252647,25.48563457340825,62.08653863665392,88.87500182657045,117.66485866353672,150.90451535375058,177.01122268144258,194.6264536585059,193.56280097077456,148.59610621392827,71.77661887095164,-0.9818505481777251,-67.36605554614545,-126.45104446667888,-153.90314920124948,-148.8344393708046,-130.61862921831948,-107.17034892302914,-83.51191111960657,-61.508930549522134,-42.4922502336017,-36.432336472884536,-36.22780897029619,-23.67076018786351,-9.159986360373352,-7.8840088503105825,-7.659896383141152,1.2103512239249454,8.17716202196322,4.110966406551924,-4.3887348952565475,-4.790007623052816,-0.6761414672485948,-4.673279668784733,-11.9218305205025,-14.128083103258803,-13.86372645729217,-7.647403903574272,-1.0689253812633943,-11.018460782421919,-19.906460687989792,-5.355263610421787,3.5044032202032263,-11.15234201830797,-16.623460588451657,-2.6722945634195057,10.738356790262781,17.4812794534167,5.795635456308744,-28.939986004087675,-49.53705520530829,-34.52426165353018,-14.118311301448784,-10.933574658124655,-17.307542248248282,-23.08752881067985,-17.65332591099935,0.9247376581237248,6.888141191650419,-16.403062111104465,-37.94752995464701,-30.99148147621443,-17.922930156253443,-14.795071846045257,-4.017958025657782,13.849552573730929,10.602742946734196,-25.277065405001725,-59.87117446566101,-59.8232161108305,-59.26825039924243,-76.90914468945812,-69.33579140699396,-66.0196011150216,-87.44234403772643,-39.89211727401181,80.69373382164217,303.6742789389017,682.7371165296014,681.3826265907028,-135.82029159827493,-798.8655756258121,-423.86796529470115,93.89214914760579,-31.019321787017006,-156.9511735175175,13.583839675023974,17.247408577671266,-81.2531035112029,-19.48386071703286,24.73661033329509,-13.936179578182802,-5.745054851414718,7.252478143364119,-13.802651657932564,-16.324127085939185,-13.571955398206583,-23.639847080211347,-28.689538821610206,-35.19130717395855,-47.94943674236476,-59.73444359294852,-65.24555705957866,-55.723495007079435,-41.632329578622006,-33.64751669262847,-11.480350490541149,29.443468087384474,68.44226234070611,105.01178678098577,143.35097395183874,175.08033275492676,200.64350745307303,215.11151672987302,200.46599500964018,157.26133727538846,99.71792266260341,28.280565502585176,-59.68867092955806,-145.56621657936472,-192.05520804391662,-183.00180641308114,-151.16179706726388,-129.5209090773035,-105.83188724185356,-71.60674491510753,-50.71335155239382,-42.32697463513825,-23.23085800963255,-8.100684578344826,-14.701358047109196,-16.51024570686886,-3.1794803451525055,-0.4762346806591218,-4.336562623786655,3.6739711430594397,6.744018722305913,-4.075423437130439,-7.995706455681791,-3.380762994959138,-4.057934962260813,-5.091452293985942,-1.1078262876512142,0.1640692120275311,-1.9529389058222222,-3.292712473722151,-7.349804219183735,-12.316182098382704,-9.912763023632127,-4.172460705479391,-1.5913964900746151,0.8920319335944882,-3.6791643965760663,-20.79765345116323,-29.22340887650325,-19.474910383239305,-12.415948510653806,-11.456179830390461,-6.294263706814277,-3.948066339748646,-2.839723619140443,2.2331579523709983,-6.381246858988725,-27.035700728901148,-35.782039841678284,-37.494960528741366,-34.96993510599855,-11.959772297285465,12.615499190604075,13.048265869984355,-4.975216410848105,-35.33202436486268,-54.60034754450125,-48.54150575604421,-55.93021101877471,-71.06683912824695,-68.65187495902768,-87.80699316701562,-85.74991188624888,2.6092284860398536,151.4689814605162,456.9471198916747,758.3373360618639,388.4674855693286,-486.46275914930266,-670.223377064756,-107.98592063602317,92.27447608452289,-118.91181671180198,-82.12614243187079,43.637855967147985,-17.288083583515956,-29.23905617596904,35.47310795211976,14.27341421388325,-25.572836653550343,-30.442290185147172,-40.72027753746916,-34.44152740198321,-20.942954147295566,-35.97211648772151,-49.32654000497901,-44.56722746941213,-43.66798479631015,-45.923475378531606,-45.65476762051436,-48.42516180939298,-49.777574016480315,-41.589856656322155,-22.16354696533488,9.615252598555424,49.657389219752005,83.34385055308132,105.53135339431543,131.27674603922736,165.52918234771778,192.11419619078512,199.22660142575467,176.72893939669234,113.21891880041795,27.00543423759973,-46.61198073771649,-99.70389111302887,-136.3319841263875,-147.57550382493878,-137.41131899321155,-125.01078818030405,-109.01698847249129,-79.21031905371979,-52.16858450546754,-44.79974811756449,-39.611591810238984,-21.765746384535596,-7.928087824505511,-5.6393009558298886,-0.3363750837593322,6.184240679066093,3.1003322411294576,-0.342992481303078,2.1880341519038993,2.121344805888832,2.4669429201550237,6.579193395968559,0.5771803264672748,-12.896789083743684,-12.86797228280549,-4.867781680628312,-6.942509733454777,-12.064340268721352,-11.962754607198153,-12.919701938676933,-12.86080063879519,-9.372667597798078,-10.027327315845117,-11.330445557610965,-6.465970491565656,-2.963108140449126,-2.994695739353805,-1.917342133213264,-4.300373410801182,-7.100242826189639,-2.007919475504135,2.4999864931330276,5.287113405746666,13.541827272883678,5.264372985394264,-26.402102407724165,-36.93356065168368,-20.657128247748158,-26.93109760298088,-50.22158702828163,-47.162700525520854,-28.515842584113212,-16.859145010507433,-2.1373215295080783,14.560011250122727,15.804763315527747,-8.149419976988028,-41.53714807509795,-48.86272980122365,-43.51800936791669,-56.008687037557145,-53.89197486378082,-48.08727114626279,-74.66656217620898,-55.252084105518406,36.92456263219863,202.29955141266225,533.1737453702053,666.0318967392284,58.39642781903075,-663.1233403589918,-500.4753166228577,25.22296467074191,16.643892369664556,-139.38003050621376,-14.510851046963182,34.27684970739385,-48.315000476382096,-7.200105234429243,40.44535412888612,-4.352296728208842,-9.410984095023238,14.407989124196984,-3.2057767432500093,-20.354797739820796,-21.571836769907538,-25.762869465354033,-27.611897395976065,-34.38357287980969,-48.36944555032452,-55.760904409238115,-55.972018116498276,-50.540315361684506,-41.11255706327743,-30.589932235304104,-10.010711948079477,17.43862535005863,41.555481382750514,75.99595781344159,116.55517752584808,137.62649189833408,156.56552484189075,187.28989304995494,186.71059650718462,141.57828871304426,86.48136760777365,22.244469344179745,-54.705277011882266,-110.82125417870817,-134.7753319007593,-142.5073587659743,-134.52788110244109,-112.2075792753827,-85.03708392597933,-58.203695658543495,-41.357542129391085,-33.38640086475982,-17.857957400735845,3.6165430876321487,15.510975638331221,8.268616033418606,-17.752390827758646,-34.83686730936941,-19.863498898704314,-2.3175146192635623,-6.875125843517392,-10.980738614414335,-5.311446428616755,-3.046523210223519,-3.3059621481774073,-7.2781385525985485,-16.328283378017705,-18.26078634749776,-16.736028897655146,-22.843449074973137,-24.32785647616501,-15.121282012807264,-11.514077023971389,-17.64168339316781,-21.278847212178576,-18.979225143441337,-15.846601388654655,-11.439390229253817,-5.03595751327321,-4.731664780744119,-11.558542327854976,-12.114405204265843,-4.282939867446114,-2.4747740869636203,-11.470390070788326,-19.12690591825548,-13.242434365462582,0.32820899253530555,4.697026158129727,2.035043306003976,5.027160130831685,4.292804146206787,-11.456034234259619,-30.168274786428434,-38.13177400243228,-32.72526558514032,-20.703841133245653,-10.159414586460766,9.752554020733784,26.901728779739347,-11.686876638401369,-75.47626197852694,-69.76384278331801,-31.377433480316554,-45.49542069204685,-78.90720126525908,-97.36696372331201,-86.24150305912795,-16.488589681574837,75.36653449186336,296.10764186768915,697.6476648691054,648.4478071979,-197.33921271235383,-764.103389686929,-339.22534552264096,91.72605617987823,-67.73617218252907,-142.73751469872224,19.14154066632053,-3.8497662310538914,-59.667087657056214,33.11202561743206,55.59929236614175,12.565576781798029,32.67965173214755,20.33119663959419,-38.092319288757686,-43.366778105298444,-31.886072214367925,-42.80803282512047,-37.46764768862443,-40.55284379927723,-74.6834486275981,-82.05049674902148,-56.81636487058138,-51.928902932919684,-56.51191171392978,-41.14788424083224,-18.46311036032437,17.414912079020528,69.26448249789306,101.75035648320645,122.41428643600945,165.62377523587668,203.71820749801842,205.50597168574248,187.428365920474,150.01830524045073,79.43514410425564,-8.960521859721847,-90.24646937602671,-143.22162235185147,-156.1773116634157,-147.06947709226569,-136.29400070827592,-119.13363334571719,-93.1558600499605,-67.58523263265164,-47.79603562838264,-39.99683607606638,-40.78113628069422,-28.144524471214403,-2.4750645810354115,6.992593216133471,2.197858503180491,8.847665436090452,13.972164467909241,-3.7288757536944175,-22.14841556857346,-20.847569996634437,-11.345322241213555,-2.1473298816544144,0.6716618501560525,-11.614281412631936,-19.97025263449111,-4.111106942957257,9.968908024356107,-3.993261522758864,-21.293199629503512,-15.736471261501212,-5.890089618358793,-11.670921415927552,-18.329339470364445,-13.332075871052567,-9.732457043607567,-14.553039848871546,-16.343335803881896,-9.790125570921806,-5.120700208595565,-10.814549720349115,-14.210358234597322,2.774322859984572,23.349874159393345,16.700938963769403,-2.7817820974264205,-2.5647097568372246,6.096017526797674,0.6242952331091658,-4.447892966666446,2.0720447856407667,-2.8625681323184153,-27.234306005727536,-47.52036799253517,-55.6054487697394,-55.98755872083197,-35.34191039198363,2.5609419120330497,11.830335235857973,-25.498482542586174,-50.68021318959841,-33.19286124204273,-39.97599466801303,-79.33950714682729,-76.95837325590486,-69.3010929137093,-88.66710228912079,-40.95121890082842,65.15386968649108,258.7569012016629,622.798943235852,649.239236278732,-96.94734475479447,-701.9012576745843,-347.8260256791493,108.04527562767764,-36.6751439967116,-157.96446951843666,2.023525980423152,13.324930588406048,-63.19400662447968,-15.432951746174743,4.756680966151848,-21.861773486805966,5.668654790174779,19.636937201742278,0.7655927688461901,1.417204453354966,-5.173845652244562,-23.880896822560942,-28.982961293887573,-36.76075333486855,-41.390188970210545,-29.896942804916705,-34.96759887831182,-56.620600338619866,-51.63681035444069,-27.445872659121115,-16.170132297596815,3.8807822532247336,53.14218237576283,96.92198374577113,120.86958371408885,152.44407363505493,181.8167649944679,181.29642253996738,165.9611973922474,141.21447044381867,81.85938261559025,-0.4864124468027504,-67.51605504858614,-108.83069897109077,-132.5622353535668,-145.74169325137893,-146.48598206264583,-124.91276411964098,-89.31405194697017,-59.35892880223436,-39.28745906776386,-27.459256632614476,-13.978862790215594,9.466789261259688,14.69685884011463,-11.117879991921434,-25.374924227042634,-16.508371892105338,-15.537946664347736,-17.365147762421994,-11.625284422140183,-14.72285457744773,-17.808362168096487,-6.617404359065638,-0.173663722229648,-6.351602830308394,-10.248372620259204,-9.377515803215744,-9.776092573989658,-10.072450092614663,-4.853053100542578,1.1183028555993282,-6.310476400994862,-19.045976512430308,-15.37285603231539,-5.490190895572795,-8.964995006768952,-17.38917952206251,-20.289099970203644,-17.176092269746263,-8.244622513384169,-5.215478514431506,-15.270905019712,-22.06682771512694,-14.700772105372966,-4.236300009413796,-1.6017675964964049,-3.1772215286855925,-1.575250309616571,-1.9569067803170839,-8.487240343337646,-9.6827124125904,-6.17359158969597,-9.584943283279262,-8.946074480698766,0.992009522870628,2.350039512711053,1.1144955797850375,10.087058468603134,6.198237529033218,-18.638171228232046,-35.139669909483764,-36.570264093359796,-34.97436971441904,-21.801522349340743,3.413630729540861,23.94143422989701,32.00685544551455,9.86239685176832,-42.1288042995145,-67.1715983537792,-57.2152530646263,-67.13049872600573,-80.91482828226285,-75.50548064894485,-76.25538769217297,-47.39897201364622,31.061771678361225,200.23584154720464,554.2752744304075,697.6988362511111,90.72962974486427,-617.6470517668472,-445.63860253458427,51.82734227960851,-1.4036904584542071,-166.21958241894941,-22.50996387974221,29.75009990260729,-62.69562300660735,-28.494646507022402,13.646370363439342,-23.61269402997104,-8.32984223662715,21.381509752192112,0.1845129954097544,-9.059083330372108,-10.168670035212688,-29.591697626552225,-31.118555028282756,-25.168729452487376,-39.81455554282758,-49.705715965660005,-49.999874645409086,-56.51495685015041,-45.8888248710348,-15.537298305939519,-6.573789329576748,-8.290316752944651,27.51194776858209,83.12908280467113,114.70122125083324,133.31677064599276,158.6687287228135,179.2924445634424,183.83845477592615,164.9898120797207,118.82573452196579,56.31366999715108,-15.1475271572782,-87.93084743746067,-134.88747246375874,-140.61126315718866,-121.98566122608891,-103.39783495208674,-96.43529921414151,-87.05882558059918,-57.38349566677952,-25.480529626983778,-9.935838031400039,2.0713647793296843,8.773890912005676,3.2500359514461152,7.180029699462031,16.734653163816557,5.905688067385238,-7.340252963526343,-5.137605369455153,-5.35452835530274,-5.196983061351103,1.3159989243740355,-5.6275377255610906,-14.033824687367979,-0.1790697061272457,8.3412967936836,-7.162552211909482,-15.414043253330165,-8.271627787877144,-11.496025363355699,-17.68432884890379,-4.140367019618594,5.963482507256677,-9.049693113905937,-13.304727367234808,6.540170748056142,8.131995457067745,-3.7891259802963093,7.0741853971967465,19.644217701557576,20.700555934458496,27.781444153829206,10.885770117811393,-35.76188062510735,-47.755251350178284,-21.569288607122527,-8.158869675283192,-7.988451817062085,-13.991498715984214,-25.56363860313216,-13.04547258163521,10.147333951229216,2.6423401380524574,-7.613290628551246,1.488103605201026,-10.481436285370624,-38.085646143863706,-34.07402987163579,-9.704424101628577,0.6619388316528809,3.9350473517715034,12.608703337485187,8.56255288551326,-17.05782851241783,-34.28301630269592,-41.854661738915034,-66.97801136686354,-72.98713647315681,-53.7959603581066,-75.37571639527567,-75.81062340285372,24.439313050979635,193.61828308108028,515.0123935497586,787.6964169677326,343.35272865255655,-559.1610929407007,-686.4610246386845,-87.05000820742912,79.28203049806565,-148.8277197289127,-81.13080046033772,43.26795257160242,-53.344430341123314,-63.04796312271749,23.644456234269988,3.0385987451410514,-14.352801194509134,23.637115286313836,2.9795173059845013,-33.2412430034298,-17.078105351074107,-4.519673562353999,-16.536901030407332,-24.796129950312487,-32.95002641501866,-42.67134628208779,-43.89335091890105,-40.47134629882244,-33.84068467740844,-23.293304071305712,-16.087198219719216,-3.976013480380299,31.249521501019792,79.59778789598185,116.67966358667141,143.19188486185902,171.94110693299464,197.65133203701683,205.57653619866537,188.00567693850445,139.45151838983222,63.22981047737832,-14.533899222429502,-72.07869156892123,-114.83818391280663,-141.37279725437202,-140.32790998217808,-131.02635183792148,-132.07199597671084,-118.29366052796374,-76.78534140083062,-40.63087567132843,-28.053129341146814,-23.549935102197423,-20.877917483499353,-20.585643944669975,-10.253275245864938,9.183442902486291,15.211076964949978,5.308989838490181,3.4923516537023716,14.718330012267842,16.449255102577062,1.3073489599541546,-10.685627483053462,-8.222857407560557,-2.874537500291275,-0.45945097334631413,4.798989987698967,5.4138084282638985,-6.6203265269375,-16.365068187235085,-15.208984884073502,-14.72635851175699,-13.342385905777736,-4.549849844757588,-2.720899114367395,-13.377202135647334,-19.625832857380306,-16.334641926860684,-12.605243082483174,-8.985832396364945,-1.2012206841966453,5.670552580078551,0.9420400537650142,-10.920725067673633,-12.121443043682941,-3.615916268070219,0.4079913181063599,-0.42278642796839705,-6.1211850541806925,-14.51657495108199,-8.610673256640476,5.59790863904856,3.938543144268138,-4.744461655822246,-9.216750174252471,-22.90334613482488,-34.00568377347837,-20.33858416119024,-0.80697213598941,6.0111845007613915,9.526719142199099,-0.4262020710999739,-33.17553602070582,-50.713384723458574,-43.11478115194885,-50.35205620318723,-57.702632581151974,-51.217598389364646,-72.9142792432359,-70.3939438197721,10.4912681214672,129.52719449683485,400.3897273012297,715.5625633032803,414.8235664495328,-436.05816223353963,-684.2643931243445,-162.60789488856796,65.47262659967069,-136.0859933541852,-112.55254325478862,27.233213760865496,-24.814782445508605,-50.016199819824195,18.620112048570633,16.04479345994219,-8.605184854161688,3.747494256819456,-1.7629998400852855,-11.196477406231264,-6.401320013528835,-15.074587947444629,-27.078515917923205,-29.996038280546657,-37.952092834244176,-48.4491195729169,-48.94413876219638,-40.1445735749695,-36.83771202639828,-46.98260106360063,-44.51842113017119,-6.728476625740374,39.92471276463379,69.38307882195292,96.17382043643651,126.3870995120611,146.34815411319732,163.54554320481833,181.65344296448202,172.67442426777862,126.43941611290388,62.492453203948955,-10.756394039648551,-80.49920242096645,-119.50440860923142,-131.49177006750838,-138.0856600799844,-131.9690920958865,-105.71690553930001,-77.9990854192488,-56.370200967382644,-32.425153203148895,-14.869858855402825,-14.426020151703803,-15.679610261844623,-6.893000255236046,-3.200037763126531,-8.302047930324644,-6.835575885047167,-5.914356634369408,-14.256013928343208,-9.390377948986611,8.787083515652874,8.328802332131282,-4.833466551484641,-7.100778286178812,-9.745075505815517,-14.907924118084523,-7.647740576446381,-2.588152421589321,-7.784205824016759,-4.3506571010488955,1.3604187641561865,1.8258787256922453,14.505405558899078,15.159857269501813,-29.08965198023257,-65.3693474438528,-44.650663197212694,-17.391194194665797,-23.097860943091888,-26.42103124744793,-13.541755157033268,-9.148788856706659,-10.373527313397691,-4.816433988694762,-5.8404123735090145,-20.148626782780546,-29.916037813965918,-23.355600495688712,-10.846762390889001,-4.811731437701852,-2.468190868851586,1.6196436637370546,2.032570857199069,-4.599063717514376,-9.744533304327149,-8.799341165357703,-11.524246216418998,-23.97164525527584,-33.77048112540451,-27.438125488372393,-10.433127808498934,-1.0894390289823868,-4.779923108133099,-2.238077159575303,5.933019696846664,-14.077272417771773,-47.63131599555304,-52.04512422477477,-52.3034514672845,-65.20983547044504,-68.77503851275024,-84.70431760102004,-85.99443288760818,-16.84847501206022,116.16656061214135,414.0570763994658,736.9846016590413,415.9979294043692,-466.02865467215065,-709.524393156295,-149.515965576621,81.19849256442063,-144.76496242876647,-109.25083029784602,46.53640734437176,-22.739534098143892,-54.99006173725435,16.364695097902413,-1.9094350029347638,-23.67796748042519,13.96798202717215,7.092867407473133,-15.319629560825103,-4.304403596589655,-13.130529606096829,-35.7742728646554,-37.481224929618875,-43.26541542519026,-53.82803029155499,-45.94007968300958,-41.37439932208858,-48.99573482547926,-34.681983703904564,-5.420787706411995,8.837113671910501,36.501120271589706,87.62879256666527,108.89132278987107,111.79216975457345,152.13515899524154,188.3726481328317,169.10587107640197,135.76339826778715,106.97476362095237,51.33028309091481,-17.597558979714336,-74.17870301511445,-121.78904864606268,-150.62838276507551,-153.97913198475308,-146.85894034092215,-129.94031953546016,-100.10915581458727,-70.76106267504935,-49.89952972764719,-35.70724596071267,-22.326156295759844,-7.344560550295718,-4.0655815764731145,-11.105472022444957,-4.9228103827203284,5.231742678653372,-3.9794521195940717,-12.92522565551548,-4.306745480909619,4.014389270839544,5.082718000775589,1.0401210247991237,-9.674514551104707,-7.658473457234532,9.640072103575093,3.980057573398483,-26.268649705250496,-38.969042544793226,-28.780568084648703,-16.21696775618522,-7.4313454125943,-15.580184065241337,-36.68256083774444,-32.408594406993885,-9.458673716961805,-11.522749686338742,-19.918184099453647,-4.679912297012205,-1.3273209210985684,-19.189506609390484,-17.41996903712508,-6.407108389320079,-12.537047753479033,-9.730217597325115,5.001755518415383,-1.1586979743253458,-16.82371694205182,-15.025930615597225,-5.472276923285332,-3.3981531381775127,-10.429417475884652,-16.892817414035484,-13.776059457084308,-17.239281395755377,-29.729246795978497,-18.671417294161927,10.439304162990235,15.904500678982162,-6.84315258879316,-31.457790171191988,-37.74687886097085,-39.07699500336737,-56.992131624455865,-60.56334299085264,-57.168263350770644,-100.96232802149501,-111.68089357216157,-18.019081055214045,144.76055447397837,472.1682922812259,747.0654388518585,291.05083303353473,-601.393107032585,-695.1401259020797,-79.80020244101168,87.09954110227827,-140.33460767261386,-79.42352947311903,51.12636717230133,-20.450090987810185,-32.42406722963787,26.287983955880875,-0.8434454032003558,-16.047734072500702,8.714825181885399,-7.66867730718031,-15.577089880758813,7.063829337640422,-2.928080812091654,-29.578546092557612,-31.068164126965513,-29.96653497432925,-46.74559929947773,-61.594659004990255,-54.76408226373951,-41.980972254426995,-45.75946641184777,-42.0865212328472,-2.2833248844012886,45.94575584020211,75.3224782568945,106.17628593479472,149.73628864773053,183.60112822127294,193.86654646692142,187.72848421019165,170.49706890490467,129.50533317118658,51.1669663917444,-41.33291807283376,-105.74434208865107,-137.45313177402528,-153.81111346865177,-149.3862542005944,-122.45256235583398,-96.90424267167248,-82.86027250356764,-65.4192314207854,-39.31289891128497,-17.09157424577331,-8.055113091936676,-10.598962283063159,-18.518046290832956,-19.104542276814577,-2.1855204380804096,13.929767850876518,7.688210261573289,-0.22491268646643903,8.369140309496519,11.05933251755024,4.562576825328037,8.721095492008605,13.771634895408766,9.313134153965633,0.3907075650057763,-20.752813104362808,-40.0133411442186,-30.559951803810446,-18.526752754991232,-29.30388504404353,-34.5041292942003,-25.999677621081,-24.399784640897717,-18.929900157215208,-2.863096475380331,-1.0112791059846522,-13.240094076465873,-14.334836898683601,-6.343563167489027,-4.10920567923953,-1.7472441856204313,2.8129435661315334,-3.43902194158364,-14.420423965671297,-12.373560545835508,-3.2120841387408205,-0.12456350181253839,-3.4482353826524914,-12.121728320070446,-19.2879527183421,-15.017273953285194,-5.8415845571814735,-5.4552889169556025,-22.483811703537107,-49.62790912693337,-49.75779549667051,-12.09154413678184,13.901184946072519,12.921581072518219,11.033289461831874,-13.281521897323397,-52.488709666929395,-45.16096899665102,-27.77355494994353,-52.03280337450801,-66.18287089817288,-75.57303656299469,-91.28326210527771,-30.949851549103418,76.22722295360911,256.5952790354306,605.0160683371063,623.7605686771219,-117.57924716804575,-715.9905719625546,-365.1272285187274,90.64209946327055,-45.28594505739051,-161.11544750544465,2.271026066030025,14.877802539278179,-61.16238652853078,3.132078981071116,34.21939858446525,-18.244548136132632,-12.649311230790039,9.730984646664218,-9.724986893714828,-14.073506549925487,-3.249199914290724,-14.05031430232756,-27.60973740480818,-29.263636326345825,-35.52431791326309,-44.6454307779337,-42.896648882559695,-41.942796615488604,-48.379564078259314,-36.133058951007534,-2.1285692764773003,26.463082860800185,55.96628132502076,97.11259893075817,124.46048303994633,140.9410709281426,171.4425540974055,189.15913485449832,168.685770619223,134.21615739438755,89.8430421028468,22.570570146312534,-41.90289328297136,-83.19944116788719,-113.66554660708043,-133.8904343575673,-133.36507567419042,-110.93521149266743,-75.95844892269928,-56.12073193525971,-61.95101833490328,-59.780757678568975,-38.061107138175,-24.40672823996414,-15.52307847732548,1.2805338706253977,1.1026306980733018,-13.811186141481006,-4.526238280004579,16.395461451597676,11.56585256188248,0.5126864365671295,7.640377460080982,9.604790655608298,-0.7610902430599609,1.7547706482634426,11.769430093990229,6.593660979790474,-5.2000650052748245,-11.23654940228052,-16.260619565663028,-16.928563634279385,-11.474538828646851,-9.751941461835619,-9.341230620087575,-6.544949387356734,-7.597146977822684,-4.709570181438169,4.771473065081134,1.2565118428099318,-12.891610036306986,-15.752260697998452,-8.609394419933398,-2.328325857950734,-0.467570213735069,-2.2872657180057203,2.075199369155248,8.182988628724496,0.015609168994104472,-6.971005519140375,1.5946856066421358,3.756267320493921,-4.2548509629065485,-3.563336866602863,1.7089824606022934,6.355163961303711,13.70661298309159,10.993128994563808,-4.661579676270943,-16.646705639053785,-21.471067526446443,-19.166574025624875,-4.8413787675746995,9.659087254844094,20.735172800052325,40.40495428844862,41.91115465479425,1.4254104943293593,-37.81442246643899,-59.295704750516165,-85.55616810191269,-85.3948863118318,-72.49099452278682,-93.89743262464341,-71.80883353142688,19.726155987076538,166.08344945569115,495.43444523204164,696.3498502333033,144.89374387892792,-631.7849841518819,-537.7888167739302,14.871522036165423,44.05430118445722,-133.11762372195335,-23.045994377853674,40.043449550805164,-42.105193689138,-11.760008727656388,36.37335316459327,-0.33401544803173877,2.1767987422223865,28.29884411589742,7.45334131543893,-11.214346727575034,-10.271869302312,-15.501595238939462,-25.21300364786351,-38.98264910748743,-47.35353750778945,-38.10040566864119,-29.422485104022662,-34.236150671162704,-37.013502058546294,-26.10165486572544,-8.724277308375513,9.977926599473737,40.01126267795899,80.65810849904928,112.17239527828075,130.7789181101204,148.66300291825416,170.65353245002927,191.69314519165545,183.62022487491495,123.05181830472489,44.60306975382649,-16.447827507849667,-76.7176774913475,-129.18146870366206,-140.03834312779333,-128.0965746903151,-119.52765440319574,-96.50385446343658,-61.97674965135818,-43.8414708913089,-36.45346293107075,-25.1487542259624,-16.43381252317883,-8.427332886721103,6.108222314329467,14.283395484687649,10.36714730716233,16.112385748540763,33.89237957896565,32.003613189082486,9.653841919314148,-0.41809711469076305,-5.588579358765234,-30.529283070765267,-47.69373928088814,-31.382369046608996,-16.899756428453585,-27.951188349729243,-30.982820243461877,-11.039457066593268,-2.043352787494534,-12.782287542680283,-14.639320492631743,-9.98056293399302,-16.60254430469806,-14.643555969444442,1.9800502054616942,1.586927386334665,-8.545158153668769,1.722058016455133,10.287530343231033,-5.802873163327867,-21.070231657100322,-20.671051353504218,-14.838565819869956,-6.514398053417068,-4.197631132128603,-11.946331344620386,-9.595220791519157,3.194567045482115,0.7831548249912998,-10.11087320965856,-5.6916862166237046,1.0858631459298849,-9.589811346005433,-26.87614987370096,-35.902798108715245,-32.27815994506854,-17.17054970689266,-2.0011631317403884,10.244715506423734,16.764342278497196,-7.7515855277205645,-46.32054650499033,-50.07398700852154,-48.38065182066262,-64.3246391484255,-58.02628933398796,-68.63203045862417,-96.52355944988108,-27.9271111750106,111.87315124894548,336.56176631858943,694.2743655645645,624.052499302462,-236.81011891425194,-827.1254321154593,-373.9343837369652,111.98673044837844,-49.66437699647079,-153.9835411644778,11.675605371391754,3.4708947276954802,-50.436469654593616,35.04412671085087,35.65595460978483,-31.623814228342383,-8.333073833180173,12.151487392921073,-11.967929271335272,2.138287091411904,21.536954696124667,-13.559731548197504,-63.62683615892328,-70.80319130044944,-45.67746290261317,-48.998519722326186,-82.88678957809753,-82.92703723937481,-44.73421267624145,-21.253654498569613,-14.886171331730505,11.579482328594498,61.866507336533985,106.84926328176357,135.85612455410347,163.94045307847182,185.70222755978,187.10886270204077,185.6092859313799,173.8168724745571,103.0340066280281,-8.25482840526072,-83.9428669883286,-119.33967779349197,-151.59594544321652,-163.48768408836384,-142.0446595139777,-123.45799103797306,-113.20124117915871,-84.39444199850021,-50.069120330526076,-32.62150966839204,-21.405007222090262,-13.51091830969687,-13.783213742129028,-7.0289333730342705,3.8734419165946505,-1.900487592554171,-9.24032122173676,1.4141342995083228,10.222590452754776,5.337482700312851,-2.3473482546352393,-12.02672224581859,-13.035943646865434,3.826174300616934,3.923890447600183,-23.99937732282812,-28.739885105773272,-5.479771988250413,-6.565696121194552,-24.20942250929688,-17.658545164295035,-6.7495975455712625,-16.356414082509495,-19.747206860709024,-3.762447329316032,3.318631785455061,-8.453991427126176,-16.246060555781355,-11.322533852225316,-7.500042529805782,-10.684171531405099,-16.248050043115725,-19.852919211257458,-16.597240874336496,-8.283733558124414,-2.2055592564194804,-0.337209334776027,-6.237811149500821,-21.694600339171476,-33.96369479548321,-28.168255558771957,-5.600418054548122,12.262913159033738,15.54868114891714,25.08368076529679,23.178642489451246,-32.71108256288798,-94.14187492237345,-102.6849423486469,-89.9510163436694,-75.71719921473185,-77.33046561001926,-107.26172346893199,-71.58983977550406,51.52942630450039,242.20669717555694,594.0550545765708,729.445643031975,61.76728626086435,-726.1338923098276,-534.3836011529079,48.44407722804867,18.70289370531549,-170.4808341721753,-27.363698906336722,30.273476166325125,-68.67476747002394,-24.438008295057443,35.86587512234653,-9.16145527645913,-15.80916593024963,10.19726201890737,-3.8027470345122296,-15.142758930047986,-13.711844549229426,-20.53549441351219,-28.11084357825851,-40.312138862817136,-49.28047289504246,-44.37570217967179,-45.344917618326804,-51.226642610838994,-43.70526171612672,-32.55089395239482,-20.018472578691195,8.877295971039082,47.12842684432262,84.354128610177,123.11481141648758,155.5365656559017,178.29418174518815,201.56989534116792,209.15459212250568,168.24059251379828,86.23124743514549,2.070172820691387,-66.0800159379445,-123.61798781328459,-165.66687059360902,-173.46044511735283,-145.95307337836897,-110.06771677856679,-88.60591976065874,-77.03406495275843,-58.64668795459416,-30.964953263882137,-12.624235887373317,-15.547765417371863,-18.83572805354295,-1.5227881527423648,17.510292419391618,13.879825776009213,2.432382268439518,9.495283274066464,28.238365621846118,28.060777297884954,-1.5829427964566953,-32.32005939155253,-36.452742544522366,-27.706391839391816,-28.06788704898536,-28.799899502960642,-22.003862767475393,-18.3738110892893,-17.892786093067805,-15.33531994318643,-13.701613172499645,-7.998952220492946,-0.5314143393908068,-8.618202603384162,-23.471406792585547,-22.570697539976443,-14.542192011544365,-11.738172773944235,-8.971196481661082,-9.267393242887074,-10.944939209909872,-0.7794975943602722,10.818989410459157,7.143313901821438,-0.43368206817907407,-3.6517985796525565,-10.203676473647722,-13.19111166076091,-8.497244792987704,-16.90236017250171,-41.20191607785835,-50.00073421673953,-30.34234255605991,-6.749196606847981,2.0225285746777324,7.158289494016616,13.265350411016609,-2.5807233530478246,-32.13737414494372,-39.30850212822689,-46.30807726353221,-67.81650607535431,-62.08008674613595,-66.37442126893542,-98.06665173535083,-49.196582201316744,56.2004168754336,210.2812578952051,557.9466743159338,678.1767353159644,2.577296774829364,-702.841952331343,-447.63199308695465,71.48227305187662,-5.467290435303987,-150.59001631023867,7.927948125369227,41.896029699372924,-55.60718181564382,-20.349625771787437,14.909055278169067,-22.43160777042293,-12.166953431626549,3.5008439187887426,-25.139919315862617,-31.85839645107525,-13.336110348430635,-8.2166837508837,-13.764052993412406,-26.3556229846547,-42.77657428124127,-46.49185728752458,-37.43060650311336,-33.843488793971964,-33.149533686942256,-13.609277703466844,8.89863511352294,5.137779618583522,11.714350440631637,65.1590132358861,115.47519886326606,125.62286615013133,138.36703813953395,169.33116725885003,175.57391142633486,144.5026117969166,92.93944894901011,19.40745869634964,-59.489780691780695,-103.80950114307504,-120.68355874476711,-142.6386376169579,-150.74430066730477,-122.76602250072116,-92.22192689845748,-79.24414393087517,-59.58624711326377,-29.584075317014765,-8.191493009768799,0.00265648479238223,-4.373652965535605,-11.890838836859974,-4.0538583774535795,11.088601975465146,10.863590844506604,-0.9908925432229196,-5.545518244265274,3.982178371528615,13.030621832895886,1.4437396936676663,-18.809883362613313,-21.29874979665352,-14.643937770357432,-16.27837734405101,-20.89982604070554,-24.746201958538407,-23.077109851001214,-8.861398978521926,-0.45967162796919325,-10.32219754572613,-14.94396911954152,-5.145419363508324,-1.988452185552692,-11.396958015452817,-20.05267866656249,-20.534089694311568,-15.228276811525525,-10.10046293113426,-6.847601221332074,-3.244605800957828,-1.3687984737400107,-3.4315148180066863,-6.4073878597810605,-8.313035777805126,-9.100702150621515,-8.675528938783035,-11.726492849942034,-21.90522206767679,-31.686781267517944,-32.71990911273912,-23.92574911339152,-5.438545802873193,15.370342425325699,22.625488621131353,4.940601371199676,-32.69209854026252,-58.257602748825335,-53.48491622560205,-48.00305525670156,-47.40508353013867,-40.50283437993035,-57.92001834123234,-65.33948007467178,-9.362251841677796,92.58794346780147,362.59609418800704,711.7787439331499,449.8622265733264,-441.8874332762475,-753.3703033944727,-192.97196137986833,100.40724733499052,-110.4278007574267,-99.28467204352017,48.68176728207341,-25.47218325147631,-58.988135212697934,29.528539821591572,16.58920801898914,-20.42827855657226,8.50330563011749,-2.8906471033287033,-32.238336916483235,-11.266498175672666,-1.061910258648961,-33.83218052844129,-64.15767521274026,-62.89316612076354,-43.205125875183654,-42.70296798905094,-60.518028056619,-57.073017187026984,-40.974739624407036,-37.52038270697252,-19.68628691869295,26.68290904235618,76.86649497375605,124.30061365476287,161.3034626175073,170.36651134936395,171.20275200403432,181.13515857456525,174.12758636532882,134.89295046885866,68.57225293133838,-20.82057903799553,-100.32508346840407,-137.6233692205902,-152.30645722632863,-158.29020176888255,-138.58985209541254,-108.49075457157761,-93.30535465131504,-76.97697417925903,-50.124889531866046,-32.63963210276347,-28.873838853801637,-24.04364664273665,-6.690386579170831,14.047404163271224,9.993678500518836,-10.802432999498173,-7.887187315653179,7.968456575017182,5.813261613497627,3.4576282769749405,6.484045467139396,-1.8389295379190607,1.6082009442754739,19.26221328638896,9.399734962590614,-12.99655638374946,-11.658863969577652,-18.54919715096667,-48.825522653841624,-55.59168526098739,-32.896328452970295,-21.084080583737105,-24.085695793307494,-23.961019973158937,-22.70264119347985,-20.115805639021787,-8.249307133081949,0.6602758626774481,-8.791242393203575,-19.16753912065841,-9.298983668808802,6.287912576886473,9.089853000520101,1.7165214864322458,-15.512708557042664,-36.93142073282793,-43.03825642995549,-32.71045140892092,-17.966984211244043,-4.3625311249012135,-1.294318585132146,-7.211130330709111,-15.307052846811583,-34.133337863010084,-50.697111661767764,-53.394029210616196,-63.65892649782983,-67.50309656537624,-63.453328764376266,-85.03839033671746,-64.38318806711972,37.90170171836262,194.86488458793872,519.5969825141602,750.5992937060678,212.07743108849283,-675.8971646705385,-667.4610357658553,-22.776356198880208,84.43534256794891,-144.5523026656509,-51.63252662412027,45.651183278573626,-54.102236898262966,-34.06358669912785,43.54719364558411,5.750981918284644,-6.784527760219762,25.41350726535991,5.245385616930875,-14.113431922138389,-7.369649931712356,-17.166571755843677,-26.147004345682483,-30.425538781619643,-50.165182342799895,-60.11712160566274,-48.28463632041665,-41.25931792936136,-42.61994289480241,-37.706304041058246,-21.645339195118446,15.849127007806175,68.52397876102702,98.29838195242986,113.20020058396565,162.57251160518564,212.28597091068252,198.30010410953946,163.69059026301886,148.40865787485197,95.55208600620381,-2.1411820778994706,-78.16518483324539,-122.99400476512638,-156.32148727265067,-163.77725386860482,-146.92965115889706,-126.14765588846394,-105.28130427294279,-85.84963164931501,-65.80109076628139,-39.05036685385027,-19.03414323940502,-15.16430122520277,-10.31969505857419,1.591516191540478,5.564359631287346,0.008728486084777387,-3.7159655658809996,-3.4049492585182257,-2.8189144612296175,-2.821369051253491,-3.9438026115261877,-6.6794502743497794,-9.401892548192873,-11.61198265157989,-13.235311811370458,-10.679272442659695,-5.741327125905695,-7.7709820132932705,-14.325908045468843,-15.313423877905798,-16.42396698082736,-22.199460272584545,-16.920095126336083,2.093537965868034,8.031455565113895,-9.76839837938467,-21.645142931126358,-9.123006018251182,-0.40625299561073547,-12.136099837161836,-15.063402711884024,-3.533986334275351,-6.432816667692059,-10.793413276493357,8.99325177911018,19.79439128817651,-5.713585286658766,-32.78246326277551,-37.31335819118583,-35.64907669781073,-27.902480254805013,-6.794764080835538,7.479818172313326,7.785945148530816,2.2876069984231453,-21.57815655113393,-46.48501146452824,-44.10857344846509,-53.301234830554506,-74.26337116592833,-59.73369212085107,-58.77989219504653,-67.67112530416429,3.516157876711901,120.50255698938274,347.4625393877857,685.5865697875511,514.4408013679024,-346.0553933062997,-755.2794565050192,-233.54108368394776,122.47004913445417,-90.81116272628664,-139.85007646628347,18.85604919367674,-13.621085384217693,-59.84106582635789,6.857293780167804,7.242781085352078,-16.731323100508504,12.163966866193192,9.553812527821766,-15.82023614438576,-14.603805059428915,-17.37558011865255,-27.37878078346167,-25.686021665605153,-23.363538735138874,-33.194792831718274,-57.01011434393425,-69.4310013234054,-47.16593146103758,-21.309945397665885,-14.567701250360098,1.017683550704497,33.72963565348404,67.02055736783892,103.03598278389433,137.03993230779543,155.0157842261832,168.42192752004956,183.44563467924513,173.4345295366541,125.15725794016873,56.40662211042454,-20.90753549630436,-98.80260613836276,-151.22393656556602,-159.389295613388,-137.26059140346422,-111.44152988393537,-95.39087833046702,-85.78533497569471,-72.31883217903547,-50.26075901617298,-25.53218604044595,-10.3264668812633,-10.363293340347653,-15.611447445582549,-12.861034328196975,-0.9229744339018922,11.484157286283754,12.651142887118361,1.62928222129905,-7.688438432264391,-10.840691999224525,-13.51167994161117,-10.433876818462462,-1.9468635630962652,0.45954477979703157,-0.5674372841883439,-0.9481522340601423,-3.5493427745325974,-0.10953543082565531,4.911805076459677,-4.515981618155315,-10.985668268573225,1.696082924958576,11.24997806965347,8.092737317928353,-0.5513901688811771,-20.673457860203904,-40.14612469869556,-40.98564660090498,-36.827405546447,-31.597513768417937,-17.73972885191889,-17.062020553815195,-31.356605798378997,-26.4059726578744,-8.613501272779509,-6.786781285480274,-7.11600875488859,2.0338967354917052,1.8818703475541092,-4.460812168187584,-1.8036892064317769,-0.9013932844347785,-6.560457632464065,-9.711691515593472,-19.944887774982654,-39.80818990098314,-42.818881293518075,-18.777609765586355,6.225707442701946,9.990088113950119,5.075602441781188,5.495314205663105,-11.034563255183327,-44.22373545543678,-53.91792917995848,-53.21692030695388,-65.0791317058722,-61.70002128904096,-64.76941347844053,-77.8058277464798,-31.154684753058678,65.09674294508402,280.18843145340077,647.0619802520007,596.7347635245883,-188.09388346806566,-711.4181030294291,-309.6465955426345,92.24879421541597,-61.96974846582331,-133.5432017889409,21.915379963580165,6.954954347144991,-50.75915855096723,10.747354630473989,15.44713416907993,-16.625063227284762,12.219120054038425,16.385614430366736,-7.325356675008589,-1.803762501338511,-6.771808832035843,-20.144977915239547,-9.833484988461294,-17.230260647486453,-49.025069206460586,-54.24373030129452,-40.44458827355305,-46.00674318267018,-55.66591949380572,-40.869789085425616,-13.303060149240402,13.278314482034482,49.89767681960722,90.97282195785263,116.04958734898013,135.41587903299643,162.1605730185053,181.82583703245487,189.92945455898007,174.1383394932117,95.132817434187,-21.84197970229024,-95.11460692625083,-122.21504345999864,-147.21867222587775,-156.61459558536433,-140.7929863969468,-125.45291276880778,-104.65585375341516,-72.42205865176044,-52.20435484456368,-37.39263817267133,-15.343345664018969,-9.720938574141286,-16.01605104351049,-1.3071919909539353,16.233534200806332,3.9908924371537537,-11.696198745276494,-1.8316395822037919,7.5105211542761054,-0.01929470469247363,3.768944436927381,16.535789975303643,1.7005680611667735,-24.075861618034747,-20.447478119985757,-7.445331732214161,-10.32934705033616,-10.818760292137583,-11.114620550398438,-23.10228183584269,-20.20977314768338,-3.1944686411482692,-7.049852563749489,-15.899760922725012,-8.36044892798649,-13.593327131547376,-27.12275673661069,-14.531231438094931,-0.44403121146851987,-10.643700565049581,-13.29172189688044,0.8325999075967871,1.8285769948585546,-9.202312418358726,-10.436953130832935,-4.622185190807603,-4.1896669190962506,-6.080847093389668,-3.4505812425195685,-2.066939203549513,-5.333237718081868,-4.000814430334739,-0.20020891150963394,-2.936310812798201,-3.39069835849072,-5.382394930653728,-28.95093253531787,-50.73016843434964,-37.86608507473648,-19.712774219853,-20.845027177451634,-11.982303713535996,12.669557211500145,23.858103511282835,9.927201525465653,-18.34928470897092,-34.43035724938254,-39.674369786651326,-65.12994886607481,-89.29713614794031,-100.95282306016477,-129.23135920856686,-108.1188056612984,2.4084513239127716,185.53911107391372,544.8070408462929,790.3526688201441,256.3095668274397,-619.3168979215659,-628.9853275569438,-40.14646425457717,44.58251431545342,-160.2809003251901,-55.44753761852647,41.25966836603786,-42.50186693174174,-12.095776444590332,52.078591151615214,-3.55262344559069,-21.209930342797154,15.134780375068463,-9.775794160221313,-40.90632059350354,-26.790843836301242,-21.804961115415008,-36.816997359681025,-41.69277717306611,-39.05912797140819,-43.36939208912027,-45.827365390441386,-34.03204156707614,-27.748697848938825,-43.91395466875384,-51.12889396792704,-21.44431332955406,27.93065156915947,78.03026798411635,123.78199153835477,157.55035245968782,182.82354733956961,203.3426321717691,203.31254131366202,177.69037920990115,133.7875805558998,64.05695758123107,-22.773845897838623,-95.73414917221116,-147.79380749017093,-175.10707476673335,-162.5559804062071,-135.29240906131747,-124.89255570265128,-109.10312405182134,-73.11058266964034,-43.06166506796284,-28.115102261669954,-20.411524324126198,-20.079378460017182,-17.1955243924226,-5.245750738045061,2.597830145124391,4.454079333778392,8.827842562885905,7.604553842552477,-2.506806207255213,-4.344505299531111,4.280786359835204,4.094154565102592,-6.271621322735928,-10.589410055315497,-7.790327881514742,-3.5028383020039264,6.191557398031954,13.998743705866229,4.021604034213958,-15.648093324707567,-26.971477999026078,-33.86316526519971,-40.45545973149196,-33.522697588801776,-17.583787217480488,-17.80939342045441,-28.733992118182627,-20.465088165326577,-1.3694382512510224,-2.7038994081197636,-13.490653310199484,-9.668227560784732,-6.957033325238939,-14.058356219800022,-8.881498062192609,2.435145086109305,-1.7511800481253559,-7.6829929125768395,-5.959812290603466,-9.093841589796806,-6.998511275554129,6.097949369823855,3.328366919702489,-16.09484272346164,-23.77797723365933,-24.115832774631897,-30.32135559477762,-24.35363362932745,-4.402005800754872,8.162986697983873,13.529319700248134,3.7125232508702926,-30.838280056221933,-48.3901836927448,-38.71435775759735,-47.456991172752296,-67.97414459172836,-90.08428773342844,-108.98475849995275,-57.910418971199384,43.932654573819306,214.05605927875155,583.6045644589123,722.7458923360869,45.868003054235714,-696.0134534964391,-461.0797898834278,77.43289600909995,0.8561184666205861,-167.3990531701306,-11.603887786105311,27.424960721910807,-68.07233236107564,-18.866639985867238,23.981131110883293,-18.086140269151826,-3.2200517499904038,16.62258757474497,-17.785242015516403,-25.96854614162463,-11.339223612607647,-20.231257871710618,-31.786269841440983,-34.21588488473183,-37.67716207275643,-43.00768535281784,-48.27601996594848,-44.7843852017074,-34.56188055897755,-28.258663964285866,-11.674929566488204,25.67460961899062,66.37379059308839,102.35750068959932,130.44675898445396,138.68338643782513,144.2526724564503,168.9801301246988,181.29235830169864,146.3271669756961,82.16228989441959,14.16359903819496,-55.62775810364043,-117.02591782993937,-148.12906673523617,-148.71644668159863,-140.87170650867904,-128.6002055894731,-97.93720223583638,-63.111471653973524,-49.37327844856787,-43.74411825802725,-28.434290515761163,-15.89358082409008,-10.331805989098356,1.5651826657536212,15.11392469809238,15.127053592442433,7.680144203517852,9.480803692081862,13.796130388469939,2.5317604999605834,-14.288732023881462,-18.436992325471266,-17.314543727786663,-15.654379272893294,-8.126078640114212,-7.37944218239528,-16.513716853255367,-14.12847090170741,-4.0166422274559785,-9.42811476720317,-19.670558955319123,-11.129272368772126,4.064372545238356,0.96871740577987,-13.581300747591882,-17.089313526200385,-11.291229891954174,-11.410348226951744,-15.950934523814297,-16.369007528132045,-12.865715251994859,-6.531071062404152,0.21194420039042505,-0.6350944143141923,-8.462923346230383,-11.601273593003206,-7.739929053406559,-4.724810717342546,-1.717492346335174,5.341125040744609,9.030135126541897,3.927592281076869,-0.21526104778179267,6.575446376728653,17.187926847989477,13.925341828749271,-7.552111444148508,-35.02207202220065,-57.81869262894571,-61.27360542115027,-34.165743318495544,-0.4602382602353199,14.221877078811652,10.021322287211333,-22.29419448211639,-59.92323459114871,-53.347945572924885,-44.2304502997588,-71.07138579562144,-71.98049405374519,-60.5209749717199,-72.53093219388941,-33.1702915694558,62.71684597715782,264.61226279948716,624.9030498135224,615.4905034766952,-133.6655179481076,-689.612080270449,-329.24172056788944,84.1817705554177,-49.38477806027081,-124.3964599651381,22.841020425183423,-8.789703684663579,-84.18313541620502,-9.024883947465348,13.922561962455767,-34.0445958604585,-17.17677300650024,6.760737442823897,-4.748330971664224,-7.070102789495614,-15.062678052282191,-32.42624620949201,-29.0276670579906,-20.211679284355206,-29.25303823161825,-47.48520276904407,-56.843613549176304,-45.43349073449133,-25.224666186637513,-19.412799994586745,-20.404456119569915,-0.6871056512637601,43.69521735522961,89.33635745742585,116.01605625927957,131.21824146287585,154.3193595048493,179.10609381429322,182.22630591348624,156.90942958977809,103.31069623415756,22.554242158040992,-56.15933121333491,-101.92609594260067,-128.03005238119061,-147.0262372196674,-134.82311174111254,-96.69824766954534,-77.06221047577863,-73.47596746648965,-49.551899398355545,-17.54952494816886,-5.487106271997526,-3.3133796274657286,-4.745935038094437,-14.356098480932097,-15.517277269422632,-7.435302501809719,-10.695643713543909,-15.79936992726742,-11.399625360740188,-15.049958236557977,-22.06507776430737,-11.153869694141118,3.6958653247715816,1.9977726151928934,-7.670029755161163,-11.098678789862575,-4.940777536236261,2.4459659351015937,-1.3561277704786434,-9.677307137374058,-9.835776560253553,-11.527465597130416,-17.242121746280997,-8.419806917458288,3.2348479882544794,-12.119745761517535,-33.390401729733114,-25.23275998243418,-10.394907038888068,-18.442844032624926,-26.454738477725805,-14.514246523986241,-5.860252304559047,-12.320659572162402,-10.575103015094363,1.1712740061500426,-4.6555865988655505,-18.595522279834068,-7.815949284871408,7.696739498314734,-3.896084425292674,-13.606402187456215,2.951315901104252,12.363867521580907,-2.8862809650455183,-17.335109827396266,-22.69819296142007,-29.1278222970221,-27.70692999893175,-11.89789754318307,3.2005008826332375,12.526506339876292,12.932202145603572,-13.907977782223625,-43.19293539568421,-42.07980430366098,-61.938101714188065,-108.9024883569049,-102.05003649181589,-80.55691859518988,-94.5484762245051,-50.20879214694688,71.78931413963704,311.5898613550657,693.4428526528526,655.4686421776794,-164.82476501935537,-764.2165289971476,-376.7625215221741,78.18981029213792,-57.70458686453228,-148.0528307526962,14.372021857589473,8.203062383048902,-67.09822146568693,-5.860077579977549,26.443166265379173,4.846893256678243,20.783706797075546,17.381612232631056,-9.006754214615214,-6.815984298913811,2.2630943275184343,5.664730244695134,-3.8724499705629114,-43.01257118907536,-74.7736538102094,-74.77401458041611,-68.08981633983815,-58.72458375639858,-46.77994410331128,-44.75439840598486,-34.19672374262342,1.2538303872742809,44.05563087964205,83.58297878447499,122.00727800252771,153.51102128020406,173.74438227226463,186.72754378484967,193.478330105191,175.55805358821917,112.2174673519558,24.662317655005843,-50.0928200023279,-110.75469736011017,-155.11711076483107,-163.01110470082307,-147.17984542795918,-132.94609673206037,-114.46480465350177,-84.40512042680348,-47.68145083491912,-14.919999739503297,-8.764438676834828,-21.801923918610676,-15.3051128884903,-0.0673704724709907,-8.190411240378445,-13.50937930797786,0.9586583398707269,1.1658752744824028,-10.638843253117223,-6.095318201697939,-1.2147427391531487,-6.243302133419899,-1.5098625860442176,2.183430517088169,-9.857637480080587,-15.457243659816491,-10.206355903431167,-12.5962964348236,-15.07523383217196,-10.83086364931696,-13.23419375047159,-16.622556470042632,-10.392702169232738,-8.835803459170972,-15.857299962893268,-14.939807005601825,-7.092432602926401,-5.9808390428621365,-10.97926120013453,-13.197172574751495,-8.79500607865537,-3.0142880997049097,-3.278184756208475,-5.7072119205506695,-5.245753465482995,-5.106110475450272,-0.6338970615439337,9.079873138587496,7.072072228985466,-4.3092404419685195,-4.493353520479651,-1.4171731682598043,-11.276502226282723,-25.047436867611975,-28.126656773582546,-14.456596651694891,0.5747824468353784,-6.067726363730948,-19.465069660089263,-26.682975009786553,-42.682770509513794,-51.72864202182825,-52.69225287179799,-70.526732269277,-75.40531268213667,-80.36483453045118,-117.47930129467443,-85.77517239856695,35.647185284807435,222.95360660946625,591.437036855608,751.3268458545349,79.27466648884875,-716.3844117038135,-509.7664564625006,70.45659164285166,14.586339418839543,-182.33794201878175,-32.324409312558366,30.942317240141108,-56.98765487212123,-14.953412712811375,27.028670208184156,-15.079930995987244,-4.3563119675522906,17.938316069360695,-8.866260026773304,-21.950401731356518,-17.79199371210546,-17.895564740682413,-15.662783288514898,-28.21665712427111,-46.83252396825337,-45.28714934528928,-40.55724012150003,-46.350245095767754,-48.36552812069115,-37.155230216770285,-11.512753001944796,18.409633633150932,43.14686452060633,75.921036926168,120.21864259642615,154.44031225290536,174.0001090405521,191.92714328702192,202.94293474233655,185.17445042309888,124.89472339607161,34.76475559270553,-53.26366623360172,-117.2212896239954,-148.39836625820027,-145.19543707080447,-127.39372708009208,-114.58472482756366,-97.231520184126,-71.87633810504735,-51.398171193682096,-28.42684696384576,-7.014010288298984,-19.754146945358386,-48.33895525119034,-40.134567798761516,-14.303402737999548,-13.535458841465868,-16.42474637058846,-5.945300125532839,-2.2096904276894236,2.6319566380197514,14.700891961728555,4.309008431356538,-20.055267185051342,-19.22480236541191,-7.416607218231832,-13.090541359534303,-16.750125817754313,-4.3229867780099696,3.534886822537757,0.6841505623914372,-1.3053319440206366,-3.225439142875132,-6.801350417129356,-9.54458376309615,-17.879137476132772,-28.916178425713102,-26.38317662363016,-15.388888116343654,-14.727022953144282,-18.197554923637504,-10.34063565242415,1.1497532077904573,1.6248515416758735,-5.84378171462685,-9.509595670816696,-7.866052603778758,-7.495149481323772,-8.990100635066886,-8.775000954719566,-7.3597323732700435,-5.049624804366449,-2.2212695598566743,-2.9627309356208897,-5.926909795225535,-3.483933117930256,5.008015321199185,9.559198548985258,-0.6984969548664246,-22.090731598736866,-36.335218205116355,-33.510821491918264,-19.13509185222715,-0.9043109606599433,15.082299529510136,20.54322832254959,2.8960579483874014,-29.225531462780364,-38.86921576638469,-37.66653966271748,-64.53300179365466,-77.06361463009277,-66.98288405947143,-100.62352553399417,-106.52663791018038,-15.209766180719406,125.8520932730483,433.7860662103847,745.3622257835439,364.59253231519995,-499.1220944926076,-630.4032591813193,-61.395094437308785,87.75420439046394,-136.30466063209704,-73.07891839636395,50.49885087349891,-25.932749314466875,-43.842261959443825,-1.9635727340159264,-36.82738132364898,-37.907041817698584,4.273792343955106,-4.055382114822233,-17.593010646213678,-7.64874258393505,-11.681240544302106,-23.10262718575311,-36.94544952160358,-53.19182321261357,-50.94030769693801,-43.805398513299366,-52.21579488461309,-53.26639585032737,-33.88662031902437,-15.23779931742187,-3.477829558617323,23.291112151087805,69.97239544779029,109.16986924155758,133.53671007378674,161.30392066432435,177.895999055927,167.28068981745687,157.0921510183665,141.53268367937258,77.40226108715984,-12.13189012785852,-76.16384938052718,-117.94794866139674,-141.07639381316096,-136.76260294723525,-126.42078606148083,-115.21382216668526,-87.30223824972495,-61.760121076991126,-49.17613744946742,-26.19460871800099,-1.4123300743782714,1.796236308788636,-2.37402238136616,-0.0984314034517908,5.344646334047848,14.669480040806269,12.782528832441297,-10.158440949418697,-18.045489429639467,5.8831849475150655,16.295482370286255,-3.8062477505115915,-14.702378014075187,-8.086194308048405,-10.144385260368043,-17.962478318401516,-19.717310088076637,-20.512215812008574,-15.682518429288233,-6.731490448533478,-12.743138414253757,-21.324490176010805,-7.091746004994114,7.613288606269503,1.2249693580444116,-1.9347518196650384,3.9535606010451296,-0.7151227302194947,-1.3009581874542278,12.175754964028766,6.955532062396902,-20.436191291723347,-32.687565717292074,-26.522741609304003,-24.301351722426457,-27.250364748606238,-29.053589635168397,-23.837526595111243,-8.02525581341365,-0.9940840454599815,-12.616023068311517,-13.371137138923869,4.115179586535255,5.157369960321162,-10.934336783818903,-12.272907424028514,-6.600296362933246,-17.11005507151122,-27.65280236463514,-21.845978510514698,-14.651409127009341,-8.156776086385488,13.502289209815956,27.581986238424403,-4.691193087801295,-51.68404456873772,-63.948594593646135,-69.12539340908549,-77.98243701729281,-61.77181896500105,-70.07270393431695,-102.3002417366806,-57.932441989535434,59.725575953882114,303.40347149499263,681.6267266204293,616.5793222417032,-183.01399083096788,-704.3277046778494,-302.2161582894061,91.85317514383699,-68.0988718002137,-147.05607168929896,4.846051157538696,4.44925683348329,-39.67470714509358,11.301091828412229,0.5104794079991208,-31.27827395276843,-0.03787963657516791,-0.9298510018550452,-23.221670238532838,-7.54306986708227,-10.479118920566453,-33.965840269107595,-32.008082891290215,-32.37977124186895,-41.905286389278544,-35.25952021004072,-38.857429015430895,-59.17005196489606,-53.379599607628265,-20.985607245678334,7.676833895936095,28.624490545643432,49.558322424336595,84.18735629567405,134.74923328910992,167.9093204556086,177.41124687430045,194.81175687736282,197.47958980629957,146.0189889171324,74.27420903993283,11.20565331684333,-65.44509882734685,-139.6726643814358,-170.92997817289532,-168.73366798183358,-152.59437760887016,-121.36005963641031,-88.4957842673893,-70.48153651618719,-60.70417649979636,-45.04930958080907,-22.42147651358374,-7.879799704374108,-6.50353850174308,-2.457805328697539,2.733713259862295,-2.9813313040015785,-4.092651024061297,4.792310780464028,3.3598186593330936,-2.1305510421141136,1.2447085001328055,-0.2634830264623602,-3.49118727083788,1.0247847822793688,-6.689484380490615,-22.81693497716672,-18.89604657319478,-9.337787703017653,-14.307024499776283,-14.302017801353855,-5.650221545686406,-8.242167910148424,-17.866187321247104,-17.272362716153747,-2.774420364059644,7.627950136344374,-10.558775800057845,-36.37110077226949,-28.751503497101588,-7.767611286761959,-5.763233590014039,-4.160068033891502,-0.636862014786864,-14.378129626717584,-21.717068753646124,-6.799226310965681,2.3549186150504475,0.8076685405857305,-0.6590326624564291,-15.7738584570587,-35.98072839683279,-32.25948025751674,-15.657143883162487,-6.944033787785937,0.6621685393425061,5.760610281017062,2.6378562633107876,-3.2195859996647584,-20.254079356568525,-48.441556908268495,-69.7722769571454,-80.64930323643632,-72.33946213415841,-61.86142749694105,-87.48147798462169,-79.44789432432279,16.000699157707743,154.99831609482544,451.8733908659644,770.1830136533395,404.5308161735125,-531.5957877237487,-763.6855812086905,-142.3563670663733,122.42942909108493,-112.84867945461043,-89.48349314512632,66.4023529324282,-11.641174188718551,-65.7788718523263,-5.401706507841503,-15.34952791400083,-27.126120246557196,11.157228635368307,-2.5870782656387803,-34.273872266786384,-21.574547248840496,-12.7694314259622,-24.7496384230534,-36.937436542377434,-51.16511834000849,-55.74121879246897,-47.61029694194012,-48.06429419691073,-50.09442255122442,-35.05826447707061,-14.21664542394431,4.516826380021243,32.39800388513673,70.29664741882904,112.94248711987804,157.31490374037597,186.991176268187,189.82720782473115,182.65873026324795,180.09821934640553,158.2806731814772,83.79954619124011,-28.01027189403899,-119.32089016765791,-158.96831155117383,-164.34349844819994,-158.47119220908263,-146.6210617902849,-124.22804374710242,-92.11441225413354,-63.97891204723568,-42.02727000428025,-15.461879820523357,1.4124905315451386,-6.294730107551665,-15.440414154981028,-13.306785598301424,-12.857684869848967,-6.79366888230156,6.765047077220174,5.004466124622962,-5.632248224323874,-3.375832546884464,0.7866600334145382,-3.744728589267062,-8.557369594278708,-10.209792671123328,-5.128244583156924,1.5762253210534745,-5.888060641746684,-15.790079070652311,-14.932335787668158,-20.72401071017023,-21.234125610893685,7.054281028295954,20.921368046728013,-7.2451188979223105,-22.079638300639644,-3.4910291061890426,6.751257360963782,9.151532782534499,16.666372255922788,-0.5798054088722999,-35.711695173843864,-37.08386546999601,-8.88225577757541,2.254111828315157,-8.042497351717582,-15.350183984777185,-16.270462604699198,-20.151380012943935,-25.892101267371856,-29.58126303283151,-35.616225689938744,-38.64832350325026,-23.471791673888323,0.9362756460518131,16.991246708385297,21.198991877805607,0.34309742782985175,-32.70150547230232,-42.25002825073385,-58.45641769524309,-90.7674589126675,-82.04734929982932,-74.89919211738642,-96.14205967282842,-42.742971425747825,85.11349167524241,325.57201545180834,706.1641161248236,638.3694240996267,-211.89937987216427,-769.7666234945158,-319.91274797810536,122.001445964584,-58.18002861527178,-155.71987553196536,9.782353740593422,0.4446399625771136,-71.68305640817344,-13.016958351105103,10.993108125902644,-13.070539714910943,3.7477678785525264,7.505931782417788,-9.086762874730407,-9.068401966043634,-13.996168314594216,-25.8085527516858,-31.05350113792594,-35.3112889876139,-38.46052535829408,-46.999075009754804,-59.1813802658829,-54.40518260103289,-36.86045182438017,-19.2398469564506,5.890325185434197,31.878688142597298,50.05195697972216,82.29485086983232,131.17026761916657,161.632379385056,172.77436812493698,194.16672007343882,206.9715519037345,171.5721482614107,99.43892434640532,18.884158244640602,-56.953954722662836,-106.0683356251544,-129.48690564981757,-158.0681524907278,-178.05919228967008,-156.13953015808744,-117.02681645178822,-88.85486082552615,-59.0959474622087,-33.099880044780306,-23.874515037637288,-11.12205856060283,9.973332336236869,15.686291099062302,8.749022505549455,8.526470610383416,10.331303206366893,2.56338380802125,-8.793654856813582,-14.731779214475107,-17.261941605589392,-15.230352497840506,-4.532110601133706,-0.014751473076813681,-9.129032467769559,-6.0153524871851936,8.33089151517804,-3.5999260641686988,-27.765215740664985,-21.805821491977007,-5.92878392970988,-8.992685947315447,-8.722098951140993,-0.6592640372884766,-7.700821057904822,-14.569306046247732,-3.884345880098998,-4.318201297476307,-25.07303199334983,-29.98436236077726,-15.426573708851699,-13.227188054532032,-16.664325663913605,-5.032946937022867,-0.02518958191180687,-10.878208285226231,-6.766739388911301,7.526341146872156,0.7450103186619863,-10.640545489765929,-5.946734144949959,-5.181457705314681,-8.505061671913293,-0.5313680890868113,0.3494766897666963,-8.52346262868733,-5.7264298505272,-10.60662426272232,-35.35418516631731,-39.85285364133871,-18.061597467287406,-5.383501325813221,2.5760892756552973,20.681918374930692,21.753322219920125,-10.236933165653594,-39.11421128693276,-42.16506320932294,-48.06033045714396,-56.159247217652606,-46.71991426243162,-58.40544845654899,-75.86249140133236,-37.71419740886661,37.19074857168843,265.07717484528183,663.5435227493773,588.4205470754858,-229.5539727255096,-711.8263082973292,-266.3615946254571,106.71481407700296,-89.54689983145408,-164.44079399677554,4.462720429653984,-5.721063851185107,-71.67025254301423,-7.7956754910947925,20.56669701527437,-7.553149975815806,0.6876267828186187,4.3142219088939076,-11.042960510891092,-12.006495815835702,-12.628654072037243,-19.893751956866417,-25.064480344854612,-31.81866007470504,-41.57954705903878,-50.908087924344464,-48.44895679734671,-35.55307399161728,-35.48208434683699,-39.097066526246984,-17.610717953919682,15.642891282975619,44.963665646148996,82.72667282341133,119.1969789222585,137.347270082378,156.0896658881794,186.754662827268,196.97954318804108,156.53320107302193,83.4554238097424,15.975677876836027,-44.625108060149856,-109.64353311047024,-149.0428097348379,-144.25480693688385,-128.68258303817288,-111.6785414505538,-77.19242708565831,-54.49168939727936,-58.97550671739475,-46.85189195203676,-13.912347367996688,-1.577998856863779,-4.333298324065641,-0.9313841068412714,-1.7895878494957458,-3.266562152896217,3.2417184841963653,1.5286702784685176,-4.453608684467046,1.4006747775487831,-0.20849149175371195,-16.739295322983164,-15.801536362511888,3.4842796867809582,4.1276355259626065,-10.43269773227646,-4.444713672595448,13.648840401494017,10.351502897352383,-3.260744180001634,-0.921334167331505,7.521867369238354,5.602746972819563,-10.974147056161009,-38.949253975297935,-50.58612991208008,-33.802183676580235,-24.03028748375761,-29.436774200911913,-22.72589883071523,-15.377078289784826,-21.136187717879743,-18.881659729185984,-10.686768552356664,-5.0575269055886345,11.164420235388112,14.436020194235775,-15.48007346783736,-28.679416707795898,-6.846386314811301,-3.1732753592051495,-22.67444216580793,-24.497460780062497,-11.30596772817401,-1.14906523646696,4.80140560117642,-0.19125735714857584,-9.022722376694247,-5.309820365893028,-4.120388284188898,-15.734590558876775,-13.2136529205868,5.776527530023248,4.354907570812827,-19.484081201102,-29.52173565065562,-18.396894903373187,-8.14417699040736,-5.531708267369282,0.4927379112960839,7.377842930131568,-8.628196788944855,-39.669061774946755,-46.1273416563773,-48.510645461528576,-74.37910416808053,-75.46241279285027,-68.45438422580735,-99.86131163720607,-84.00133415365582,7.6022400817958555,190.49270382219893,582.4902824866997,765.9133708499269,121.40118389867423,-663.2771162812584,-500.3185168592466,35.87273386961684,-2.308458848045973,-169.68882398053063,-28.12713439412977,18.508242375101105,-64.50160490151919,-4.57538049277041,40.561200924787315,-21.912111216748663,-20.239629405372206,17.571086167012954,1.641323417853652,-5.127745973744872,6.206706089900033,-7.465235541318592,-21.07344877638699,-25.10945363329789,-42.51806186258023,-61.0112034952661,-70.35293081223043,-79.19081453522308,-69.63202243716064,-36.73884831870639,-18.370110424238213,-12.067971368325097,21.229865272993592,65.02755492979249,95.23663676368875,132.93165011099688,167.361603719297,177.5140948439234,193.90719512342724,203.57800901439325,146.86351013228642,51.863041360394746,-20.364107668249645,-86.0544789659591,-149.18532859206772,-163.23835429611677,-140.22947318603812,-130.22290882481747,-120.37615611784977,-85.31023068380287,-56.173085539709525,-51.20981674224754,-38.57913863274982,-13.967259800474672,-8.477162423192382,-13.834817069467931,-1.166849651365709,13.447006038420422,4.248297885670894,-8.640757363322674,0.012332342547196617,10.0993001943115,-0.4301214720321518,-10.863138010667292,-8.94830833251827,-13.729463910633644,-15.822331258954385,-0.420755446205451,-1.110432948428027,-23.422104785382245,-22.060730816280316,-7.430261054292814,-19.30492719344405,-29.542612151624784,-10.99267084723725,1.5648284461706155,-6.557032832036025,-8.617342752444074,-3.3999557536593166,-8.199152411593623,-12.290120453103638,-1.8865628055815407,1.5136997389730595,-16.91734509194813,-27.06937587472541,-14.864520651952503,-10.55742263450577,-17.82711285706388,-15.705046665680346,-15.294837899794459,-19.804096540045826,-8.581664494759071,4.386355198141411,3.52789764705172,10.050865172390322,19.151440481180526,10.016390263244407,1.2020939409036302,-0.25422399430737386,-15.06682053984359,-35.58288264326046,-45.86370140462766,-45.02887286130522,-24.668687885312163,5.088134580355085,6.004493366425052,-30.515349968623468,-60.13018424278961,-51.86133501480133,-48.79368691402844,-75.88052507322635,-84.04150239478236,-90.80755138873982,-116.75675347809255,-59.322190826713765,81.16248301685818,284.84663632996455,636.836962962499,699.4874463801652,-47.270152958474824,-773.5019673887563,-471.27634167580936,94.4233167383205,5.4980849532639695,-164.53368781748006,2.164706268368917,49.16751281866506,-50.03757336199838,-21.965115387616216,3.683339553331855,-32.27120703137233,-7.550858087339268,14.276514540349412,-8.640318073933283,-2.4618931403337676,0.9585617702711602,-32.51906508511567,-43.6884543949547,-28.05162675780557,-33.90268467614183,-62.005542122569366,-72.547801350183,-38.40848017954109,-4.280953314188132,-26.652545555706617,-38.22044122980806,23.54483710257613,57.91307583826362,33.59456662463346,85.39097755306469,199.66292821135332,233.34577164264712,213.0091911362999,208.4749187631641,165.57902472597922,84.76309982679763,27.604030650853602,-28.690655219741174,-106.58498130351374,-171.27180490848096,-198.82485216118243,-167.0920936243619,-96.66791458435847,-72.97319107430249,-90.33353781944446,-66.80267619803514,-32.87782324918339,-41.19144486568793,-32.91641335926744,6.706388956375466,12.725509955939607,-2.3753968069901177,4.292444007343898,21.623183620807485,45.801465504878486,49.465042814541206,-14.553636014655638,-77.50185648970029,-50.09206235514834,0.28988942649342064,-7.681444495334787,-33.10113200861849,-32.4730308203289,-13.242177813304991,10.969288854024779,10.164535219277887,-19.188822032431013,-26.89741161735767,-9.163980623417483,-11.283241498424417,-22.036822825635877,-14.444693448111405,-13.000117542469866,-19.244889801163367,-5.788958297981917,2.3144434819372535,-17.595152805006,-22.22780049853341,2.836762187856131,8.380035401133842,-14.250927952610482,-21.67340048322646,-5.312045791332501,2.77784015656119,-13.148377411873671,-30.583272522480943,-19.76357740105077,3.6289958975784273,-1.5251807042964458,-17.858957237152488,4.497665123971874,34.45616886699365,0.5681928491383097,-55.93593798745323,-44.40062324484094,-22.115053956480672,-73.03338257763613,-105.36687393697389,-72.20719248970033,-69.73064361516566,-58.83627849557702,26.284876739242705,164.7851035983103,475.00850491320006,714.848040037622,204.98103235556664,-652.577592456599,-626.6282063409486,3.7489304589753267,73.72010664899992,-163.8459707664588,-37.72949789407755,77.29638627201501,-45.810968354087706,-50.170407456488505,21.88859297135592,-11.295342497360537,-6.14935043624404,41.87964668769756,14.113138395881037,-18.333828893252583,-13.323363526739278,-24.13394777883941,-28.643084103157406,-9.067954001997649,-3.093854961042947,-21.080426471207094,-51.5477000627787,-78.4826738727875,-84.34619150507707,-65.39121683259303,-19.59203046285917,28.51855220826902,41.35869714936068,53.99015572606941,105.10586272521067,142.08954496395137,149.02191670163558,180.09823200801492,202.4681890268174,158.85815803406672,102.99150140022599,62.28859161930397,-19.685700181197337,-115.94221681241393,-153.4180731997262,-156.19206665673414,-152.4101006075441,-118.74846171284642,-82.4544044253986,-74.99857536048361,-62.90024804876726,-41.736383094657704,-37.13018977912837,-28.310601056907345,-5.006535663528378,8.798092892366036,13.930373339722763,13.117972770776397,0.7509361213539094,-3.5293274473169056,2.761726358140173,-4.060646694167215,-15.987337489382565,-12.860402392920198,-0.6268135675754145,5.103718594696293,-4.490845307177121,-12.904627326845036,-1.6704287319098512,0.773665476507368,-19.936839076751056,-21.790360754112065,-3.4071900352791538,-5.246776579214835,-14.178541641429462,-7.039875196141381,-5.569425840392022,-15.87177303744944,-18.044482972082967,-8.88792109829156,1.9699052771751617,2.7328909443760327,-7.622949622398117,-12.115196530307202,-8.22517891408473,-7.338976283582507,-4.252074460951103,2.806682438321582,3.189365777717546,2.0344954555904113,7.964649786370183,13.773970949487602,12.707882111128328,6.5020338628059315,1.0429667914863838,-4.095140430505982,-19.00655195363786,-34.2348299843224,-27.348902801387855,-8.487273685241487,-1.0428038517061573,-12.831574085699145,-43.368137376470564,-64.40680821197066,-59.475299327511806,-63.8625676968233,-72.13990339253697,-64.11896499126502,-84.0816303405362,-94.6305059909093,-17.60292834133209,128.06872918057536,413.36288818097483,710.9441303553372,410.03525435487734,-420.3493998521495,-675.9562890753332,-169.17253666568752,81.07754826114736,-93.46147194951956,-72.84380109991206,54.51544911094739,-9.06391577024074,-51.69466717238697,4.089524258668426,-0.6370253423175214,-21.40324248337005,0.48971447369603993,3.572146101301687,-7.208657080665695,-9.484032234859733,-21.819010723229145,-31.02987554413284,-27.840714257182356,-29.484931177383185,-33.729431608823106,-35.64093917295947,-39.948853240005214,-39.725528172888076,-32.09131318354994,-24.946150691385185,-12.821880976980363,13.961141838388084,46.483105196492524,75.57722648272191,107.15691482442847,138.68763043703285,157.2621882962943,164.31615006189418,161.7798036798286,134.72915312936985,80.7734789517723,19.36326177574933,-38.60334649686902,-90.18913538537839,-123.43843668800139,-132.07888614311477,-123.8778654110868,-105.4213739874363,-80.82957434129503,-55.837335376228765,-33.36149812854839,-17.938718788605065,-10.459430301853118,0.2915804301381151,9.634509320500932,-4.124710033744748,-27.044754963131588,-27.02274622547319,-16.316877872903817,-16.86231568805117,-15.903422237460134,-7.358241561636039,-4.001340402861192,-5.449119901239278,-6.357912072217577,-7.805204873023072,-10.327095413720528,-16.412165420060557,-21.572290502425155,-14.074920962476064,0.0637294534796311,3.752831609140337,-3.5546012053431824,-10.984913228187022,-11.135394075925618,-3.4076210856894953,2.238597726896785,-6.423041555907787,-23.550181019864347,-28.41807764064456,-16.652417420853016,-6.026727630324697,-3.9249982286196285,-4.718367465398089,-13.236096105540462,-25.92297463801681,-22.345754714782935,-7.6677311972277735,-4.621769312672903,-8.130373112924865,-8.889691488069168,-15.792071897374566,-22.80398151542247,-19.70781053336863,-20.382504345545204,-25.181299198331295,-14.108475653260482,2.5501524120363985,6.018970575033752,6.995493946106877,-1.2618749642149059,-32.99507399929281,-55.60265625556397,-58.47402274350336,-68.42892596172717,-67.98925884071049,-63.7067688662744,-87.78866745162472,-76.64647496215116,23.881713036520026,258.11258538877763,664.1104884012784,785.8878949656705,88.65163867152324,-727.9989834564612,-605.2186932224615,-42.40452215698865,5.820199880740034,-145.80988243865718,-43.05969300147785,13.519426315004992,-46.971490890772294,-2.9964402103862815,36.659788977461915,-4.975924598751135,2.5459522889780715,25.1688973464168,-5.13916106036924,-12.13921964076773,15.215451112207674,12.92405882650509,-19.338764393176486,-52.010955467365555,-66.8435170970607,-62.952606780743494,-62.48542085070315,-63.04678200012454,-46.67283990301017,-34.064220402219895,-34.8452384367366,-12.762730655596439,36.44472550866878,74.4053071072852,97.2319250845731,128.00041856689654,161.6339177790389,184.5090417993324,198.62718135082577,189.39009146363438,133.96642882295396,53.02971924740493,-16.425445980593537,-76.2003055146739,-129.34199069468914,-152.5620336658195,-149.9080174264694,-146.19108444181663,-130.0461997744245,-90.5622285460686,-58.401458484266776,-47.68490037572484,-36.484907866027896,-23.587390910819543,-19.570808121089655,-9.481967777333022,7.731296224952601,7.768634289938856,-2.83485244769075,-2.0895694520744748,-0.40823594493873117,-3.937780551050018,1.3049405485620298,4.272799447548138,-8.27600353186239,-13.985777824313505,-1.772913798876992,7.036549526076492,2.9307932146072986,-6.41923167510943,-17.46829551250277,-26.27969346034198,-28.04484488654508,-21.31310426031691,-6.263154938299291,3.991668357718666,-7.318104921693223,-23.583618959920038,-15.659461908968094,0.7180588809570239,-3.4548794503191047,-11.406402304126157,-6.850651585555763,-12.37730890775558,-29.17602979854129,-32.38476358362898,-25.784151973897572,-16.84844213186918,0.16773957802717376,9.8959951149164,3.890406679875987,-6.897199390320786,-27.34048661745034,-51.03008964044057,-61.480032109157264,-63.7730053685801,-54.607208776079126,-51.49048315005753,-79.0900051140232,-79.62728967732731,-4.706649967945722,209.05876732847275,638.5138335470104,823.7827664254971,135.25364651826646,-759.8473710950045,-665.1807664137425,-32.065508450336786,36.54341408750743,-164.87310326124629,-52.71053576919482,40.9821387321131,-45.08485499768179,-21.673638894260243,42.79944946334502,-0.08109267656542585,-15.335490117059965,16.475830727219282,0.12485236891789953,-20.623778971942293,-10.502170893047662,-11.74727550997535,-24.798072867452632,-33.740712555575385,-45.09045903795656,-56.658814687971216,-63.98063258901256,-65.22438257946115,-54.69396436322292,-35.88326337447354,-15.798240548048458,10.444599036631796,47.9420908694776,85.11701414784008,109.10803201081154,131.98121711695669,166.84766727267697,194.82946041266916,197.2097387931853,174.43475293320478,117.6679339004666,31.112475252754102,-48.39438518718775,-105.55073686901059,-149.54444184829197,-167.7093158804747,-154.44230959019572,-132.99383338407898,-110.59982009815727,-83.08694610845237,-63.89496173929825,-53.276883082080985,-35.324279956167445,-18.528428300292795,-14.351493218384817,-6.841396564598011,7.096988130228517,7.936450857664269,0.7784042645828855,3.8208529422268604,9.230880151503442,6.239616208775569,