ECG,7.629460824207058,832.7149707911245,1641.568747688247,1266.4199886073773,-185.64231362166797,-893.1704587513321,-452.21588720764123,-127.2415239829416,-223.7691339717877,-166.92410327572622,-36.1464937079775,-65.21533917560114,-56.86667417668992,9.789968602389024,-10.892216938410158,-36.0048956240897,-6.257367529062032,-0.4270894423131981,-11.539322454132076,-4.790059973043709,-8.148863205615633,-20.237676514335572,-20.214674351799175,-19.814820851766054,-21.770820224477056,-10.907296233809024,7.9645176534968485,21.679240079387515,40.06430092180592,71.93971830073616,99.0330321852469,114.34876211567001,130.0010834937209,132.7515379227465,110.70613475336958,82.81052571377418,47.25643816928615,-6.859672767315121,-51.99106390280137,-75.27345287942848,-94.1898896739473,-99.827641342855,-88.82022478077992,-88.05144289627161,-92.14200095057846,-77.83853945296522,-57.566849266677025,-43.33394410612466,-27.067887307792038,-12.123899947872047,-4.780110399245302,-1.6014033718219949,-1.0482857734546833,-0.1745176220424156,3.631032144320777,6.626814655649003,7.693758960305686,4.790400426493836,-4.190717815981117,-7.738453052579128,-1.8827067101570805,-2.6278467968872476,-8.641065352300224,-4.889529899598678,-2.594392244703169,-11.913478464879304,-12.821412888697228,-2.1459297298145437,-4.6383502273027695,-18.339911907978045,-19.6736381575382,-9.787631041611503,-2.033651919445788,1.440616058008386,-0.03711204537107626,-1.7599447978745442,2.20447099311429,-2.311348312944645,-20.37651680677848,-25.662642316014406,-13.932878563112133,-10.133655551044962,-11.17354110787187,-5.284663176990261,-5.194443928033889,-7.523862441996808,0.8686516216289988,6.712382309385209,6.885161824302605,9.540236580397632,-1.092455549131552,-18.803438251571645,-12.741274524870988,1.750049134218795,-0.39485097286176796,-4.497754144875877,-10.67449215171284,-24.757300272766358,-16.767619325816234,11.58100311111696,18.005528565871884,4.443504170683134,-12.987003746170378,-49.23572825859174,-83.65718524521279,-88.43277562652776,-100.8983711000705,-129.65726194741066,-145.2788516664565,-180.78915994074146,-232.4552248874008,-244.07656014230415,-146.59533861588622,367.15893583928954,1319.811238917839,1610.7173293269414,463.5815695434919,-808.9345108104396,-808.4770336421782,-273.9720339850774,-208.58841057766708,-242.53905438663978,-83.10729336707624,-51.464557496406755,-95.32693547119123,-27.190478047659866,7.961590193835519,-21.437178194128883,-7.242023284142279,7.472891093604925,-5.577755208275406,-4.689733087923358,-9.949777428165312,-27.149271809501002,-28.576698360332806,-28.021980802588796,-30.908601315441558,-20.037092539193225,-3.1586781656335887,15.088955677820516,39.67823402428877,58.216990011316575,71.12074422331632,92.68336755429868,113.63990174477671,123.55582812289157,125.78131924045657,108.33031205566391,64.52777093135695,18.185921566727085,-14.96207275531653,-41.113017235412904,-63.31510240017578,-84.98930259011483,-105.95357781429325,-107.77890741276344,-84.30760818548177,-57.644247689763176,-41.53599324594251,-33.802711644964866,-34.251960193272225,-34.1214518369586,-21.11237233999113,-4.334985037602429,0.282071803656315,-4.291184925675644,-5.95827156791286,-2.209956829620449,0.22572796083431967,0.12458672273009341,3.9867791918529463,8.796094825547685,5.556318183271497,-3.255258718983285,-13.395510922594845,-23.696870701188878,-25.135146049908823,-16.891371299322607,-14.27457356761552,-19.705581541377747,-19.910798414106967,-12.986490771248373,-7.519311144861621,-5.788566106429325,-5.412439327189828,-5.914029224966079,-5.768763468184613,-3.4995759374064157,-3.3738549562856814,-5.698627312992979,-1.927870809592962,4.2271760411661745,0.5340648724551684,-4.242894558948443,2.2659423525392377,7.863555037875551,2.246972493470599,-4.546873892592185,-5.3317609248745725,-5.521713567096931,-12.777693585086052,-23.76733746530655,-20.735235321570073,-1.0436070636291408,13.299449492182408,14.227437235277153,-0.4697104635574618,-44.492220871603095,-87.99187008570266,-93.96157964512793,-105.61984589254308,-141.8136247215069,-156.39571986496273,-175.65453926175215,-222.86053706294277,-242.24775173564177,-139.02950886987438,389.2665421732717,1347.3209598768979,1630.5280444655218,467.29185138968126,-810.4335749936124,-798.561605613646,-261.2960246346516,-203.71547011515892,-235.28216444036568,-72.12381244538997,-44.24699012238986,-86.5438183396297,-22.127322958954256,-8.446325997490241,-47.72539493103697,-15.768318752065323,13.246424352231196,-0.5512242240192577,7.49196323811298,9.137684642599664,-23.686425834149603,-36.53829912956871,-23.379547782857575,-27.915817179562303,-41.202703354164875,-29.673160795338113,-2.2553994532706936,20.803029551115475,46.94242420913468,80.77220672963315,107.16007148240193,118.09710721512292,118.96433401878019,113.38902214241692,95.4456833680891,58.32212134687278,13.128745050896404,-26.36170744945925,-65.6191207221637,-98.42544781768518,-103.23346964156825,-88.93372453333336,-77.5431658583906,-68.94302530820133,-65.23602954706735,-67.32496363949438,-56.55769636072688,-32.046237895486364,-13.906381455003956,-3.9208718754598166,2.4005249589971775,1.943653854662358,1.0264109062708577,3.889990054073653,5.649636359147376,7.954507151888794,8.1083930111532,-1.3076848238094065,-9.39826392731715,-5.4566001552963765,-1.1416447516277834,-3.728815417680263,-5.842005147444784,-8.237955705727266,-14.604024154842786,-17.287957529934722,-12.645024058531979,-7.382669659859282,-4.350560345973641,-4.655861229045138,-9.502717273374504,-9.068859473315971,1.2517465560952132,6.495345535508134,3.238171062830915,3.124255406253262,-0.4282040190116998,-9.742740914937137,-4.643873493596251,7.696807574215737,4.8463807704689685,4.306649963450859,12.011042366468699,-5.751475659961805,-35.703222734829296,-31.069197425165388,-5.501482912259238,8.941542806819106,18.087438004929457,10.06884390973982,-36.231358299818,-81.86722815168905,-90.20623762836993,-99.52770358640275,-126.52087699497753,-138.17666995325993,-165.95181344959727,-227.21863890404234,-253.3491016542407,-212.08268651787276,110.16635186218855,990.8060941308095,1699.5170506674297,1007.6978392659382,-483.59959648060595,-966.3470914052684,-440.99466291466285,-187.27154714127315,-266.4826764955035,-152.93173077735923,-50.41950226472298,-96.99601542499941,-60.96834907659288,4.842479582753704,-13.310975795142312,-13.638365313829176,7.976667097821993,-4.3749270270780976,-5.761826486676409,5.287373786117721,-7.068958868614791,-18.580666553954913,-16.335720832487834,-17.596412259109037,-16.508725195733632,-3.21165495933635,16.392933266428674,36.18531359902326,55.99826097590534,79.24429141971967,104.60872655671784,124.73530130069807,135.5922768426842,132.57847378084244,108.39267720860524,66.42809627058949,20.11650825445333,-19.42185129458598,-47.563614996721334,-69.84083161181923,-92.28143474283112,-103.3218286674957,-93.88333682487169,-79.53795574577148,-69.42440038446622,-55.13799464782991,-42.90636204324477,-38.649317339278575,-25.822905463282492,-2.4920800827126293,14.875060961120973,24.325824762058886,22.40891900306237,4.94381862442895,-6.945580773273935,-5.800895469195574,-10.093076113860867,-12.541723707468606,-6.689017890146985,-18.81790638035587,-41.25611274797312,-37.213275738470365,-20.150995036091846,-19.153289585807592,-22.35734890911855,-19.670581201721724,-19.508695484913165,-17.72629395876013,-10.858904828598384,-7.027102342549789,-4.639813995807387,-0.27880769930273885,-2.6781774962487006,-10.762199671681767,-9.519015003579437,-0.08881691273866821,2.4173598328167394,-2.112149995716141,-6.5293396799925745,-14.775753628628607,-24.85127179625961,-21.237351504500033,-1.3953405312714295,17.722063215298434,19.58936783508982,-7.3739334675561565,-55.404101342996654,-85.36602375735112,-92.55589749325972,-120.13471470472334,-151.17145895103906,-155.16014755650318,-183.1363901514835,-231.7244771138208,-241.92388685804508,-112.21482739915317,499.77606415145254,1483.4697555670823,1588.844970287391,258.76157779140846,-918.7673584649662,-749.8170763595687,-236.54291196888832,-229.65454611819925,-232.76265343006062,-74.42909641557318,-74.81423069550375,-100.75471307300357,-21.825471138715308,-5.704085957593321,-27.08253988582596,3.8825591450391723,13.523598312823086,-2.3172046604276133,2.0715559625285245,-2.236183390202676,-12.311217945420411,-7.110708324701883,-9.697048645798496,-11.997916843909428,7.440422039207227,19.04110267869879,12.684865060386585,28.601283591529118,69.6886567896543,95.22006737192957,103.89895950776219,122.64259909801288,135.82610859771486,112.90313653410615,66.46827237777701,21.83109935645966,-17.350967121368903,-48.62685902821123,-68.62293908624746,-83.24210789470551,-92.07653878148788,-91.21532378864934,-86.57265481923056,-76.03569181286882,-52.98708265654779,-36.111585043617666,-39.24955415409727,-36.00606739558151,-15.52402836225603,-6.672660700603558,-7.327226124540665,6.560342464786515,13.245558824617191,-3.604137367432827,-11.343890263933929,-3.830386204445105,-5.754681274811858,-8.861359500370611,-4.60446031846687,-9.082431157958538,-16.25997016370978,-10.417263421872768,0.6244317309461067,6.493550483190081,1.8203838979782638,-11.189596135148598,-14.119266511157702,-4.336579655864014,-0.019217832524184075,-4.601064613124276,-14.612666101432076,-23.869943429709284,-14.861141025343706,-2.3190586948708756,-20.27236984713324,-40.25673841810601,-16.984002433994213,14.507240506506278,6.492415996028383,-19.074201401110596,-41.01206872179,-71.42273640692258,-97.38871268292505,-111.88385707102285,-133.33037863081802,-150.74299719108058,-169.90202735308674,-207.7839804916014,-226.6420150539794,-192.7855807992612,119.76709828811858,1014.5276672017042,1771.3374891411245,1072.9982228580875,-515.3995836899444,-1051.464647439724,-489.3255281145018,-216.06316721581908,-293.4559402260668,-141.93396471300628,-14.66046980446481,-65.9416867388729,-31.19588063898098,13.04285435913038,-33.60674288832133,-21.876109411478375,15.003850315928046,-6.687798718478195,-5.766566733684357,3.198128076643588,-40.17305329608721,-63.43952834287998,-37.14294389585463,-21.664257741372104,-18.065177780245428,1.1152278732276688,27.669724086166198,50.728225825766444,62.37419722932373,71.0120872897384,101.80747762348433,132.62619102356217,125.9419168975239,108.86107209683631,100.26557695067498,65.47540612719263,10.122402607526045,-34.27066974178103,-74.89546590013431,-94.20100965071865,-69.94444093926758,-60.477488060884006,-91.81062314092321,-93.47648027556619,-60.80261728105058,-54.97342007610121,-55.53732454814184,-32.5396598395279,-22.07064505250713,-20.363578776206737,-3.182130843076525,-0.5436132956195188,-7.654384138298127,10.99881532565325,23.618482744069116,9.502391432119055,7.889456023359501,15.152191956301685,2.76187328837654,-7.408920307910929,1.714972331983363,9.289911691832465,1.0574161979972558,-16.570920432094077,-19.94656229373876,4.815423525769733,21.404505641065356,-3.0019848943962053,-28.52013664688874,-19.074332200117105,-14.683592247440409,-33.10334156659262,-22.320884687845037,16.364659851065362,20.838627369444097,-0.04615428641390551,4.4855263937865795,13.951357767114168,-18.89667774721528,-76.4110835539797,-112.59272583298772,-136.68426958172333,-163.82855148680457,-153.53368129045586,-131.62483726238406,-173.64055251272038,-223.5622726018437,-176.90871936163705,163.576313796288,1031.4084293930712,1749.1342348443834,1051.893954858402,-540.2244042893356,-1094.3559364074672,-515.461382356903,-219.21016536457532,-314.3794376812949,-177.77348949085118,-41.387740018534714,-105.56067867823131,-78.20370771335185,15.896048416525566,5.569325919766371,-8.109458351055002,22.986184294694898,16.537719797252592,-20.375314960185328,-30.01471266274295,-7.9850299133953175,3.8244508243502846,-7.884291063537713,-12.541504135620603,-13.166849410117074,-14.299208108204432,14.856761154286767,49.17568112480021,55.59304417731526,80.89382603555164,127.92641738034747,134.46585120005665,116.13177602437223,114.83518690380828,97.32997474558758,43.05975459996175,-10.079401310671354,-41.35699543909192,-63.59290946787566,-86.31090057904262,-98.0511197050871,-84.687916244071,-69.70299607256456,-73.84723962347358,-60.97186915109112,-29.04951752970033,-36.11290952258272,-58.8940025454062,-33.593979053462945,-2.7521509069212975,-7.122756627879166,-4.684053789092204,0.8166338272387428,-8.90481977839329,7.9366465397940615,29.222378245182504,3.6515077560604716,-11.00209131384237,12.563040145520876,3.037656884992181,-27.206901569374978,-14.15782090546086,9.044328689522992,4.191389014945845,-3.015370402237064,-10.380451973164366,-26.50407040884594,-19.982212617189383,11.884206804398854,17.268027791783144,-13.487551726155932,-26.26993649893067,-5.743206948939051,9.671354138442478,15.97450450778478,29.1438812674689,19.55632899715603,-31.983502651913543,-79.64018125695145,-97.25486704578616,-121.12151168994802,-143.2561404348876,-126.0697262396562,-134.41455433044376,-203.36368904195353,-234.71289569503756,-172.30985248553355,175.40783100234438,1036.3796842269817,1653.5434948843576,867.3937312178894,-610.6267134239298,-1008.2202011531899,-457.5633352132342,-222.10252341211705,-266.5332483853247,-107.0024281799057,-17.419893689519313,-87.32520147704786,-47.71599361802253,18.49849387631162,1.3066485990640118,14.214170295461475,34.223043182190914,1.7551219706272168,-14.424772455299948,-4.03885906768425,-6.960991952902347,-14.856411569951012,-18.90303929484291,-15.527494851119394,-6.927232544696655,-7.7154578860079415,-1.351198854480133,34.15969773639409,77.21489963912117,95.23122493832768,89.96094188857268,96.84628057183669,125.44759875745731,128.31514657626857,79.44457119042919,14.1176052568496,-32.84766892893134,-58.34154593238042,-76.41083542545405,-92.5045077155387,-94.08293472944665,-88.29703705061857,-91.99978931433523,-86.20477260497842,-58.21808500018764,-31.217061065966906,-19.1269539824818,-19.151049369089414,-21.453033919807815,-14.937758252675728,-9.774862145888207,-7.385480274166138,8.825061961470853,18.09921694446555,4.286049201979315,2.945166554494298,13.86976240154329,4.72736371467378,5.306737637603102,34.89643870612177,33.81590740954217,-11.25654582976036,-27.76072301907809,-0.15660156822695726,6.728905803746983,-20.374647497702206,-30.94282220762462,-20.916642793298177,-25.958408453900876,-33.559524249721775,-17.30799618761727,-3.680552163065258,-16.88601089950235,-30.365636792560988,-20.04773911290095,1.2119005985642985,13.8645417703403,9.117660691519221,-19.45761563972318,-61.768539332375056,-89.18016959766422,-108.0383659902314,-141.16275335258783,-154.97607999432302,-142.61494812758372,-163.20389213252673,-207.89297205100044,-207.85955662890012,34.71030985520321,812.4404280574954,1627.2338857301752,1221.3492743855159,-258.9637993536596,-1024.0855721382595,-586.1382231684024,-197.2685067185966,-251.66392877483256,-183.50675897153016,-50.916060803389115,-81.89443730909002,-68.21898753175816,0.26926687860115806,-14.150363275996042,-6.745322133307599,40.43355058181538,13.651988253915881,-28.57875043966669,-12.093931697083919,-1.4604082063828798,-21.91269563352286,-27.686124251934572,-14.997968802652036,-5.977892171291262,0.7453669440931598,16.67109050826469,45.93369688641018,74.93908127216066,82.68365766881307,82.83223050401344,104.52253694729451,123.78712834743878,107.30391704091163,83.60486800187373,64.78516742547473,11.025652548047244,-56.173022764624825,-74.50487846966976,-65.23622532801133,-72.51303295770349,-80.30937384899308,-83.82920445188927,-92.37485928987687,-78.85152445763707,-47.62156137993121,-35.99936678554121,-27.929254131699615,-11.000016954240522,-19.659216154611258,-36.67213494151282,-20.05729529994028,-0.9342382456068243,-4.99869957316427,-0.954455413081007,7.2180850985740435,-8.032574290486487,-20.228780008309442,-4.061075531918348,10.345555427572851,0.6109151617580579,-12.623031600067858,-12.20625887469862,-7.253990111895259,-6.498366396398577,-4.412364701252912,1.1200477892957217,2.212666593680879,-1.872816367165484,-6.738191302488033,-13.990145455899775,-15.496990228551933,-3.952696070999515,-2.402450441699436,-20.09672704130637,-24.117511541630947,-10.468001040505175,-7.542176292346934,-8.25152387368285,-5.047749532305193,-16.53446885528111,-23.29194462021745,0.5373215498601365,21.53404212525776,17.18091248406711,7.80019139961653,-16.661952012357183,-64.86154033513333,-91.68170388778391,-96.32598450160003,-127.33696489462704,-154.3831967216938,-151.50604833251344,-184.37867824550747,-242.99286631887838,-241.865541617963,-35.645842718537494,665.7854860002083,1559.8244551113073,1415.550457294851,21.110463849815943,-948.500012995017,-642.9332891739782,-195.21079812236604,-240.42773947427884,-220.2204726837718,-62.083084269921656,-75.95505224261669,-99.35569208917022,-21.655778200517958,2.2308694207902846,-4.479697595346353,21.29550008703995,17.078551041111478,-10.98857625687408,-14.867523504515454,-5.6598026343442065,-2.2979790495759653,-10.29573601315478,-17.373809939382664,-10.784962635633104,-8.91455432773029,-5.175987391448581,30.7183916739746,68.15957570390202,69.82966598860571,69.02625387952565,88.7655576458539,102.4520533534077,104.47999413578177,102.37458558549494,77.48119978164767,27.105073150619823,-24.62840062847089,-67.373795497575,-94.61409390498409,-100.6126757710389,-106.50728751090186,-117.86560040190913,-100.16899796230001,-57.636999511366696,-39.78973168132367,-45.24451349507623,-33.34166151896571,-10.974130070624703,-8.104097693044523,-13.95290781571616,-6.140085072980412,5.537038192765614,5.533302925546494,2.3736167300108306,4.319872435666561,1.6180394308123027,-6.355616758158682,-6.0324159271422,-0.3822447526858177,-3.730439696484286,-12.473687928385814,-13.576145900289887,-8.588798256286786,-7.5523223284824255,-7.439752190075893,-0.14581671688368303,0.9083771995499141,-16.211848066556954,-26.334664110107934,-11.430621714327192,3.7773232575085913,3.9000780923825182,-1.338090334004514,-10.835281321855764,-16.71937378938661,-9.07155299114449,-7.138413529725309,-14.310658879824539,-5.32810089395344,5.160395021625241,-8.321293537710593,-18.154227044716873,-6.383584379106772,1.8301160208004692,1.404187675479882,3.2714223191260876,4.200250559849571,9.264776349824697,16.869363226064927,9.651302646761184,-2.2465544571110208,-2.6845340273634655,-2.5304764654458545,1.16555402158553,14.682419851009747,13.348579400127672,-12.889693480915339,-48.11012306851591,-82.33066845482546,-107.59088753013705,-127.4006524349657,-145.1822834154775,-153.86300684435295,-180.40672599038555,-239.22983044458664,-282.5639575593591,-174.74878642191675,395.590203479711,1358.2008798074,1620.5862484298393,485.84572624206066,-770.311960572413,-798.7968026029,-282.30817967877476,-210.2469191668635,-260.28128104057583,-112.30348054725854,-58.854874735338996,-98.27214085423103,-50.67730209662956,-12.098960332464166,-21.765149678897437,-4.302272965708269,3.3118878534942517,-18.26961626992245,-21.343345050495266,-13.53617759953649,-13.57033833886405,-12.625126130830248,-17.158985719032707,-27.46343142227369,-26.769420440750782,-11.455156810861961,13.786326390432412,43.9566804597242,68.16482689956084,82.73513976702675,94.07426472665996,102.40181332663843,107.53589641288076,112.5692531510313,101.82958050595853,58.782986463972584,4.717364023225538,-35.47363166741789,-67.68996152653128,-90.44194863834167,-93.30685703906934,-90.62407609811879,-89.18369048459235,-73.48884826601167,-50.678659075908485,-36.6631505028378,-22.53921795614054,-8.273857059793507,-8.81644022283551,-14.77223706433756,-8.200546515528355,3.3032960968458553,5.504606335188479,2.2656491476662595,3.341471113506593,4.957528338979248,0.3187013918385855,-2.7848514390937726,1.5367364103450694,5.632645503133389,5.435285420288281,-1.2561279460228398,-14.61641066723355,-18.468614382369545,-7.221950253770579,1.2749708321024364,1.983357673502283,-3.4566667009390564,-19.022858018077937,-27.692639876640282,-18.234309200119302,-9.323412152785423,-5.223234999306694,-3.1632557823859173,-15.546914412232436,-27.158563870317206,-17.158844594026377,-7.535329716217632,-9.705363634079674,-7.463621470285904,-7.7224392399045705,-15.454852038420755,-12.911554920007845,-4.445501626299716,-3.7293375876536885,-1.101785807106351,5.46252902301811,3.128551434367658,-6.139717857154928,-11.945122695370777,-10.435899254661855,-2.472869051388587,4.423635071540524,3.3813648695098717,-2.004013601204477,-4.8246255575852715,-1.017882782239603,6.117984006040494,4.266301288397379,-7.860474533954974,-13.59738272289471,-5.6077529164981215,5.615738127390401,9.66201371190346,-2.0345083550623997,-35.79725027842674,-75.49885222009857,-95.49683987617951,-108.42814075470088,-135.3931226032931,-151.7680333675341,-159.30934055941725,-203.35313741348088,-264.5390341416798,-266.3054116857784,-5.756705624850554,782.8720501378863,1616.4290804466618,1298.1426865606363,-96.74829261705418,-896.4208491432153,-534.3564862173945,-163.50334214431447,-240.6060193451209,-208.0876158303982,-62.339024328570304,-87.448428769587,-111.51459511251628,-43.82747768378088,-24.731503165952702,-28.396955498316334,-7.0822951787423385,-7.55910881812297,-11.647955117513533,-0.21087077076878202,0.8040697477825596,-3.484389372892954,-14.976269093177308,-37.31161930522766,-37.97519146936675,-18.798123702446173,-6.795236737770638,11.405894591749082,40.439806576184,60.45486238233016,79.24021840294846,104.94628532835887,124.40472899206239,137.34701635574945,136.34159678648007,96.98099518866462,33.503946656969276,-12.840258918047317,-37.83301688064621,-61.275839718224816,-85.56499605736951,-101.81202726470117,-104.91126550509988,-96.21053712254759,-80.466002595834,-59.27192199842873,-38.48602599999661,-29.297797897006856,-26.785989274416348,-16.88220096782623,-4.881281350122915,-1.2710494125185576,0.3987911782301907,4.295646793677122,3.368231478591351,-0.6164822036893973,0.4200434559755557,3.8526711003004195,3.9433406714202768,2.0020982059602304,-2.8934591973203148,-13.154782758879946,-19.24673508729288,-12.88470791011506,-6.229285125673588,-9.073240657524872,-10.550655864215376,-5.480751599121486,-0.7548936250534677,4.971055141537837,10.000941367395345,6.103874166146266,1.8399314657962638,4.1613686762671325,-1.0874768696202857,-13.092090602047993,-15.251692103702975,-16.26769641919303,-28.58016269900926,-35.890507989196834,-28.38814701841874,-21.566854610244317,-22.025761980451083,-18.564894800510505,-8.119569975049938,-2.7859825010491264,-6.749863088294962,-6.111076878706768,2.4885330683651077,5.269532847112886,6.079920802842551,12.652765846171798,5.242249880219287,-17.54335954598089,-22.944225719248603,-10.330465708468125,-2.8401392577297155,4.556711139066323,8.187279922727246,-11.096541932921006,-28.363385759415515,-15.618960740820443,-3.165318013356284,-12.65697869165572,-17.16272683408237,-5.445326758340055,5.748357882862102,10.310068930863622,5.09574285794832,-19.652852049079968,-57.35120089825472,-84.10871448751568,-98.3224623266059,-122.91242039402294,-147.2796801090306,-153.82852826317622,-179.24988074186342,-232.25360123438801,-261.0497580014511,-134.08302375240305,455.45508087200426,1392.148035998277,1563.706155860132,381.7854163031379,-798.5809423815472,-741.0406586584595,-236.01190838304964,-204.10095592337092,-252.98400061831447,-103.78641308621411,-66.4031396327383,-102.583690767622,-41.29943920211463,-5.689288221640517,-17.970576452229423,9.316478838082807,21.970754034421706,-0.18241038569232337,-0.1443907434608409,3.608338431514235,-12.094419786655516,-18.14016247532183,-11.789263484959147,-13.553116585089597,-22.477156559284783,-22.578917935895603,-2.2482908325900404,30.639297856323918,56.01419513099611,69.78524875651365,85.81490095705895,109.03895085937863,125.7716362225301,125.89709911668758,112.28167949037466,81.83839715253485,33.24263928108256,-12.281540902822158,-39.96403567553818,-60.3401449754116,-76.07824559874555,-84.43897064323737,-95.7249177091546,-100.51124016844508,-79.94261687241922,-54.01254715493442,-40.54379572437159,-23.616200061093323,-10.892420966142808,-19.44877399597003,-23.767040426880193,-12.744219832370113,-12.516305642865873,-18.111166026069455,-12.108672421330198,-10.302934803475903,-15.19288162422697,-10.987372261999365,-7.756285540147285,-11.665825503256102,-8.846325332024314,-6.07913881155763,-11.97840084444562,-10.844236644907824,-3.8744492352271216,-7.804876748043412,-12.97549273103774,-8.472844110628255,-7.134550938709957,-11.488290646722582,-10.836141822330228,-7.722187738909552,-6.24148294351582,-3.5271812777663776,-3.3349952822701283,-6.9918635909863305,-7.573537460698727,-5.679734272782415,-4.267513932054328,-0.25409214138950276,2.5108950268771153,-0.31926659223159426,-1.7445156785730145,-1.02259529474129,-3.4098416472899924,-2.6449265723215802,2.342798129610225,2.1258751671383767,0.2793758151880148,-0.8778383446352613,-10.632996778210394,-18.31718230525643,-11.035870134557886,-6.890240631079639,-12.158686869146448,-9.916012390147916,-8.464874081520712,-17.255337807488747,-15.5317243761262,-1.0574964423792288,7.944272254332994,15.74274443536233,17.76763805390142,-13.496078965975554,-61.43651397636509,-80.47500961932748,-91.12907688968288,-129.42517614354836,-151.79765183483227,-145.49164101007526,-173.14744871592544,-221.41560501084072,-226.46023025658837,-30.84242261209272,677.6245012010475,1557.0091565742728,1374.6910950452668,-8.428836507810189,-935.5530912754255,-636.1050058025595,-211.69179817145962,-244.48957741565076,-210.70695770042818,-54.061436148682134,-65.52505600362728,-96.50131515884085,-36.54922055682366,-17.29091784917317,-21.43426756607801,6.008181176379463,11.79029448086469,-5.0346869827393945,-11.721345488592906,-14.132451142102893,-12.310786896189345,-11.14510162222098,-20.83825434955941,-26.003955340273,-19.225078684900915,-10.380537486315536,6.000138254196743,34.411405626159045,62.31458925020708,84.36902556463666,104.20195649922391,120.62534019378352,132.3534568628525,130.79876528046108,99.42774071682692,47.333734680786584,3.0420584117236955,-30.88759807096134,-62.660970674315784,-80.97465804536516,-86.1559501749685,-96.96970635811118,-108.84339012991073,-101.58736710277725,-79.37918406946176,-60.777615427212496,-46.640704285347994,-27.955244297651042,-11.896679696045261,-8.905156140014515,-7.454712946458663,1.8350901392374261,5.690208874600394,1.9293592891021767,4.34920550374429,7.6266226319685835,1.800336116005834,-3.6729266636066953,-4.745957458824474,-6.52544092566229,-4.013897318002883,0.8328660396878096,-3.388105149607121,-8.93513008204237,-4.122869613076899,-0.6544509187270471,-8.244464144645796,-15.97940164167342,-15.290532681636009,-10.03851778995617,-6.651157012718219,-6.104747892434588,0.022230158675736078,10.291935609703199,3.804366636361447,-16.722149364371674,-19.824150470809645,-7.861574311989845,-6.506539810797484,-6.656898737961333,-0.3724355722580306,-8.876940244166711,-24.81540927054567,-23.165870645912335,-16.177615168316336,-13.82181854034351,-3.667482759117192,1.7342934283742757,-7.493417339568133,-7.329512659543543,0.8130397052411062,-6.558043977993499,-13.119399320110169,-0.6107533451294813,10.427430573361898,13.638424574204642,17.983344223428197,-3.08963262622086,-57.6275731611617,-91.80834490220352,-97.4801728851503,-123.87381527929264,-148.3684499972985,-145.37187549842275,-170.38037572304705,-214.95713601524244,-221.76385911215726,-62.57867358270022,591.8342288744858,1494.0466550774522,1404.6221351641016,47.59816671925708,-935.1332241782545,-656.4608137206437,-206.46635528848495,-232.1617138277032,-204.09722683108558,-49.01239384603082,-67.8276682616775,-95.86797879921609,-20.677812763144207,-1.414922746631028,-14.460409378252251,12.123551151959198,15.286643633126943,-1.9885616122226057,2.5882990306814566,4.479750166300595,-2.370007968831519,-2.964125534837212,-10.277920309049431,-25.369881216713452,-30.641036274629514,-20.947745159645176,1.4330217652572497,31.626232864342093,58.78305836621932,77.62987751962127,93.59042712637653,110.609034567636,122.39633363185186,119.87827430246924,100.65843046687647,63.91120788313515,11.245753357197845,-38.192035439781776,-64.53975109185524,-77.1344693808935,-86.6360383343137,-83.39515157450677,-77.53874180080464,-86.67935708471862,-86.62452943868892,-59.97739726736847,-35.326229850137004,-23.76857486035425,-11.377162684316296,-5.409556365368566,-6.1405583327087,2.262060347719835,11.557189212095256,13.351794953534778,14.43827254572246,3.0134935462049626,-19.65657357467893,-22.0994233896594,-9.943877901235084,-11.820756534867229,-15.068226953168285,-7.827703864040846,-5.51969247034571,-5.22453201441682,-5.53466814935171,-20.898117208662097,-32.057519966116175,-19.95295111285177,-13.487118703865857,-22.669638836412965,-21.4449850243632,-12.859966658212649,-10.022654746904031,-3.875841604477806,0.7761913479839109,-5.289512504250034,-8.21587306035686,-3.238209354604514,0.06746676583784428,3.237559877387138,6.196023222216564,3.702864461582953,-0.6715340673443819,-6.116978131882519,-12.566065524173464,-8.593830172186976,5.038195985928869,11.52409822182695,8.63310214803032,-6.5755354138726165,-46.54259292733997,-83.2505965027919,-89.31174407491751,-107.61816950420497,-145.2080197592542,-152.33610647818625,-164.842789329777,-211.9553676999561,-233.41922898494238,-150.80205586034342,320.1303066354255,1254.882521718057,1626.0983047623051,555.3070234982891,-765.1311185765076,-839.753790871438,-297.2208652084919,-203.44734849286763,-241.9323819746868,-81.7068177994519,-34.267851996378624,-71.0778223291557,-13.352612687577782,-2.0677106919280845,-43.3219886772286,-15.158058410254569,9.359783259665019,-10.802029122725129,-10.05355547237717,-8.40391269361641,-26.361358309779476,-25.062398022094705,-11.323694338918695,-6.834673310450844,0.15724593579464674,10.680748246269061,21.761489734160342,44.386553752633816,76.69360902178892,105.98370621227713,123.64268542617643,120.96544457376757,102.45274359343009,89.97230960888731,84.85025725119392,59.76797857816747,9.13712423534522,-39.829720915682074,-74.9831351578836,-102.7026196316533,-115.17474770677,-107.41091563062625,-94.38207236030058,-82.41175195816723,-68.36531946801944,-57.348665712359605,-45.36062501037211,-24.326405810252233,-6.937059536804419,-2.7146289009232802,-2.586361448575211,-4.129079572515877,-6.242420767097528,-0.7865302290855603,4.860956197094083,1.1481443557765552,-2.0033755140670735,-1.400458842115345,-4.380565198263493,-5.905828672720929,-4.508304436541973,-7.956806296216524,-10.423615212336589,-7.162260305353101,-8.427671363945219,-13.885849946536034,-13.625842671540893,-9.710447204567,-7.310197820549146,-7.0630679643576055,-9.606099339974097,-10.334788495256085,-5.705230849895695,-2.4982591587910967,-2.8341527121106775,0.6884198182433394,6.271912137861907,3.260688190934772,-9.095305566772613,-18.555705568162907,-12.005533834048688,8.749407168869075,24.42821868470295,19.788176369295854,-8.901956616612715,-54.248088031625485,-82.08724211268,-80.97482311694374,-100.50095459747972,-145.45886671826895,-170.49881096802508,-193.474317020002,-223.7346032869336,-230.4957736657942,-111.84325967514934,477.3230244578125,1438.9488924362113,1555.2217357922827,258.48109175785976,-907.0905068256127,-744.4768176978316,-236.26650138649273,-243.46736758458306,-257.3706966220291,-82.5830377418982,-63.52378905499525,-88.8594727298269,-12.425540461887035,-3.0083469581446067,-39.35579265774629,-8.416132492401394,12.772548023114172,-3.092924515280803,2.6646350894439728,5.547205686809303,-16.97692096352618,-28.447481523168754,-20.78312737261158,-12.601395965684922,-6.491853749241766,0.9738876477138394,14.112667291103644,39.441724008561785,69.92669783766968,91.1935170568136,106.03675370231525,120.67708381460157,123.42026658508402,108.7728768065985,86.46898561855227,53.07953791222543,2.3934424597132797,-47.375701095584276,-77.35330879444972,-91.3932268090951,-95.75097983532096,-88.78896409757884,-76.06401030800852,-66.62476340006786,-58.20830695594358,-46.509469131601044,-33.31371399033737,-15.852043285817093,3.8286239637758683,9.46777033944418,1.4490899496082505,0.27613976948682506,4.565458465386683,-0.43640981951103797,-5.960745396412584,-0.06699680529944096,7.457256297987133,6.515671423835862,3.9767843167693737,8.409747581193894,12.244130079058753,8.723874580837048,8.69994358076251,6.870208938238191,-14.235145201848024,-29.072065512938924,-15.940082477580006,-12.601676046203629,-27.21009371947953,-22.463968954097318,-17.42402536772985,-37.02767975558592,-39.22180960303652,-18.227899203391182,-22.277921821350773,-40.46425978442502,-29.705896811603825,0.567970649551178,20.78438651659512,19.537669492571013,-9.337162973996723,-54.55880543992681,-79.45925270128204,-84.33212041079165,-116.36445707910835,-158.0079637074158,-162.04157700400955,-178.24254684757625,-224.28377228424827,-238.90201034318542,-144.96704573525534,375.3382229542587,1356.0262013746003,1650.4713498838246,449.1488379998534,-856.0759329495119,-828.6298735354479,-286.1500019910649,-235.98407091809065,-250.650378244453,-72.58904610142194,-52.045896334547464,-95.8850979640618,-22.07019525081816,2.0112318680638523,-26.713228551945654,4.723988859523393,24.78491768916634,3.5493294203074317,-3.906398808043292,-7.767443796514561,-13.449597874924851,-10.199755499198801,-12.061948000349405,-7.774149615275157,6.483910743827127,6.464014640228401,10.230348333783642,40.46035662920077,68.24434197767374,79.99138201379651,95.23490265805998,111.9207902548715,116.5591068887202,107.80299924628396,85.37295888769452,51.37471140184351,10.037352434273714,-32.38360677436066,-59.49970711365932,-65.32833819860339,-64.673825440587,-68.04468437469913,-80.16494512393908,-98.38122347317855,-97.5144942992332,-68.45418121207089,-39.14893126380427,-19.26029149226305,-0.9808919111989667,-1.977129369245283,-21.337077886102563,-20.28847638744437,2.614851593829158,12.688262879995307,9.446280338231155,9.226682788426189,4.643499138546304,-9.076462977758087,-21.458153916337082,-25.860365748508357,-19.32083627210054,-8.48036196657202,-10.249089296976592,-18.730002381025358,-14.619871602473467,-7.776680665989495,-8.871744794083632,-4.681549603199258,-1.6095445400142516,-10.175113793088052,-6.71079816077599,9.761420301897054,7.899886760747151,-6.249097772677796,-15.486346040909545,-26.296398822184667,-19.99512840298079,13.061754143622075,27.559052666258317,11.150319579455783,-8.684139127934841,-42.91239307709766,-79.98230323234368,-87.2899829116814,-109.0748351413505,-153.049116647794,-160.33704550692053,-178.11126565978398,-234.25429658319337,-241.8843432058434,-115.31845604588793,425.292911701899,1388.339356943282,1632.851430949073,386.2642421991606,-911.9866076972148,-844.274961229624,-288.7745189443209,-248.3263830109456,-257.5530477494427,-67.90268124208156,-50.25374175067316,-101.14062849980483,-22.064912683271462,16.797569037549774,-2.715319674153296,23.618509481494577,24.462677398993296,-15.559481321428335,-17.830799785955833,-8.73588458910536,-26.26344652720795,-30.980262372819816,-14.9015558155929,-8.545693567018692,-1.7562480092907347,23.596720068740424,49.06115278944701,65.20885195913952,79.85019096946819,84.10854705286233,81.9071180555527,93.21524483633436,104.16027459950612,92.80770237249429,66.63821389978338,31.560792836649007,-9.181002411308203,-40.77730224121772,-62.42555466064307,-81.22101857149308,-94.02077733125671,-101.88390424756825,-100.61536708685557,-82.02159048386262,-64.56881580196173,-59.63897325774897,-43.11402359583879,-16.29401725067708,-9.542941922578372,-13.368939291380542,-1.2606049444151601,13.137698200323502,9.666446586314384,1.173182842914084,5.563574448174805,14.072829623689874,9.223656701529743,0.730920595097583,6.429934100821594,10.023823249978133,-3.0637501160333738,-8.304564396474094,-1.2639746549392186,-10.619198787004663,-23.973405724075022,-15.757478129277107,-15.03934246197479,-32.09617899629418,-21.23783651482739,10.363930436720967,7.36924345409205,-14.285461220038584,-7.107847295181275,7.705015223751948,-2.410790478009332,-16.887979485596894,-12.343100573719783,6.792520254110427,25.67305132361741,26.341614979707792,5.812624236680891,-26.40581174114204,-68.10313374636165,-105.3669093920647,-125.21632404360075,-139.61972785303303,-153.3443881086718,-177.34574861620024,-215.94763917671196,-227.68960515329633,-175.72605618300332,153.04934096395152,1022.4285513481497,1723.02770652722,1013.203038975596,-521.2615723984684,-1009.5979944080168,-459.7743380793909,-222.76226837889126,-299.1878578412006,-122.72570393761401,-4.431459608781239,-87.28696952978899,-49.76775569056531,19.357413881208604,-30.853092779290172,-38.772218314716966,3.294308187961704,-0.7261998926197997,-1.7905216358007436,2.010701449435775,-24.37436452294488,-37.228943751416004,-32.46541580534579,-35.541197600050886,-22.42191090985799,7.070335770174084,24.95868703249819,35.89988473112093,50.62655972259684,68.73527042918482,93.33498311904623,116.74846326410261,123.95421376531266,114.93381550615807,95.1735078888516,58.95647420610079,6.927987351443855,-38.62735111641623,-64.63417392065534,-83.39069764674767,-100.05089656245737,-107.32005124131408,-101.15684366675598,-79.3139489660881,-58.656176134469895,-56.447456680630424,-44.79249618005622,-12.705846990001106,-3.3840338568536907,-12.485862669890029,2.6953391821904518,18.91113886337278,7.795657481536399,0.24316791698954532,9.28940489707401,17.36711722176575,19.364602977686864,8.018916227527363,-11.152221389993215,-14.61009746250669,-12.139154215463073,-18.30049861804822,-11.656937061034935,0.6733652349159769,-11.290331300551866,-19.974295334369593,-1.2193580638590458,2.3972885193564437,-16.549447984674707,-13.689989257899285,-3.64552424108739,-17.73491486924955,-23.205493611712516,-7.1574333031381805,-0.7407256722020996,-1.2218251053227824,-1.0125576627570183,-7.448834868353874,4.466500038993035,34.475134468826035,28.60012125004205,-19.908528969747866,-62.47082028932249,-79.64374054554267,-99.75159530164694,-143.41832241591405,-171.4377276661031,-166.32954221132871,-185.4720775290964,-228.28687020961354,-228.42760377688236,-7.569295626406358,753.1079832798649,1648.420728831722,1360.214201409508,-150.59929567908594,-1038.757143310391,-623.221545195107,-201.8449127221175,-276.5679680550073,-215.5875212528971,-51.05556456365656,-81.12143456685604,-84.58437232534374,-9.401024728331489,-16.63181734802273,-15.160606202119013,33.951620708521276,20.142017764578988,-16.876124554727227,-5.005036504044668,9.132925063644208,-6.276765747896199,-21.544491291571422,-17.969087533044277,-13.977752364667635,-16.374381735193637,4.1430805695208,41.694013471958144,62.82821648607221,83.57243992308855,110.19484313384285,108.48551842145959,94.75742066598096,100.86678822063813,94.90525273643028,54.877072081663194,10.765367003717238,-25.169152922038197,-63.562015087766625,-90.35310455054896,-89.55847682999438,-83.07734410964497,-92.43422842294285,-96.35699255888565,-75.93852592464057,-53.103368186396935,-44.21238327349251,-32.189597371137815,-10.024126701181697,-1.2237089525692184,-12.790762046237283,-14.664419980062384,0.8106692816361161,6.388558329347623,6.4283017259400985,16.62199112102035,14.565808699661186,1.4360301884444837,2.5488535560072325,-2.978573753428506,-16.897782075827756,0.7336568396752572,18.84534734646535,-4.428875865567004,-15.100970190647402,8.31672496182053,10.569331260801526,-0.7598382909703663,5.326465710279479,-4.525265409461763,-29.58512080809374,-22.84947784721891,5.198710819201054,17.434328863213906,6.318113301169841,-23.86400994259654,-44.98657913012627,-30.914159995745177,-13.451613589252556,-20.053819650460547,-17.35529499929488,10.459599793266914,24.944617036014087,5.27590298858183,-31.47063073423118,-67.42935704932532,-88.54356147521707,-101.04277090681443,-127.51136888930509,-149.30102079604163,-158.2810648601845,-196.03487845938886,-236.01170626182417,-222.507365715227,-33.05901853255085,666.4525382410646,1612.1367616259245,1497.675215198164,37.963463901100994,-1008.0296239628074,-700.7965358581248,-227.13098383473283,-268.0634697063,-229.93280173857585,-46.232957763388555,-61.788027946395786,-98.27474858291926,-28.341858566082358,-14.145204106276871,-23.595419359125962,11.00120104441121,15.380211169330877,-4.265296630636705,-6.009708116186754,-10.084171138022155,-10.43848081676329,-5.891090401697332,-20.75227710647305,-28.373787244775418,-8.419614110724737,4.9395467299015685,14.241423803462503,47.25193013689538,77.31410293514294,86.27903109915466,102.82821690366082,123.74423143474779,124.28083561482774,108.29439533485059,73.5492526203558,22.227336388057914,-15.789445594571895,-40.41114273590897,-69.27685813901711,-84.63494138680372,-77.93903564365074,-66.92251276957109,-60.12433662066467,-65.96095063863864,-75.41331521824526,-60.563571397467676,-38.12458906704656,-30.38228118514175,-9.132643016957317,15.744615617573036,-2.4935926792162704,-32.029795481111975,-22.92391029915915,-4.4073244273050065,-2.1997912725557,1.1693203209992546,-0.5911154945300154,-13.120772131969748,-10.69967173221886,2.1514948120723254,1.002456956889251,-1.5316643554346356,0.8016443314258481,-8.039287291945328,-12.715180835011193,-3.768553510528246,-5.345823637545102,-7.29296467749691,4.401899460214441,-3.4670411619860033,-23.041641563859827,-13.994153975368135,-3.854842804849369,-10.798501758513497,0.8950850433645616,6.511440993888087,-24.673325186834948,-30.399128415419746,4.416684628741489,7.489375629212574,-15.703924559539939,-11.876777698526162,-0.45535933828926645,1.0892947951836245,13.607442498831306,17.105294320045935,-14.60355217269906,-54.636591479654555,-77.75705283364968,-101.84398897945329,-138.17667848232935,-150.89964887682314,-141.26447993309927,-178.34802110928206,-242.85406314927252,-253.83204560290977,-109.09552346087176,512.171064783121,1503.5118784688846,1627.3667075286867,291.82804874622684,-919.9639202193498,-759.5637269876238,-238.2248874360886,-247.1451820081121,-252.32802939425687,-65.9699359398457,-60.60207465491429,-100.87020360552906,-16.267988504326286,14.567682894931227,-3.1489010031853084,19.982916625734514,8.07570453538814,-29.580344732463928,-27.96972288134772,-21.819757410242204,-22.841392019581114,-15.470697218056502,-24.176857102713136,-41.917037341631165,-38.42983762209871,-17.138914203954265,12.661222934531107,44.858068137467626,70.39291018408417,90.8473048404724,107.1757872969994,119.99495427948429,133.70818937464864,133.30003670305436,100.08613468521102,46.28346195436495,-3.6949614081412836,-43.23624228025489,-79.94646669086397,-108.88182658316171,-110.51236033291691,-96.18637849624548,-95.05995217441671,-89.22016877751228,-59.54994672173256,-39.12101578325839,-36.084060608914385,-22.148285464173803,-8.497990948522975,-9.550316699249187,-5.0152397043573735,3.002271594165329,1.7256226643365586,5.455645256104916,12.533429384837007,7.137019997507515,-0.2746621814909034,-2.740050419265774,-7.760257608768608,-5.999209298826489,5.578501857037729,6.361663470288672,-8.57266302107864,-20.069127094334373,-15.70723328510321,-4.0876207986480395,-3.062634631648157,-10.231995390536312,-7.145598527751133,-0.993790209367658,-8.051174237664364,-12.392331624155394,-2.0627020134873604,4.060852294426507,-1.1592110548225207,-7.624803393082569,-14.422494075817797,-16.49945299520611,-6.646063243713338,1.2918070358992608,-4.2268616623167805,-9.740560528233736,-4.832814739867803,2.512998763382078,6.4338296410836255,8.509840957905574,7.158804845675338,1.5830951737643666,-4.8970474004255315,-7.0421922594074,9.469993280581868,43.96074158349191,50.76322262870163,4.515110979086755,-47.93344000607976,-71.25879294549804,-83.01569909042772,-98.24465871018714,-122.42787769485187,-151.15269943447953,-174.84303750044876,-207.0121897155161,-244.27334398287127,-258.3298907892731,-93.59021135961811,600.0264530947522,1560.0505984497186,1513.2402731834784,127.250401086185,-934.6139123899551,-680.973182631227,-212.19598277294034,-265.7582390760569,-273.8535009573432,-92.5896165005826,-73.63551706926833,-99.79655954785298,-29.984009614900383,-13.905498511002122,-36.25712300624633,-7.4462553957033535,10.180577591046065,-3.3964489759304115,-5.952572607877848,-8.551665637340022,-19.328938188612426,-24.04363879809802,-23.480993999771975,-17.432024116034775,-6.529722929400103,0.6569917981239968,10.688048962018243,38.402816985948064,76.34340750988501,102.08549703734727,113.32081868302465,128.04561920663315,145.05865399040653,137.57888591506477,96.92463172649488,44.54329051557909,-4.593657765378276,-49.14383132595434,-81.52883190650329,-98.06795355062937,-105.13583753803537,-101.63199444926518,-86.86625736158035,-70.7893687861105,-56.448485796936815,-40.70308582892525,-26.748576637847087,-16.4734508931952,-8.663845385586786,-2.6849458426879558,2.8932373859633067,4.327918008510579,0.4982932257780206,1.8990442303819943,8.008465684511084,5.529066846741291,-1.7162824930490501,-2.580152598898234,-2.3506952259958656,-4.734152100793141,-2.478475623231173,1.6324339053621202,0.18701557594103058,1.2187133059821988,7.708138518477168,0.6067062748535008,-21.970766147797143,-30.0523614703027,-15.805736038698459,-6.880008158586227,-13.235036363023529,-16.105814805917312,-7.320517575625059,1.2161722708867497,4.722226001517088,11.994694357346104,15.638441495936625,-1.696780084428326,-21.810251092413544,-18.569062792637066,-9.257711458151457,-8.786920240543878,-5.1923454011836405,-8.419293861961684,-24.327490156957737,-24.224567870336372,-8.950565013556837,-5.216565500423204,-4.371027741755155,1.959617516418497,-0.7288641060246768,-4.563141113329031,0.3284276529858019,-0.14778857430490078,-4.948533592162612,-5.807665971068737,-12.883208416210397,-18.99253613426322,-5.513760461781139,11.227273912238932,6.656322915565088,-19.749535490516077,-59.6721238799888,-90.44596779384321,-100.61350599629756,-121.79820096347936,-151.89483486711433,-158.22303920227793,-180.5557027764856,-241.37433898202613,-276.6549460744883,-164.17805816098095,390.42780849462304,1349.0529503893783,1639.2808063121129,523.4420187363685,-744.7776760686074,-781.9719759342811,-261.2542801568825,-197.5916925346867,-263.6389889658767,-124.62992045906091,-77.49321503925157,-109.86623822960806,-40.195197490047676,5.472211288726989,-12.544915941954248,7.4733428531056365,26.430514721085284,13.71052681341701,8.491973960750165,-7.985057422479635,-30.649833104270407,-26.111738214788115,-30.677117255159988,-54.8878709680628,-46.32296621099661,-12.226701508036369,8.696494388963405,30.76921276783355,58.54390996081899,70.29965887207817,83.22391394890178,113.8660130653768,135.4945338629289,134.01679590607034,113.69499433582583,67.86300794157016,11.716107765499867,-28.439797994997047,-61.29783608842146,-93.13528828486244,-105.6474198941665,-101.61535385747493,-94.2059818678973,-78.13491536040459,-57.554249866507305,-43.09220592435683,-28.15794719784024,-12.168845409223067,-3.6372591897993694,-0.5191214094916461,-3.838389935992865,-12.12630939193728,-8.242122165637834,5.312626906710619,6.117169164041645,-1.5109770690606794,-1.0188131225045218,1.5012064448033016,-2.338284948186761,-8.509876790975174,-12.841409683214493,-13.003014682851838,-10.784111059427062,-9.897144712862698,-6.6684075473931586,-1.4748059092779222,-1.9751583770676362,-3.7892390487983345,-1.0535072935772671,-2.462473992818701,-7.7193532275046355,-6.585949132627142,-7.035078531069541,-16.319574605824556,-19.88857904700259,-14.564851847245254,-12.400855718920937,-7.729428272448722,3.787578273796033,6.009203074593975,-1.2826213778541984,-2.6207012850623936,-1.967515899431909,-5.121151935069399,-5.968077228412735,-12.323172453864892,-28.63284879382695,-33.123547878142695,-19.748905928262307,-10.540082639995864,-9.588592177286682,-6.7815913931322225,-7.186779148723895,-9.212054049212245,-0.7649705139904359,9.49789914144676,11.262645917786827,13.04687587660221,9.426222448976606,-9.260671180099898,-21.748526456555876,-11.412692129865459,10.641337055094267,32.15384695196832,30.071039283036125,-16.710452697070288,-72.70909038475187,-88.04754341865382,-82.95601720638298,-103.23671593816196,-134.76651217357406,-153.50044469539225,-187.24744820939725,-236.25468838371984,-265.1127536221586,-205.25809114771607,241.0462823349264,1177.0298906546295,1658.284451005752,741.8428572162757,-610.1673147547212,-845.9729288158373,-327.6542192015728,-183.58544651854743,-270.7958494121595,-146.33219304615977,-57.025228002958585,-95.63786528163017,-60.31132517411784,-9.09382152225313,-19.2307544045363,-9.25772981567383,8.523509808978861,-3.55769056988645,-5.9161106542858874,-1.6138185685842554,-13.904123115699466,-23.100342763608637,-21.681323231827548,-20.584719070745606,-17.375734341208663,-6.968634487587541,8.615524352879797,27.849859276983867,55.73321712685126,90.95813968728184,117.50749052894291,130.3868825779306,140.29662195613722,145.38360550417323,132.94205305744939,94.03149158559629,30.12374088018106,-34.1216633646315,-74.51841732045293,-99.35218941287478,-116.64271149566292,-114.2634959523095,-97.1826626600797,-82.07394922190389,-64.78888093701308,-41.4796611121845,-23.7734408134533,-13.801916236965575,-5.686191824437792,-1.1028591886242616,2.3064925181777554,7.281087697149861,1.6314984684776306,-15.323130631886503,-20.654882118414914,-11.52684612997842,-5.852523297478882,-1.4111779286268629,2.2190168103432306,-10.83278706905233,-25.623735777826763,-18.340169904132424,-10.606854554930546,-19.31274501611019,-23.339601290399653,-21.172897147287536,-27.12268259574178,-28.536264021919266,-18.98782652000712,-13.894842345349375,-12.237414465238182,-7.495673238671181,-8.863782448391817,-14.097610080000909,-11.066366782379582,-5.247165717803139,-4.420280916873409,-4.563691363512909,-5.254527318047298,-7.304034832935859,-7.056482586235759,-5.85343879435235,-5.090625293417791,-4.285412644870563,-8.405626633849462,-13.451921483428915,-7.688064857765154,2.001236345590626,3.918402817526516,3.410167325603311,1.9026932761142525,-3.6600672028042345,-2.2514230302223,6.610399130673512,4.611434115500133,-6.2129075905875375,-7.7769466443505495,-2.7369686375469158,-0.9902458395902869,2.096978694798344,6.7854325496931995,1.915063855693532,-12.524680378002461,-20.816536862297525,-15.562587513650247,-9.703086454267956,-13.458289927711153,-16.982505179624887,-9.58197062413765,5.5308481829425125,19.072766540874248,17.83841068866353,-10.064866396983447,-52.232746902273064,-73.82763562257338,-75.05986977977378,-99.27696049734375,-137.35065457105443,-146.29826651997632,-162.80444191007837,-213.35476941941488,-247.74709887518475,-174.8913329145198,302.8293450096298,1249.2738878372097,1650.9692749174733,624.3400268045859,-705.1956557415654,-832.2923187537415,-299.68706200537497,-193.66345983610736,-256.89176682877303,-113.13759988600354,-51.35256061779231,-98.11606526763187,-61.82091000011491,-31.673033011623133,-43.183925643188516,-13.832345508208224,6.196252188215636,-7.870664341988757,-4.269674650009545,-0.5360227938202371,-11.728665797826025,-14.899343494834792,-19.816219980884107,-28.371794828951423,-24.133999032504754,-16.105524162413296,-6.880517187853386,15.663752291560035,45.84729722535191,76.22722658654878,104.52188571125981,120.6780906767404,127.26808473490269,135.5827328733925,131.4095049054577,94.8938989335833,38.654505570174884,-13.949476632374235,-57.75674799111261,-90.0664691361136,-103.43328369843074,-101.29237616266187,-90.71757964488052,-75.36385445264112,-67.57218533909673,-70.69525401603342,-63.683983976319475,-40.76601914013299,-23.122967524004196,-15.61912363660548,-8.247963114652396,-3.9829579508073962,-3.733698918116371,-0.6564772109018548,2.9380840756646514,3.946047393183523,3.1535530625289994,-1.648308704908537,-5.350649597998174,-2.2956646947322366,-0.37178462331108264,-1.4836524765715389,-0.5570757784043785,-4.443023223868581,-11.08263901320922,-6.094686490675549,2.450490413526129,-0.7431925645999407,-9.389255759826217,-16.249437028726078,-18.94215303061665,-12.76079476117576,-4.786667781564242,0.8619509282113658,9.270035775172968,4.569475427416407,-17.781439479371254,-22.315888283724803,-5.436697295651545,-0.5113097846460839,-1.2085937064330352,3.3530075284704743,-10.343085645774824,-30.098603170502848,-22.90878561569131,-7.792707849248993,-6.215783029890481,-5.600938525205152,-8.329440854043362,-18.097240249163434,-17.175609561796392,-7.546095857036764,-4.182197376943547,-3.257865174148227,-2.909807030484812,-6.33716520819047,-5.639415007143107,1.3904968089681198,6.230607468868424,4.00927368343031,-5.1590393621612005,-13.27069913041204,-9.906076050920486,0.23107361984991215,4.697574361984115,2.648913921090564,1.926255487670863,4.632647819763417,4.730057766330985,-0.3606419144314188,-7.458744021328087,-12.806491758039616,-6.399931234897851,13.99766609723997,20.367653014933687,-13.388510997172212,-65.38013932495606,-90.59498883838812,-92.27043277027181,-115.11177080502179,-148.69832264131657,-154.7236727136713,-169.39743989801391,-213.96033282520008,-241.11379869939694,-143.53425610874433,389.0400110069919,1334.7960276425422,1609.4886556946294,479.92063217517045,-775.0310875440265,-792.6980451586187,-280.6917501248106,-225.97325730080624,-272.88921699759055,-115.96019132582373,-69.81878100250694,-105.2064581497692,-38.21762458205136,-0.9205280144077506,-25.825619709848134,-6.145174791608266,13.127638404096935,-2.621538957848326,-2.0528321183930345,1.5182924458642333,-13.213310256259291,-19.221248932293072,-16.411210222136138,-16.018735268411834,-5.31576342895178,8.189765664732215,5.131521011750094,6.679758709683181,37.79179077218776,76.12297217869279,101.7964777695389,124.01607792438546,130.53626321341937,110.31675280370746,91.8891512883261,78.41855982590532,40.88411382994721,-9.07039047623124,-48.44359669246334,-83.89293657365633,-106.36504704048019,-101.7587674918127,-88.4085241547286,-77.72652922517672,-64.25835683571451,-55.35974537707052,-50.13868696198984,-34.31649440927635,-12.7712913222665,-1.8134872806155897,-6.858868161760498,-19.540944519464738,-21.314856132239136,-8.388489456513561,0.4970305000979742,0.5712598449445743,2.7443805871127296,1.778804131682712,-7.729105217845966,-11.175009329359836,-3.5816679946554757,0.9650595077952033,-1.357545462254052,-4.428821482118501,-9.42983151243418,-14.163124116923203,-10.473177573408073,-2.552205672613308,-0.6411225861954613,-4.279497483094504,-9.426365939908182,-13.829872311929797,-13.506092724404372,-9.072704963471553,-5.57553757482844,-5.104406458642684,-8.997837351293466,-14.583084706235788,-12.81083162937861,-4.656948890108204,-1.6361548658918874,-3.914779224532758,-4.099805857751679,-4.071862163029532,-4.955260033478776,-2.0460762932180607,-0.02784415440172161,-4.169925972213354,-5.388986834997935,-0.9626452265336596,-0.3669093738680065,-0.21693874577803918,5.741635191030246,10.024034840657738,11.470613768508972,9.436826317783314,-5.985659387489807,-19.929677386578863,-10.950325873729671,2.458421120607788,4.28686935294299,4.246821082275048,-6.158051151462821,-26.38281511797573,-23.495482778587633,2.4823385159167515,23.03449561936176,32.12647415773723,12.080594255994063,-50.40265802932089,-96.50069055195482,-90.48979939976346,-98.99629041492648,-137.77687907197736,-147.11931576699868,-161.7619932962105,-221.70095338791742,-262.69249266723017,-202.98237170499283,219.37635483981535,1139.3280617768494,1646.2859202073582,736.8491897548474,-646.778290642718,-893.0240472988646,-356.07667181403076,-190.06913423546717,-252.94515893582428,-123.45497027809247,-54.63925089432604,-94.85991872607076,-41.827170480360785,6.5378571391063645,-12.93530016628057,1.634164830892928,12.815251621721405,-15.63122380871626,-16.30121815054957,-1.9185704576494906,-10.34800074067722,-16.82988629734944,-21.98874010675398,-34.00833542858407,-28.515676189650307,-8.463628546355897,8.06892240225188,27.006458013627935,48.36600727946519,68.01689989900227,92.95905237323319,116.65220681089882,128.76741620909948,133.80499781847195,125.9521554101385,92.35171165064861,41.72206856183474,-6.154142486977182,-40.02332283127499,-62.938881105364004,-86.80517863052086,-105.65005822541578,-100.46359402059926,-80.13348304460622,-67.1570474275709,-57.76266234600326,-43.36406188485892,-33.47506075988625,-31.00308855299399,-24.881392154111403,-10.964946654545347,3.2592651183531522,8.047340377550576,3.719277721327394,3.7393332636148404,12.150591640271056,17.139810883844238,19.32994346813738,24.28187213224033,17.036379788497065,-2.4056925883397007,-7.3510197197883524,-3.1467309643931216,-12.875789854409014,-20.959778097332645,-19.332668333197287,-30.95858498363047,-42.98934735560967,-30.46073059310977,-17.28447873621543,-18.720867705578765,-14.259176444238626,-9.311044510413268,-17.74731768014769,-19.503190469465945,-6.836061797698882,-0.17169821833521226,-2.1434674539730274,-2.5821877341147648,-3.87718942185127,-7.51174425615784,-10.910459616910313,-14.953855328070663,-15.098883806254136,-9.56569210796642,-8.077246277818968,-10.172996573769804,-7.105675639648009,-4.18534637306777,-4.4512741882955975,-0.811051795621827,0.9247430405572796,-3.867328378650285,-3.014220341572452,4.146625562298826,7.1563416739716095,7.003936393784194,2.665376295702721,-9.00525514779785,-15.356999004216007,-7.851388366941492,4.286928202877496,13.438974401994848,7.680459128052297,-29.915628716080608,-75.30391495467109,-87.80077801875395,-93.1479902503629,-121.10609604591053,-136.08722004327575,-148.8696613961601,-198.5643592088596,-242.7553986102392,-219.4463413608857,102.10043796142708,970.1696068466365,1664.8018759598597,995.6120188499929,-463.68112584963114,-950.0545176287751,-441.0220650643615,-182.60724578828408,-252.4017858769679,-144.28495540860234,-50.72731628967367,-97.8014638778256,-55.94711570601818,21.12484857824047,10.239001129261439,-9.708527916939538,-24.136310438850252,-48.28785505960321,-38.68861020032876,-18.239153340337225,-15.440886295868086,-14.434768179040677,-26.311084657499276,-41.79324142444689,-30.575407917406025,-9.999047682310083,5.646830797559657,27.686787932111397,49.08630978500604,66.56744968085584,86.79220785875611,104.52594816927135,120.36317644933902,130.13998062760095,116.66929346504904,86.67329841285463,53.37535930736411,7.70957247106358,-43.048205679272655,-76.38273083040751,-94.75075765940815,-103.95466568567798,-97.45988723452996,-82.972472251937,-70.79967678664862,-57.50897671383525,-47.63093359522996,-46.74295613929263,-39.24427637475995,-15.32887425265423,5.0069199021487485,3.873541704372446,-6.012630955498064,-5.0225590959962005,4.835516266871004,12.924873751556449,17.28135649839367,16.02175660134324,8.232079701747217,1.5553164399792312,-1.188304236008758,-3.178376164481616,-3.0020377846624307,-6.074236575639883,-18.228976290120634,-26.093525259590024,-22.941765108637178,-20.99140805985609,-18.121099366146005,-7.07837044768503,0.45582081642667305,-0.4435243850404724,-4.000059823863001,-10.247898038958608,-7.717793457519147,10.429058586004665,18.650914323431422,6.8790150373574015,0.2367254514954844,3.279708037642269,-1.3910632130761869,-15.816282656738771,-31.079834875957637,-34.11473698431982,-21.04654358982494,-10.335724317313357,-6.508941118100751,1.864899229013627,3.776553401473887,-1.2152190197294992,7.344716908942479,14.738687492059036,5.47186859378613,2.9062604850612868,-0.4965443783921266,-36.29480663193139,-77.1934769601983,-88.42392474168388,-107.34378740709542,-154.0647530971375,-168.48694693982395,-155.96229785250694,-192.30814928488005,-229.7481979719139,-204.0860354485365,-44.621980629181394,594.0970483394508,1551.3183307416352,1522.6884777803039,98.86239323777545,-988.6539611349073,-717.8396247810009,-253.0626851379547,-289.68769250708874,-228.70070005607624,-33.203288464708024,-58.257199747789656,-80.6244527175269,12.27963277757738,12.318392954755879,-15.916327969236237,18.12403849212302,6.052929445671721,-26.266901096582213,-2.2804407375051667,4.304006345642083,-33.95665205786838,-46.058642874407795,-27.353553390974636,-22.704550407768288,-28.33728743646574,-12.543390814133225,24.45585871617176,54.74031675602539,69.7431939009603,85.86159696962878,107.340617072689,122.07563721470589,125.30533902655343,119.68783324383361,104.92590755137294,77.01204626284499,30.66652504511886,-24.89621728025049,-60.15408793665198,-67.43507028424196,-76.88533191499133,-96.1632333445757,-102.16494722832273,-101.41557380037369,-104.66268476173221,-85.36269975981509,-44.48877047281165,-21.524386624588004,-19.2059201006832,-18.311639774613557,-16.54307794369184,-5.092262294503527,14.607923162138654,20.665185844937497,14.15518805081268,3.054313175580983,-16.472133086705767,-23.845281112807942,-8.707567903545673,-3.0575118505575283,-8.628872589609138,-1.57160933199172,-4.387610629969263,-24.842748598948784,-20.221441058379686,-1.9669883887593933,-11.323379583725316,-15.437015576919649,2.4118927310315605,-6.903607222019993,-27.856687047565053,-13.02637662071954,2.4303013664758755,-5.807793067725294,-5.547521753612253,0.0012888144561440384,-2.532884740745139,-3.465580146414048,-9.041769315306254,-9.154250965381696,9.486316953842785,12.370243990442024,-6.797580938109608,-10.560245596564776,-1.119843369602279,7.649665776746418,16.715433099990598,13.432152993917203,-2.3482121504329783,-37.19506953901666,-95.49484518070716,-116.27858928714875,-98.00889451158656,-126.95265773571779,-168.37132232974284,-167.7819050328978,-192.9634121139496,-225.0230923795906,-166.62880619955004,158.34101511635663,988.7236749005663,1712.8370862579748,1070.2456015722591,-489.4876534584205,-1041.869539484422,-459.7541927545484,-183.6900743529758,-322.478060739332,-186.8581108259466,-15.54495910821359,-78.77136574131748,-70.88666079744634,25.03428806858505,11.307675173589303,-19.386657414173946,13.485305279758883,18.918528615611983,-12.981576865016017,-13.561259013772865,5.1270536594958,-15.651692020216302,-46.61431764521996,-19.76423202891481,28.289011135685456,31.401517368868603,8.037109569880126,4.323857379930239,47.41649002417259,109.94570526532955,118.65538510444412,101.03679893284064,128.89448762211964,136.3592430893919,85.01359655700436,63.943000344307656,54.40992927967381,-11.826274093457847,-61.00923867610706,-67.53648621231466,-100.94517720728105,-121.93878786743606,-95.63868997283791,-89.70038315070111,-88.30598135898822,-50.794685490350815,-47.348105860067946,-74.19382106562433,-35.67426497160664,23.045186968135717,1.618860527938736,-44.61123601754234,-32.42115804802735,-1.8923300003258028,-0.02931703905579397,-1.7453509884634322,6.8746274370183755,12.907361572423316,15.758567949521675,5.93378398348106,-16.333196485677732,-17.246106717722746,0.7813539949782378,2.710244542601501,-1.2555506396184022,2.8998288325007504,-3.3258328303683022,-13.74084424794081,-13.335272396288937,-8.33964848731155,3.6884786562707426,11.260634923060291,-2.2637338647579597,-5.942238078025838,5.684994764247261,-14.037721219137385,-43.903068901612265,-30.231267216031583,-1.0538854183572965,13.547273579758999,29.250569354189388,23.3621072136822,-30.020941572980302,-86.47891775810453,-102.4765869992687,-107.5822589587413,-136.66843592620515,-152.88430324486146,-145.24418583723246,-178.10218213704707,-224.08364832918622,-201.80456384649204,-18.982887433271685,624.2434655474824,1548.5379456996438,1499.5835173707997,71.00815370131372,-1032.9317147236466,-756.2622096421344,-248.5672283876761,-261.3613191059702,-213.30088443309077,-29.245750131241493,-62.58773081407709,-108.09461241430853,-26.48166683415941,-5.32803977184237,-14.91865882714142,19.36725644866071,16.97359214481326,-11.854126543088586,-16.041263479086915,-14.71333106035016,-9.053549429577048,-4.720076181906499,-20.848618881008314,-31.68287927479947,-19.598269678113546,-3.8092109788025077,15.491254340203358,54.757266505120356,100.36492938010284,114.58628208074423,101.02038346879236,108.25969142505156,135.87840618363242,131.82203004242405,87.74402164637517,34.96123488887823,-10.309590687864466,-45.4535311551915,-77.6603393912016,-106.61814633956921,-109.21044083260531,-87.31092283015508,-72.44524827980493,-64.66412715612205,-47.145663650087414,-31.579255532014727,-31.338408669871512,-36.504375240385926,-33.595781592232925,-21.45415997085331,-8.127455776813537,2.101829707649742,9.147558260782674,7.945685037343289,-0.08910605559689344,-5.2725452198803815,-8.80862928518735,-12.596541476217244,-8.968334730938096,-1.7969146274149708,-0.42352913162814687,-1.934981961821208,-5.192557799154827,-6.748146308861555,3.1267510005423773,10.010985427644062,-1.5289444315101264,-8.048153678485178,-1.4603833348020423,-8.793305206875655,-18.8528770630457,-2.3711757396770707,14.078315111470516,-1.9979547617397344,-27.480107098416266,-28.64363060800028,-9.393918517052334,-0.9357334443212366,-16.57290056653589,-26.203325107848094,-9.732748751479864,6.987929149592739,7.576662051439397,-7.630975168982481,-51.14395138547732,-96.7892214573191,-107.92366427341078,-126.83754109051655,-169.3618372497844,-178.83046841867457,-183.51987875195823,-227.407527430934,-256.7364919633775,-175.60819157619778,313.3090754326606,1297.4252289813505,1737.6977271422297,671.3659513306652,-747.7541788657496,-904.0724784579754,-345.4779465661147,-228.9267080565813,-283.5243389856324,-113.4610185302663,-45.34152098728461,-99.62933522200645,-39.96396903082186,20.570312618084465,-7.651759610838994,-15.053575857443217,11.591713518938084,26.616276957865082,18.777880796198367,-14.456170907933215,-36.47745766411131,-29.042124360669582,-25.648418979791586,-28.071784599803287,-20.95735154814386,-13.651080470852097,0.08574122006343288,31.882537053420172,65.1116263839618,86.14642279668539,106.67557227357145,132.35290397529872,139.73953614556203,117.4458699270218,93.73131250475396,72.96645003790285,23.564609479959305,-39.041902003034835,-72.92985861913309,-87.4018039720803,-99.22773134249563,-95.76863561946158,-83.60400253042442,-77.39643034712017,-65.10103648324687,-43.125477975000706,-26.864261434580914,-19.0079210927468,-15.034870598369622,-13.089837358243535,-5.7693838709721845,4.975057339955182,5.949416463511614,4.540410646227887,15.364054707243387,19.47581513855729,1.8738403407517357,-7.748678339723245,3.0609076713318633,6.978632624968348,5.652389022179184,9.833803165591362,-4.708418868927538,-27.525159196001795,-20.784164330726277,-7.131225037326502,-8.087217418322261,1.2071389033972473,1.5183690943795014,-28.708379564398488,-36.83379049086983,-11.374357786190917,-3.885904710679725,-4.459995508433842,9.009831847466572,1.1016710224696666,-23.74441567246583,-23.754114041808464,-9.467613297415237,1.793599093713329,17.065452496000688,22.712701830344084,9.371321846183724,-17.55324372344455,-60.81511701232113,-98.47806811167743,-115.85421184945946,-140.91302747520714,-167.718092746225,-186.38416989949087,-230.9952407424896,-282.74890572550237,-268.06912191980706,29.465336577592154,884.469705886094,1719.401513059579,1258.5455936488001,-253.71678958879218,-985.0710910998849,-532.1434066037347,-188.47457073048213,-282.77455567452654,-207.96769396845906,-56.07082037485898,-88.46836025896859,-85.12022209309414,-11.768113374286376,-17.72604642583631,-24.549184568235454,7.726744540630614,1.7195829287249609,-13.96628124949023,-6.1205252979579825,-9.450129637298385,-19.367619635389836,-18.628949297330678,-19.030460063909338,-19.06120884304101,-7.574776928683593,11.002851559925897,29.36616817719887,53.65982222043806,87.3075904238044,115.47198376651559,132.06714252151977,141.62470406717148,130.8412323931449,98.00071033305662,64.33210646784579,27.77429301995378,-17.721888859449628,-55.89558091571864,-88.95938141737437,-120.76212667843498,-125.93705822022164,-104.80861957675367,-86.33467530061945,-71.84726845322446,-55.065024469091185,-42.68614050249748,-28.69468787472038,-11.668441214904238,-3.55406367615506,1.7544252631348733,9.939747607880655,8.089809808688205,2.204392856092241,8.70864872766406,16.411867371785043,14.666909176964452,11.28351796275031,0.689406383928933,-21.07576877951907,-31.19545950280729,-21.66688554786619,-13.215363975947131,-10.936612413839303,-8.607022217529167,-13.92575126163418,-22.139550370804173,-16.399154488161777,-5.785858300120552,-4.829758078762847,-4.856508159460068,-3.8486485617574715,-9.294665035645973,-10.59814134415544,-0.7797768282785675,6.358329144225166,3.8492594893089436,-2.0198473636377035,-4.478224647444549,-0.5974046050267905,0.5081645718453913,-8.009985685849646,-10.994604962228305,1.435476042286977,16.555220965304287,25.260556229465834,19.928279234534585,-15.352155484359068,-64.18628843955977,-86.33250739124453,-98.9550876598104,-139.1916046302157,-169.58960091821567,-172.00200154656832,-201.75702092846478,-253.48199988046096,-262.0736486142472,-39.83079901643822,730.823689614577,1648.2496137492992,1435.6300423483349,1.0729190069617118,-938.9868800743266,-632.3176797231949,-216.64526533995397,-262.6072448347167,-234.24681446251503,-82.37331166714868,-89.673501446996,-107.35929517893243,-46.14714361945469,-32.89379342708536,-31.878454412804643,1.6286882617810257,5.180831016127385,-11.204954406777688,-13.62523136332991,-15.944400774038094,-17.66162124738503,-16.327293734418628,-16.01836934775856,-8.616499506719668,0.7720022559729651,2.992732041171042,4.871065888965272,15.535258400973424,43.73463174330588,81.70175780378929,103.2348405658468,111.1902076657675,124.97378957158786,126.06785366257303,91.23308977047476,36.359277466617975,-15.591937306682201,-56.084983558242754,-80.05836260653129,-89.62244968881933,-91.67457613536834,-85.70268150631124,-69.37596343395175,-52.19737681578511,-50.586514460386596,-59.455408623415565,-50.76371844647637,-22.314949082714584,-4.756225722289535,-4.6024441491078285,0.9922495510886797,15.543232880317962,22.067927296594977,15.763603496872395,7.952294495786131,7.138155348573935,4.73249282405374,-10.949600669988605,-26.63214607084662,-21.408061015927885,-7.878928296211814,-9.681349596863438,-15.57346841354427,-7.242349127381189,1.4455538661258949,-3.3974158208814202,-10.333707434067854,-11.44895274391587,-11.99399974864312,-15.331159162436654,-22.52538628901527,-25.738262729847122,-10.868671575997578,11.745973010523807,15.619662384482032,2.3620603103865996,-6.396932863774204,-5.017204634113105,-1.1977669356610363,-3.399282811082669,-12.722483235361054,-12.844069078161619,3.109777254891215,13.358717625511174,16.33096154075205,34.480694167794006,45.508160448139954,16.64516940551451,-12.049450754957238,0.4387604655619022,16.4153411594623,5.32155047143816,-16.16035123650283,-56.746554933805506,-112.94935945456734,-129.8616834414867,-119.71332812957235,-141.2897238727827,-159.58780417407988,-156.15595821538022,-197.33002644172632,-262.5355407804125,-247.40382156750974,58.39979294210855,881.762182648512,1643.7473559468833,1159.6140334586025,-285.10657392563843,-957.7769341417786,-513.6728188898393,-178.80530446427585,-262.7670602287873,-199.3963853302196,-54.55009914673798,-72.10266698482431,-76.62606269213643,-21.400011466642948,-12.029352865462855,-4.116960995945217,12.200885545013591,0.31042261133392124,-3.447654334031654,-8.72961222894482,-35.433297120050085,-31.92969362508576,-9.324696598451407,-21.787921012131584,-33.51640559925816,-14.409952599470953,-5.198623005408075,2.8476343984230326,47.92884219923525,91.01953730357504,98.817090395934,110.4889551519428,133.8630894120708,134.31101831582987,119.14638353113412,101.2007881096796,58.09803376652476,-6.325103905590571,-54.052916410272445,-76.59038132591465,-100.90308833860634,-127.02966913864992,-112.02738156964124,-59.78168643016849,-40.56592934849849,-56.96738173678145,-42.775178074075605,-12.222656833238418,-13.87631225227124,-14.323948066386876,6.971552555449257,8.269420404141826,-3.880030834671153,4.682166314338975,10.47072028141993,-2.0056441319570766,-4.296085979152874,1.1795500216741885,-3.9620715215965454,-2.468009253148164,3.1887432334680845,-15.413203648178534,-33.41594418472393,-18.161434489817765,-3.9194379894308184,-9.367387753733688,-7.586654652970214,-13.175426975483099,-37.55878828736536,-33.63166038030241,-4.713005042265046,-4.435783740536348,-15.598651915657499,-4.4126236198930755,0.9384922030652554,-10.982606710292785,-13.203268707174635,-1.491914196183087,7.610197711607562,-1.474301771617105,-18.508095704183315,-6.628481241651574,19.74541077133739,8.781018530324783,-18.500191862959177,-18.932490101534334,-16.42471701487837,-21.310741096959994,-4.025029493558721,18.16008702231752,14.829378708171859,6.520040657870126,0.005276712989445542,-26.966811582219915,-42.450023850966836,-4.773844372099271,31.863018866424696,8.898231643566675,-29.377982679334576,-44.61516251384496,-63.88168219920985,-93.4044303456404,-124.49088256764264,-154.55515544347725,-168.33018197368358,-182.13520356671214,-208.75074344665177,-221.56797059394333,-125.19730057047042,395.25169451497084,1324.663025034087,1581.3175471110435,440.74415736685046,-806.3265724185894,-804.8529513942566,-273.35333945394564,-196.88549152187204,-234.75317909699208,-92.07383695276829,-54.31197660871048,-82.14596966024465,-17.137000486897424,13.0799982282511,-14.099926693813167,-11.625725209993837,-13.493395707449183,-24.228063354363595,-9.952089075607429,-6.256061050060257,-23.184874425882935,-30.884683940873206,-32.11631852082326,-33.50537652016074,-33.74967231017916,-30.851808855665045,-3.0069910817980734,46.05203442540106,70.45317034790166,70.8978308175361,93.6403054522462,128.6259942653498,137.4727894506832,138.62318564124678,143.81353405287103,108.62813568712583,30.695689869439605,-33.56383691016532,-68.67427227267359,-92.88827352985571,-103.75374649503004,-105.33874692701063,-105.57830799353259,-92.95585719699686,-74.86555720431141,-65.45856635743377,-47.80233278939535,-26.532097418135024,-24.899273884167236,-15.322747733350333,17.89742311505264,26.389258939811796,2.492693028631823,-5.695170156300801,3.262103307181018,4.02172620148132,5.3201552310828575,9.095566018823993,-2.320376918001493,-19.121139352806388,-16.723025860305597,1.5458671553523953,13.608306799483216,8.45387585858413,-5.438768903301696,-12.936483689285296,-11.304364411448475,-7.860024253969991,-8.208920263186503,-17.19117491014978,-23.90125318420909,-5.961072060134541,15.622900469700866,2.3989998115484035,-15.658466766604672,-0.9957955536675378,10.863603243357424,-1.1096494873315592,-10.282600449148617,-21.867172490453527,-39.923397544304635,-34.20864959933097,-16.531309066981894,-15.722923108066855,-12.382328621747817,-2.913542894528831,-9.574562304131735,-13.383075271516622,4.089646600665249,22.0179426506492,23.48476507849737,-1.326157105360739,-38.35927650756319,-35.874159618935046,2.109128354460198,18.498491891018322,22.752207844395684,35.776669553594324,7.016896154536475,-66.33654502390027,-99.23925118243395,-77.1194692959879,-89.85820440230857,-154.64931704243313,-180.0260591495008,-168.85600441170197,-204.87375266208042,-256.73674231026814,-235.60246355866985,70.96655119581482,919.52528559694,1674.6819720154638,1104.1833119029359,-374.3250780688438,-964.6536210093668,-490.28110380060195,-207.25119414873544,-266.82013898812824,-145.48682831215692,-33.23744438894613,-85.15668393336118,-59.26540890746353,2.1704661376136976,-16.48709949985338,-10.717874812645352,11.148940582196861,-13.157081151299906,-20.711515794361823,-2.4770486237329763,-3.8095333862045617,-14.299438463126123,-20.63621833513837,-12.679715355262028,7.673138424268674,-1.1237551727723876,-24.73712571244213,1.3627982249322663,56.857141722257694,82.72458205941467,93.47227486199978,119.47393776071685,146.99045355396365,160.31322367805112,154.6481376469492,116.23299396810644,44.999786238657066,-27.127449595439884,-72.35828585826107,-93.48456971495627,-99.23538352677086,-94.63043173812473,-93.30432462144707,-95.45849501023073,-83.89634375565662,-62.44759842701022,-47.41169081243566,-37.357688461278386,-27.952602330549784,-15.740984954649193,6.242878601646005,23.835533856933125,17.784130684206016,4.061524308917882,3.9349483189554064,7.1715053376955264,6.304271143992583,13.147723724105937,16.172885741582363,-6.773765956576355,-30.33756590223784,-26.727709897005155,-25.015807539390295,-36.315798138903176,-30.551285961846332,-23.97085569802234,-37.1351740881135,-30.935144022994592,-4.976717631384009,-3.6788728533442168,-10.966204935310223,-5.740368919987976,-15.694313848033111,-30.819579536541273,-21.24837411236814,-8.34200913634626,-6.51483852538037,-0.6187498389905137,4.709860593995019,3.531958732705416,-1.4795461210550052,-14.870023131224343,-17.88084466739,3.032625260126304,8.955802684970932,-11.520536047592195,-10.297365901707156,14.220007576304385,13.468634922957165,-13.052991306555441,-23.90716797614095,-6.34552229544051,13.56005999393589,13.932786561319125,-5.199170784347242,-45.68729459255107,-92.64273185715905,-110.22736268363872,-110.76727008444115,-124.95324669249052,-143.37826008943134,-176.454251309356,-233.36612312988703,-266.10718753327876,-110.3411702325561,554.9347605258919,1506.3857543860322,1518.8811910036318,167.1279904993148,-955.0516524176973,-749.6648613821577,-241.44507594121006,-233.02471744077175,-214.7819206400173,-44.51242819019507,-51.45974805382846,-84.93712583680028,-8.03435962349527,7.464918223669798,-11.957282604635619,26.022612387010106,43.013200914244706,14.287163656387275,-21.06249486410977,-48.97377273945717,-38.38453817742426,-6.732030058889752,-8.61602447711796,-30.164906228308947,-39.33832001678414,-27.882094473776164,11.713725722189572,47.9117007701177,53.73828642663787,75.01271269463334,127.41976440834432,150.6295534381906,134.1969901708688,122.87295563131671,110.00646779513123,68.21804105384211,17.859022405649895,-18.80674108448327,-53.253708441555005,-91.44180398168699,-112.99894759772131,-104.01356861422528,-88.64590339024797,-90.8869069559225,-88.26094649454595,-64.53506937703949,-41.315616550803156,-19.342840466835035,3.55529515601976,-0.2950499014093495,-13.801125959604683,4.237203539617624,22.533067643012835,5.269734933461468,-16.084289361238024,-16.10117680237121,-5.025244884884568,3.943008052810928,0.6623489930874626,-4.746979105878641,5.628126048538883,15.773653570920018,3.1146164757021424,-19.820676942517636,-28.995980833179004,-26.97627232070171,-32.49467047558399,-33.134178143813294,-7.327186002980895,9.582028647495676,-11.49204248596672,-26.347750696940167,-16.062864804470934,-13.579822185251587,-11.253680144387818,1.3419809749857805,-2.934682406311584,-10.52902532421522,4.397814463119409,14.90148531535857,9.287356461927653,1.6023400711483156,-19.104540366855286,-38.932971423444286,-21.601045377972447,10.83922119474322,21.480276690061505,23.170253250752097,19.158993966345328,-18.22512364489127,-68.63496287005312,-78.66822012703052,-75.79689577218991,-119.89992320366676,-174.28719682849118,-200.25455828522277,-226.6938949919465,-243.14070276670304,-205.80534907956854,89.52514562449517,924.8074352205722,1694.3880991792748,1142.2391822827371,-372.9541968110557,-1021.7972983723246,-538.1920000990626,-209.33490357739709,-271.6090233871058,-171.09163374561388,-44.48039180079975,-76.11225650052768,-43.83405362569576,22.813437088891252,-0.5609001817454313,-5.8024895954958104,14.301143482218373,-11.07124193085792,-16.367532088869893,7.519183661133603,-12.510447024242342,-46.191319573905965,-40.61288907328493,-22.74133687693713,-12.293514191041016,1.3579393145677727,12.477185127887186,27.112950631579945,62.897935163091674,93.9297367170213,94.70129182805182,100.64213872821904,129.6626652629684,141.7639209943939,128.00788754608266,106.44525434788719,57.21137267210884,-15.475559549719794,-59.423409745934094,-75.33382897856838,-101.45834452401945,-117.0663857189972,-95.0582418735738,-71.4518120810004,-70.69657238518832,-64.47162120319757,-44.23618958240665,-35.147455265671944,-36.0615698859698,-25.668068726006304,-8.590139474342365,-1.1639109855498688,-0.42980725362833283,2.88505328988839,7.161274736627302,8.605193052416764,10.11374920935972,12.043020861786516,6.387574770941258,-5.480848204735892,-10.969014208551712,-12.681199832226422,-18.76349547748742,-19.604126520686922,-12.991339624198059,-11.309977044469452,-12.355690995095934,-9.202888164326932,-3.545969735642572,4.443369980344254,3.671328373159767,-15.895917045441387,-32.83917424845512,-28.985461947926595,-15.342453782532424,-1.5567203629027553,4.607220680382255,-5.006728596432463,-17.93849125828835,-20.243206927551533,-7.931143087898629,23.147274198601096,45.03991091768915,9.041384919557949,-69.87707460226082,-116.05015657537527,-108.40725540835867,-110.58797242029598,-141.01213095579539,-151.97289999865734,-169.8001441541321,-223.83344004529062,-248.93919898351385,-183.302873140284,221.13548513610613,1163.2537071083764,1750.9325853207274,836.586726251973,-671.9981681763225,-978.0050610877418,-395.4111072138895,-216.24601250713593,-290.6799194675988,-127.82557601950818,-38.53954142231228,-96.23602441792919,-39.667456893963376,25.283491747980445,-6.783095204857858,-11.451164981766814,9.429669937706898,0.08658956774193882,-10.428008371296638,-19.86484970045663,-26.317776915978722,-19.412914383216954,-26.15112338544975,-37.12308819695845,-23.27831365381082,-2.5859625733463254,17.288972550456002,43.127381083164494,62.74444979989341,86.95238880689021,122.98290586565834,139.86870225249478,138.7747100346276,143.47754030393884,129.73900992509024,77.14006622941835,16.173617078835456,-27.755864383042955,-57.048557132970515,-78.22778290003659,-97.54281855572262,-109.094054333115,-95.45545431936557,-66.34854446794877,-51.97466369540284,-49.876133918880114,-41.13535468413944,-33.66487527663048,-31.326604864476238,-22.21266053897964,-13.720510848106613,-9.206956443275434,1.294204627180413,1.4605059634820847,-14.872096541308522,-16.492379466425778,-0.32835620772809904,6.862963516574947,1.5599578278746904,-6.151534936202825,-8.834050667600149,-6.364112121412415,-10.335043121955813,-15.090676401423579,-3.8557595659374293,13.309080783455524,16.49266900689102,-2.254274762599568,-28.01678698628865,-22.572836530201336,0.9900748475407646,-14.205136783043766,-40.11176031639544,-22.19787231033698,-2.828152104018052,-3.531462117412996,18.603870557224987,28.54217934071403,-25.144358044289056,-86.14219253549044,-102.76611239060054,-111.54268426074417,-139.90896358065368,-160.4068516691988,-175.86113084921908,-218.9189172661835,-247.06404399096886,-219.95677604693276,-47.16325549301558,624.1501177744628,1604.314003696013,1560.4529721526555,83.11983943713604,-1038.338376608367,-738.0170543219521,-237.4916246349338,-281.5264675982963,-235.35051682847055,-45.10350851200312,-78.89232559567543,-98.40483896996328,6.840812965312999,7.224174934783164,-24.12675035185046,16.57566461270411,16.689671282403957,-12.19603947696059,-4.7044845984655375,-7.044758286803013,-20.846372438309746,-12.890074469807336,-2.9069797407265265,-2.393954368815506,-4.2759653947925,1.832357246682701,33.65795380024848,70.61856084748514,81.11769995861549,90.53209644969019,119.85074374951219,138.580160973991,138.57505932884698,133.59637131304274,96.6222517337466,18.527833161435993,-46.126719294982735,-70.16982609868614,-80.43737395893902,-89.97294352736306,-100.1735915038804,-108.59640709025253,-91.38281073974949,-59.115546379998534,-57.90659637893968,-73.70765076438965,-61.92699382828869,-37.183368915504154,-25.012240480687815,-15.940207384548927,-5.515449596053724,5.590942520643615,16.758131448256588,12.010154358464884,0.31400563021465544,10.815601987792963,22.073110603836835,4.472482429169101,-11.328571257528735,-4.199973733188511,1.074307635690353,-1.9289670058226562,-7.21793598726391,-20.74910100392553,-25.033839813181228,-6.359672897363193,5.8816449031551645,-1.802655868350449,-6.548026047255103,-6.722009709611449,-14.188301434743558,-15.420791355874492,0.30230438493580714,17.8331366611998,24.353180055954812,9.522689782447763,-41.26950228399161,-93.71545082558926,-97.86215966852929,-100.99176393227843,-149.2275508230206,-180.80810909051692,-188.5509573212429,-218.22627924893686,-232.42852449954376,-161.54476630865588,263.1351989809157,1223.7758259409295,1783.882692587344,820.7014977246045,-686.2552622126051,-968.9475200383586,-406.86196822395596,-249.03977984817442,-307.3363771056373,-137.89149824184443,-55.52486164139043,-102.34883005800576,-41.387929049995904,11.027995505421416,-16.56028131657019,-0.709470732749887,27.834403930891924,11.687724920811988,-2.6297227769864726,-9.981575411224203,-19.682238454024887,-13.479069558028161,-6.075914686580132,-15.014126977021071,-29.988626228200154,-31.8878201083347,-3.817543979158579,32.35592253136771,46.983896825500096,74.43321658469712,127.1400753207626,140.8771452692502,117.3532973824256,116.6398586274214,105.40199620009686,45.42510516526217,-8.273430167392313,-42.75309419387118,-91.15949843589014,-119.65231024484484,-108.41677925035125,-97.893404728485,-90.40497405189339,-72.65258530397533,-62.834696161545985,-52.982152774785554,-28.208093560975644,-14.3082594609061,-20.97261519297033,-22.14789921053538,-9.810808540249795,1.5886542761832771,3.9595880471125717,3.6106830995389387,10.506997488899238,17.196954282093404,9.012589154662932,-3.198483306030699,-0.3541200032228602,8.132233519411024,4.708255237710237,-3.736676808916549,-4.173226357574144,-0.37957752184911975,2.611563628476885,5.357856748072013,-1.9791814521948865,-22.085734141041225,-31.234156734139212,-20.106431047711634,-9.290915998374828,-2.573809276644589,8.514780699975399,9.304154831566157,-16.409192932716785,-60.01432260858334,-90.76832953142402,-95.94998897562803,-114.83367358519921,-152.9960183117512,-165.7031483168094,-184.4937594115985,-234.84464590133595,-247.86541226262915,-124.43412628593802,426.5548952307245,1427.5059452720695,1746.0118067267108,513.9999920604447,-883.6876282298261,-883.753046211491,-294.2138568703842,-236.37326108584492,-262.78344456861174,-68.31658186765794,-60.229893309804496,-123.80379309522948,-16.743829729267393,27.333586593561904,-33.258948287174654,-23.15749979564813,-5.615709854958068,-33.40404008977045,-31.917983949596525,-20.529753164676887,-30.30328295337236,-29.011385447504395,-17.576637676331668,-11.403368112425692,-7.399799301606535,2.3714233110535154,29.31033173510138,55.883306466749296,63.31855357319223,80.14011648019688,111.71896013860938,124.35283717637425,124.69039070389152,123.00757313648573,89.92766523149865,29.65005776207265,-21.762788288011794,-62.659951556031935,-96.97970813855073,-106.84700405912211,-94.42397932187279,-84.5891119795134,-82.88695888912976,-70.821562119245,-45.190627148713695,-30.29390246808859,-31.921498292985483,-28.17677616498657,-20.048570804729515,-20.931539972096903,-16.87039394583009,-2.0077549651067237,4.306942931208329,0.9853321779267148,0.53787997457815,1.4205953235444113,1.5448050997145373,2.1531860330353556,1.2046538852983701,0.37532158582403596,-1.9680494356847653,-9.920734592144205,-14.505526700238697,-7.862698011273341,2.0075241651875935,7.08233729872339,8.401121037509043,9.638425887872945,6.691881924884633,-10.409176519859777,-28.61505159883856,-22.737462719811617,-8.493926157230831,-10.019838548005094,-2.663803737166706,25.016114512971157,33.12845169265017,4.016574200511485,-42.50281003191297,-87.67595754051402,-118.55846741449955,-140.27881867552213,-155.60716745639934,-158.48553076070996,-184.71279529734676,-248.1764497983346,-292.90100298073537,-186.1262200283474,398.041331314699,1412.196003313178,1706.4733418074088,510.47586222164864,-825.3739162880222,-845.3651676948017,-288.33143866916276,-219.43096694481153,-273.75435246957096,-113.41953588835668,-67.25671583087833,-110.35100610195994,-42.089586441507045,1.6002156995352053,-21.909113395796865,-1.9327624704095072,18.80146891689421,1.5759843838362801,-1.3586200760267246,3.2154050707028503,-6.3816877455271666,-13.080816006562593,-18.305966339409714,-24.16927660754277,-16.64970255014194,-1.9038335667702668,9.813058397005403,29.710340137753164,61.74378087854328,89.87520649410794,108.78927178319088,126.2703435886663,134.8250467377569,122.95603744523062,96.47701322117078,57.03412660716739,1.9797133442744403,-49.02855563559085,-78.66494066332515,-96.06779606885699,-105.95267643952897,-101.2916060892882,-85.84129620730491,-67.74253089102695,-49.88377017025876,-32.55920897443783,-16.122882560355293,-10.106251510395573,-18.743128555887587,-22.737656942458237,-13.390990672827925,-6.692762040332447,-3.5135689185179793,3.341122016260826,1.090317855191401,-12.521942359726083,-18.33681840789729,-13.750793886338649,-11.094977626816764,-9.24105914430325,-3.796912286508377,-3.759550262267183,-12.254565218611308,-14.627582025465202,-6.508086004129867,-0.6995335857084868,1.8175778076905473,3.066860087342585,-6.045347526740734,-14.542895052032996,-4.911168776111946,7.022518091150298,10.216349392740103,14.457501685432943,4.787325743203468,-25.469941952062236,-38.136916319600715,-18.65386691359032,5.3448887959086715,19.48096852689511,18.464702546277728,-4.580684431665524,-39.80166950008578,-71.70223852265858,-87.8760796569261,-96.984589007174,-129.84002098362214,-169.21563570522784,-183.1841866272544,-208.7705650409899,-259.10793499820505,-271.61697151812325,-61.42044424064986,676.125623136336,1599.6071124592381,1465.9954791484383,67.11170497385149,-928.5513480050887,-644.7295240775782,-195.18392651966425,-245.71142189018406,-242.43782890073913,-81.61928006997859,-79.4628006520288,-95.5585214537162,-20.49855499639119,-8.144508092632663,-23.6841240783518,9.160308227837294,18.0128000105024,4.202785634591095,12.088479011402878,8.27884770108067,-14.068310163716237,-24.772953442385926,-26.525755026282972,-23.58691059840899,-11.795093457208187,-1.6537599220804662,7.922470468241324,32.760744373167455,66.14923866627485,89.40941283581375,105.7983157696609,122.87414533984308,131.0577481490181,121.77344780632205,94.38621534948592,50.2779145017982,-0.21195965229892244,-44.87584821462583,-79.39011542238293,-99.43488736825842,-104.92057062374684,-102.61196432773033,-90.89517761247262,-68.74570382199724,-49.83174238044612,-38.471518971659066,-23.11525879269366,-6.7304548408862175,1.3127142337550097,9.22622661469665,14.72675001331041,0.15426473133692653,-20.380517440683597,-19.865072368429885,-9.77864320781351,-6.702340863107231,-4.253032122946234,-5.768136427409534,-13.835248223513087,-13.953630152781344,-8.629017355441949,-6.133127370676402,2.774918514072766,6.346118594630557,-13.94831533164077,-32.02806731878236,-26.187843395080737,-17.970668470665075,-15.079758262712957,-8.050717036318616,-9.034642687964809,-18.19508886629054,-14.837852451333431,-5.060341835407094,-3.066575063457803,1.4761037816421165,7.517045575520477,0.7554378304059739,-6.011287230199521,2.0150716142762626,8.78474488090794,2.249661024127871,-6.597022257784566,-5.32385476359099,11.577901404917162,30.235077759655624,19.933066988142752,-22.627705216192854,-67.42164350324992,-92.51680785906123,-105.4240356971809,-127.48747697316583,-149.47750533051624,-155.98862552371727,-183.7436877101709,-239.99678452111243,-269.343248050065,-151.08784594005374,425.9093717946226,1393.7646873647411,1626.2147265534247,436.28827978323534,-818.9241053320325,-791.2765028218009,-254.71346846826452,-199.63765591045063,-246.21947960153824,-97.32571055812838,-63.78500055616601,-97.79662303772777,-25.94592442687514,10.12333393445628,-10.09641974095825,14.965743315738647,21.73014949315788,-19.01115115853149,-31.039728907090176,-17.00702374974113,-16.783674340087916,-20.647053488887934,-18.32978131366758,-15.801702201587014,-10.441977748545764,4.887128366403806,26.77424660947593,48.22180156472709,70.97625764224564,88.11462793482599,88.81130032890007,91.40118988137516,110.20987632797178,117.99712760018033,94.4964464527452,50.36611909076633,-3.1100505562905596,-49.973780702335496,-75.83058842810617,-91.93173115272269,-105.21092468661013,-104.64930803784989,-93.16683183601594,-77.16499056382602,-55.38937139009804,-39.337827263941826,-31.722982370303473,-17.390084606836588,-2.992014789590275,-1.262407044756948,0.7839080131886682,8.998817380059943,14.320272691257443,17.672506029569973,14.260921089467537,-4.014369985836453,-21.328451030750298,-23.31615180217812,-20.58412179619567,-20.718652235117126,-18.73923247408755,-14.538921343845502,-12.279461309047512,-13.317919665702775,-14.459059639120508,-9.709200080180274,-1.7126663553989303,-1.4079512651671244,-8.376679091561588,-10.4034749452426,-5.376025312591306,-2.8866658161873104,-5.200579113054001,-6.212942785139196,-5.856619247093597,-7.160379894312516,-5.786680317770767,0.6788026392073636,4.845131598723123,3.484581607994903,2.1660301997262064,1.0647123056257968,-4.208181737578062,-11.10636923335613,-12.066779859610493,-0.7391836362181294,18.03807136238236,24.15963144931044,5.611795034579492,-30.500701240192722,-68.22357586859937,-86.06440130617435,-92.4878076252805,-120.17658714034764,-145.52446870264401,-148.01223498649608,-178.2519690441878,-228.2072758652207,-234.46585708370844,-53.15472451958408,636.1954306104466,1550.5626364988418,1435.8971683495693,50.40944921473934,-932.3573036492396,-651.0772121890964,-222.81829986805556,-267.23163690668224,-237.05952837419696,-75.35402902228758,-79.11069479848805,-84.9369405348786,-9.23577835782692,-4.378386742738563,-16.95114608275972,17.907516159563176,22.850776599431864,3.5070898741092513,1.570445210136338,-5.62431718605356,-24.534277092059995,-41.74984002050775,-48.04897005359613,-36.54564100552914,-24.97005561830524,-20.860898064366534,-0.9139232216372477,35.27731734510205,66.54075646196456,88.87007826781057,105.27070966889053,116.22874171172154,123.22287592176818,119.23317014925075,94.31063448160978,51.27858741283639,2.145701457339432,-42.77254948345839,-76.58488792508011,-94.65182796969222,-98.28307386490786,-94.3557114896014,-85.45692249659945,-69.7738875112277,-51.69127868717153,-37.708331930993,-25.443809924653223,-10.739514033036272,1.0476150938864563,3.6748878051431646,2.7795558487144625,4.892631701976562,3.760374328853203,-3.2184979848582884,-5.326487322956563,-2.957439517867403,-6.777760297515361,-9.93442066327848,-5.098181454245703,-4.720853741014835,-9.15754042127394,-5.851979440657773,-4.72010468710517,-14.317332456846263,-18.382370696337873,-15.034167360176141,-16.313949549978936,-13.491608629605649,-3.0690182793006926,-0.9629656380954366,-4.4983941793392255,-1.9756251965182798,0.6887060203307875,4.765490892768343,14.295981308202013,10.293707594606682,-9.63057708512534,-15.837402086920711,-3.146620890661689,8.63001941696879,13.969542295955822,7.518248868522704,-13.507188445616528,-25.956662631412534,-16.002328188348088,3.3384058367924716,21.46436272381381,13.776592069119635,-45.61544589127847,-107.94981193460418,-113.17463255922998,-109.53218478411918,-140.3737559740835,-153.17036266250776,-157.9638772935469,-207.52578091377865,-253.06380456470498,-223.77569702529166,102.78537236734303,978.4830830054536,1700.3571017390432,1053.4970636495977,-435.243779756065,-972.0055576910752,-463.276326928893,-177.7418152775732,-254.80835650903902,-165.210812747369,-63.94692190801061,-101.33499231373263,-65.12887610769236,3.1582759403555016,-9.1139866260161,-6.947039354509894,15.492782441247956,1.046874273755833,-9.19972699533001,-7.975986514975755,-19.01815219298292,-21.483928061551183,-19.88493828620827,-27.56669377888743,-21.74475057173641,-2.957217710654877,9.957744579747693,26.695625229414926,52.46460867907293,73.88818233610152,91.8293871905029,111.30943178930768,123.44898573814575,123.31894037047232,110.22860264327443,77.232538725712,30.518189435908788,-11.303449124306528,-46.11204885464407,-75.98908038560998,-89.98470516717661,-90.81353582166929,-90.82843583943672,-82.38079384025326,-60.26147020352484,-37.27275742046895,-20.797268728350055,-16.94082408594531,-24.660196299274876,-18.095187570188735,2.6367253889512554,1.7984159837861071,-9.452587812255594,2.7662064800938495,12.515177729881641,-3.543829150943644,-13.823261616726276,-5.263060493826373,3.4883276009158664,3.9784758456698412,-10.732892643258815,-31.39861520195602,-31.18735922939806,-21.02190298237648,-22.81135877945783,-19.383725007378015,-8.966653682033794,-12.706273932687779,-16.234919640338198,-6.611858550273119,-3.845702292117899,-7.585179305173369,-4.3403830482928,-2.065601091433745,-0.16608189321829236,8.421074966338818,12.640295006982612,10.584047150307924,8.433461094221062,-3.021142320723122,-19.153194042077022,-19.937888483855183,-9.86829418495447,0.3338172654504614,14.071452157209242,10.043474764231343,-36.748187406064716,-84.43797091051367,-91.39261166765957,-103.25197965248765,-137.3651857861686,-147.55489223576853,-170.94220133289318,-236.2715308298648,-268.5047678634725,-205.02248133643997,210.16183618640025,1162.1233487805416,1726.29532118641,797.3544579241113,-665.4516129364196,-931.2131478295242,-363.31033447840434,-194.33324130104913,-265.7853373556685,-128.6381827924997,-56.16349788043374,-96.4592735688019,-38.725778898042805,11.953872016357796,-8.350421820415647,2.129690881990003,15.390309077704853,5.445366688793214,15.041900187875001,17.640801847431028,-1.9013474604631533,-15.762917008848168,-24.53836639980005,-23.037316516378773,-13.140362372146846,-13.585588737140354,-1.0554893253622009,30.535552745981008,40.15161695728163,41.82299834320762,71.75480812344392,102.67282313147324,113.64542796106699,115.71590450361754,94.37692169978962,48.21880742768147,10.15287994760032,-18.16214246683403,-53.342259198485465,-80.71282466943406,-90.18782451164766,-97.45567544096048,-102.2868484857556,-87.54666284686013,-58.487990932335066,-38.657432228598296,-31.94543814723962,-20.283529362461763,-0.7429365478663037,7.6583507645751006,2.294161150785154,1.3400571559517225,4.736944498077889,-0.9823734147447425,-7.523850825296215,-2.958806678876684,1.4930987598149343,-2.0761785527009273,-4.70884848938765,-5.030319951882099,-8.264040812106256,-11.64519219530938,-12.470754653543743,-10.134103800641865,-3.8497057385669198,-1.5148907914704708,-8.12427019268779,-11.876191740274736,-7.017842481759262,-3.8397490191106183,-4.960831773506614,-5.390348095978538,-4.19177618218988,2.3667167959819686,8.756916764558735,-0.22041669599570568,-10.873631882484837,-4.641741117231657,-6.166748407111967,-18.650512179173933,1.7330931510414418,38.374026816843724,27.331996593787228,-22.259923253164978,-60.45862735850865,-81.5644218661701,-103.83353584047804,-127.17886990116506,-138.79155053720754,-159.80695656483772,-212.23505620076673,-255.51950420798983,-240.77500209595877,41.10978433441238,891.2817952521139,1708.3464052517584,1188.14723599657,-356.3519540302269,-1051.1934708888348,-571.0425412375732,-226.92378565634974,-283.290869351242,-172.91873917426233,-43.141964239876955,-91.05147977173849,-70.29277853638814,-0.1464422019744589,-17.950540226846634,-13.608685822281283,24.42528243115507,8.020356011182086,-12.923376418189754,-2.709482481544036,1.04013487168897,-2.773200319366431,-8.924913995903502,-19.45288106344067,-19.802947202571477,-9.068335105620555,5.428036941711214,24.558507689190677,47.54054429004158,74.08080800972314,96.39894470141394,104.34122422216825,109.5282513764426,120.82393481586442,116.6298194584971,78.92590842382127,24.666713298933924,-19.742538061423996,-54.768329437138846,-87.94082087444271,-102.19541305908459,-93.13600956112728,-86.79340117872124,-85.55177954180174,-73.11204606243479,-54.30074719159332,-32.09556756075081,-12.1369445230739,-13.483619853266973,-16.794811778239882,3.8479544367245353,17.115243270385243,9.954818213056827,12.856183903578149,14.030822773082823,-2.4919582118160992,-5.930239572332976,2.0793987095588573,-3.0600748655751016,-0.0660009186059547,15.908082980348677,10.497761116056875,-9.957699465888684,-17.902736641525678,-19.12817821354715,-15.144396732177452,3.0089314353251844,13.238037423824471,-6.06941645739521,-31.19220456113331,-32.25493588109893,-15.62149893702022,0.7576638359579135,7.964596997092098,-1.454707511717583,-17.718720165123063,-19.288234273357347,-14.284552860300348,-17.473697890767,-12.60943576696961,3.423284032839204,11.902042048820498,15.142049113702269,1.2661365317484652,-50.521218908381144,-91.10430751531752,-93.53450575877719,-127.46447422444263,-176.20280675154262,-163.88115612187087,-166.68763581609008,-223.27847961166177,-232.61650295651725,-120.05097245606015,397.68208790683167,1387.0590758354529,1704.7257715199196,467.1239341974031,-906.4276906408154,-877.5107880600424,-301.27072001554114,-261.44497022939925,-278.3051212619138,-68.84987245506001,-49.65698690438802,-116.1717663670088,-30.216436545895707,12.91957865843034,-19.723832470674893,6.885391336389061,23.130622978760638,-3.407109079786405,-1.5073570507856076,1.5330165286717214,-17.237368216177586,-16.601914839277185,-3.8795100666995195,-3.458215220162169,-5.413858136225434,-1.3827084953552387,15.106155111535145,46.096345194770336,72.90483488113169,87.10089958300352,101.71085979844047,120.15128025414268,130.2149215944248,117.99508058026086,81.36025859259006,35.39359569544395,-7.735444295828462,-46.546679490457734,-75.92029879379967,-94.06180721574617,-102.8684566383279,-97.02757879564149,-83.04497792320083,-74.45656388375716,-62.64070172224677,-42.30169095251833,-27.70663963973282,-17.20666395218788,-0.9140727482290494,11.407191781227436,8.93988191841737,-5.428610865284487,-16.24054428713998,-6.553110700451175,9.366536326654657,6.162699222494954,-1.4832950085629761,4.794984905319538,6.858568261279721,-4.497235335181106,-11.789556753210968,-3.680611925552281,11.5815780550017,5.991891163107923,-27.23431157222423,-40.412347983578954,-15.499807831721208,-4.058628381369132,-17.59214684651728,-17.853469778918313,-12.965416605697019,-19.25505631825003,-12.4564005438382,2.504915077800387,-3.838532133467517,-17.266590393408087,-11.883221017727763,6.850386493195554,22.730440369437705,16.878784876086357,-23.73565942169158,-72.78719915139789,-90.79695144014048,-97.70206059888572,-128.89491082759412,-154.1540492270082,-168.2509675423172,-212.09640582510184,-248.7070180197654,-227.4005681101765,17.645682974042188,827.839320204044,1735.5040842872804,1361.5014243226528,-209.8068309220972,-1039.6028008501057,-581.2271635870181,-206.78004734120987,-296.0937668389953,-198.23767945708855,-54.15225633310919,-128.77924800508856,-103.67818106867487,16.650544590432936,-8.584335727027451,-41.73560905101107,5.643621023494454,3.611577284748954,-25.866993204419312,-17.540450949359617,-11.508928406005747,-13.982995392927627,-13.883971585980614,-19.877913449330727,-11.139671714457316,9.680820444200084,16.445707608103728,27.747771868226298,58.07882664738007,85.7248093111333,106.12862343721093,123.67165297369664,127.87691138562298,120.62495547578823,110.88225306216395,87.16675249142763,35.072993748005025,-29.81248512903523,-74.80236627244032,-94.76814763856825,-102.93281990859836,-94.45220925187692,-79.37392487510857,-87.37972662210245,-98.86588357339943,-78.0450933265198,-48.623278894939375,-35.26003022556178,-22.82583167056856,-13.172719382953186,-13.860480674813175,-6.841216556741447,7.764910220549176,11.717246347951741,10.545284113428298,11.143636621124823,2.6141005472691,-8.753421681313492,-2.577295713827688,11.224260715254642,7.393744382587583,-5.8118382846021355,-7.640400273018798,-6.487670467814702,-13.62047598848134,-16.874027198855202,-7.955814403587384,-0.18847774585028887,-7.300351253529737,-18.412924807202096,-13.396890316677014,-0.9690856793659837,0.8870956044293514,2.4835712746482415,10.178748237774254,6.89795966809276,-9.11759791034902,-22.98781851504858,-28.733772564066555,-23.2047558544855,-4.342338444730235,17.476778033118514,24.11998554956905,3.0575465107017283,-39.70628955135808,-75.6799834327112,-88.74852076327885,-107.94920654017542,-145.87364918221544,-165.24190731000633,-178.19568253781875,-219.92408548338744,-250.64667011070628,-204.8523982935211,156.89915056611972,1070.1963921178667,1774.625920664725,1051.0705523923298,-482.7237775552972,-988.171304829573,-458.41816283534087,-205.17633100375397,-286.61959545118515,-152.71614158932977,-29.884316146923936,-79.54172745321603,-59.67375822856772,-16.328933972771786,-49.49274281846684,-38.893079791794236,0.1256537550699779,-13.09506702890392,-20.48866014675896,-6.229286810597905,-13.461801549221718,-24.146088083693474,-21.265970447244072,-13.414652660966455,0.35426506290875537,6.344423225144385,-0.23219734616421484,9.999252452513128,46.08041621845319,84.55097861381715,110.05450966130569,117.92295088369251,111.95556147398938,106.2811039966852,96.95018211044419,64.32726593465173,14.433756145429548,-28.407570233220856,-59.96107018456213,-89.12925424795797,-108.90629008198641,-104.38817703416034,-84.34768468252031,-70.77757646583463,-58.73169860695093,-37.002745175527664,-26.650238887900272,-35.93453843416927,-33.70185826714247,-15.198000543807797,-8.780934690589685,-11.780023994473535,-6.503943060787716,-0.9432002402777755,0.4796491476219238,5.572742682728222,8.026301277604537,2.8425846167720756,-1.2667984160678465,-1.8332161979330976,-0.2564640833501084,3.4922309967697753,1.0681158559028212,-7.485993446109761,-8.659703563544264,-8.319485082367883,-19.72447873640921,-26.8648396847631,-18.045717641453813,-13.528368698539499,-17.836203576501454,-12.193651174783607,-2.5084214576233137,-2.793504749862482,-1.1729510993189667,4.263235071502699,-2.4188251878902722,-9.363188785507923,0.4394724189134962,9.112981592861765,10.652512144587416,20.870577278709003,18.15546794451048,-15.571175299114898,-33.31303819639532,-6.806449607028565,21.44864829685918,24.798000797630888,11.949179973408969,-28.75685937124314,-88.88337376972817,-112.46281050625225,-102.45895108305484,-123.57771215374505,-157.96009974342252,-162.99128456461443,-194.5291485890184,-265.4739807706788,-289.12217034606346,-96.06081400494455,619.3029648126216,1590.8612861496963,1557.0624817000282,160.70051248179516,-927.5485534488548,-677.1638963752912,-200.48429004512417,-255.81198354452758,-259.82541512926963,-78.68565645888607,-79.03073608412558,-114.23074866724849,-35.57589372850741,-18.911956777962203,-45.706880956248796,-15.575283777254938,1.6313029937355523,-13.465994846795574,-15.255164060875856,-13.876489678726756,-16.704031330337216,-23.040961323905265,-34.00636546967251,-27.222148373716948,-7.280994655185415,3.785439922032669,22.635744659550898,55.43921776309058,78.19959064696324,92.05915099878231,108.60705300659959,119.9609693552745,122.37115662701251,116.36660525895357,93.69034541384191,50.47786931696109,-5.101975562129403,-53.43563238600359,-78.53281879714307,-91.2877263767191,-104.12676903148805,-103.36183871558549,-86.13919633298238,-70.80062436812979,-56.90134938615841,-38.488514218217546,-27.730096363461847,-23.2034369994903,-12.94897340088123,-5.845437726917577,-4.305704393479722,5.538890032653942,14.399557145756713,9.806372324364954,8.146195372296205,13.076067988886757,9.841534076456933,9.256250555713379,18.040774617119,11.604859311182484,-9.625913204068635,-19.254765359777984,-20.22554545888697,-20.219499897617247,-10.629555324826988,-9.135560956895432,-30.524840505638483,-41.345359536956124,-26.59731614595846,-16.70708087781634,-14.937047882782998,-6.015048484632722,-5.765467908959042,-17.08836132983612,-14.129292608305304,0.10659405336609495,5.456344047032896,5.36591607949104,0.9903544099482673,-13.825791945601416,-23.552884403991378,-15.873491017918882,-5.197364434348005,-1.7301758730303636,-1.992904227072387,-5.6536877967120756,-7.93947834243718,-0.3046269968010531,10.783424086345592,11.121048464102987,0.5697062899482237,-5.538882380854762,0.7502198803583191,3.047521293948437,-9.499370120220476,-17.834230868377,-12.106217027746204,-3.2037383115009828,12.39225399639223,29.045764477806443,12.749373430777469,-38.27250541021439,-79.0096517832711,-90.70616985675179,-109.5907945447796,-151.3512423007782,-173.7034802945483,-179.0241534497938,-220.19099385359803,-276.25614355677965,-269.9967378977233,14.38095228021433,857.4824666554377,1712.5515452185225,1312.4497261171364,-170.03047094458475,-946.9697455850012,-538.381709376674,-185.45214711454432,-274.9733666222609,-222.91907270028037,-73.58893154402834,-90.1013625789172,-84.67418881594757,-8.570738384124635,-2.6238325432822407,-12.071402433710803,10.825371389125936,8.589667313188187,-11.683004631077658,-24.351643438839936,-28.431881765674223,-19.01443472046909,-13.926866843366973,-19.30015638955565,-19.929572420340286,-24.714095916166126,-26.73170858506076,0.47518245868739584,40.48512977513347,68.16326209733248,91.0846607473432,113.96882001877653,130.08895944692566,132.22742777003398,113.55177507622768,82.85034522903872,49.56920637635926,5.429209997739513,-44.738502065192364,-81.1542340366602,-100.30892112746568,-104.23122056911477,-93.0024998480519,-79.44667559421212,-69.74694291848516,-54.25145898301662,-37.70282365392308,-32.02211189310768,-26.7624548053052,-13.297510007161812,-5.655006229569302,-6.236492915490587,-1.6452632207453206,3.5178938514394744,2.251336024047095,3.4619155025736745,2.9934802360488213,-7.37115900707067,-12.846188960032215,-7.456102818669121,-3.3979715886280903,-0.2880955229133253,0.28546164423105935,-9.82449853266381,-16.724345655866028,-9.473161224976486,-1.3172412418982393,2.3886121031721377,1.181492801928151,-9.411467221560994,-13.435991606753692,-3.3578288325970043,-3.397693811581174,-12.732405296406714,-7.920817460718892,-1.7888379431216386,-7.654378586847532,-4.792545823083108,5.144625730229015,0.34398502942432074,-6.82898639434468,-1.5584657043587722,1.095717675468963,-2.843650668685573,-2.4145098013809463,-0.09038076061427347,0.9317947244036997,-2.2234413734536744,-18.077223132729475,-31.982550132357034,-22.83381313002242,-6.804098182894599,-2.2727093630371122,-1.0230435444728485,-5.893303412929324,-21.05590217646305,-22.788598223622675,-3.8316333215679315,6.1876684427634245,-7.29670536717644,-26.2066201530767,-32.26403697157315,-25.02179945579242,-16.42378603740587,-14.580562678518856,-13.86276152020762,-8.400303490014696,-3.7195218918050905,-2.491544311774108,2.1223461522294897,7.195525614596724,2.237531048354164,-7.452422279164846,-13.743577711771621,-21.166637438098682,-24.162298649673723,-10.262896898731924,13.615057981683162,30.220158241457405,25.504166357707916,-2.4935153250007573,-35.871273946151454,-62.82421878298719,-85.84789415795328,-105.58083230059023,-129.67545211632068,-155.28243115516628,-171.82065995800875,-203.1677004338634,-259.8668048885969,-283.33796141466246,-68.71892375476486,681.1341483561558,1604.1080836967078,1483.7167991726024,114.13656363671946,-883.9315494118599,-627.0436352036445,-188.81989141632133,-247.03703691654766,-255.93239261091742,-91.18078265995482,-82.4606083530422,-107.15129448750656,-36.505809729225035,-17.802645553218376,-32.667640159169125,-4.066853719121957,5.410654490499187,-6.005015828767743,0.16789810817714823,-4.673570797131887,-19.23857517540896,-19.105744002908157,-19.79044105505467,-24.183030359556533,-16.53151761111974,-2.473769964361363,10.691423987546713,29.708051194175333,58.67245575982228,89.80100022984375,111.81649225976685,125.69690646086869,135.53083564952516,132.10330625379902,110.92668515531935,81.40187082774148,48.408375482249404,10.667527286658645,-33.35084138095495,-78.56555227441008,-104.40785315296976,-101.52014732430058,-88.18624961478285,-77.02203664017128,-72.54969868498064,-81.2454321129621,-83.17639499701953,-59.17055079045171,-34.79815929125905,-26.457935874789328,-17.0510145644692,-10.686806940920768,-15.755345711644253,-12.911419933692066,-0.6763034797418399,3.1668793801472184,1.6856739207073943,-1.1656247676347888,-9.922518978407812,-14.4163450656632,-9.151883746908016,-5.362299483259612,-5.919146645651864,-8.109596651265559,-13.058158685853485,-14.860780430247644,-9.945081157986863,-5.323622658570994,-3.965455901920059,-5.601923063462479,-10.685834511946865,-11.74857194976046,-4.608062900643109,1.507878130302558,0.7396132697111675,-4.4921227910435135,-12.268356881608087,-17.59130092310874,-15.637533199820833,-10.75815716547436,-8.141848137548044,-7.168828276030908,-7.828557230701435,-10.300159115531127,-10.801956743957241,-6.890173075167873,-1.986699078849492,-0.04474297247692505,-1.174503483722681,-4.342921019479322,-6.814718218327442,-4.599306469351786,-1.0726534338900393,-1.4133783829271476,-0.6545607258862525,2.128340818850255,0.6515395116518929,2.7163648640499485,11.66150424754992,7.543107664420634,-9.595430869798935,-13.847739012640506,-5.778550841992614,-1.6668462867400002,2.9830321989088837,12.02775205180697,16.395465681636946,7.68491520958117,-16.958694125976322,-35.72623949172978,-18.469515706442138,15.00068655356751,23.515200640416044,8.111862684327729,-24.26200770972884,-74.93877596232113,-108.88293817704414,-114.30293601401698,-132.97387427883694,-155.80712592114634,-161.29291060770365,-197.44805366665912,-261.0320530798492,-277.6348259743215,-82.73435150871467,629.6144550998071,1564.6139234592715,1489.822176381222,128.24459749238298,-893.0959793747979,-640.2354148670356,-184.4852602150264,-231.25508253280827,-242.5951536525239,-84.39034895710256,-79.14452194566802,-102.66022749723257,-27.146175384291812,-6.393046384697058,-28.577515580447383,-11.762256276288305,-9.509878386541999,-23.70752203192611,-18.622919249641782,-19.996622165999163,-26.854834786920247,-23.024216085482642,-27.23029317572707,-35.4634057118454,-28.2830338778988,-11.82149567881533,9.815616682970552,36.8156389623525,59.125836546354364,78.93995227766288,104.6289567102594,129.2793520643429,146.90294687811053,153.08927626951908,131.7969295827508,82.6642125791027,30.806398026761734,-9.977243204539475,-44.02569952675363,-75.64711723340608,-107.5607440770352,-128.86267488770653,-119.907106606344,-91.87007935510803,-71.33201259896833,-54.57540642739825,-36.172808023094646,-30.511303768390242,-28.83328278596348,-12.640198787315502,3.715635779608437,10.630755330476056,17.757427303893458,11.540947550380213,-12.367713337391976,-18.674967659892303,-1.919589772203281,5.582417373363967,2.9428275019256205,-0.0799959000803554,-15.728732199362824,-31.544298472168375,-22.93585247820902,-7.919882510979534,-7.888464330757955,-10.916607687392304,-12.71365127265991,-19.92081027336121,-22.52245520556918,-16.160817051153643,-11.548973240783628,-9.37834604515345,-7.486532590613898,-9.239644353963207,-8.105626904599589,-1.2278149813564632,0.24140527099918963,-2.40170070569647,-1.5331743914502667,-5.799392054060942,-14.932819087002885,-13.834415544411188,-7.273980292663808,-7.9803779457688755,-9.449144425155254,-7.1853847213942466,-6.909480745745832,-6.296742196117496,-3.9789928254655127,-4.944081614700599,-4.4310764528531426,2.4275421121829552,5.9840077026893495,0.8830627484931046,-2.9239492364059183,1.0223433416557608,6.696164492486551,7.489868150179493,3.1083533316865406,-3.0263854333230658,-5.7565599484951555,-4.609175498815375,-7.127285422793284,-10.983097505042753,1.346304089127301,26.41050869018364,32.894135600094366,15.893525760906464,0.8805354974633648,-18.28997295355862,-59.81947449113712,-95.69318070972872,-113.33304723241234,-143.9710156217951,-170.18660645370517,-171.9107229745432,-200.0288966398491,-256.31567784974214,-271.8476988110325,-74.33195597293863,643.9703760057055,1561.2114973544324,1443.9456675027182,71.79109729089015,-911.6685685115975,-633.3179186140948,-184.19998559227997,-224.25956355095468,-215.58422337135204,-64.95605225447432,-87.12067692653886,-122.16526171070431,-40.43424650808946,-10.940909279661824,-23.47045280076336,1.5370550177487345,-0.02625735241499072,-24.021992321033736,-16.79764290115022,-9.824726365031111,-17.002292380992806,-14.213014399718759,-14.949105338561534,-25.64711930123395,-24.322157717288782,-9.840354420808671,11.622809256622613,44.47289862421923,73.4388387305697,82.51568218413612,92.06007194595338,117.56431043528329,138.22987812744447,138.86159851970024,121.10533097650276,79.68374022135563,20.712716983495433,-31.004356987399255,-65.17037035691044,-88.05229811603391,-101.60099559884658,-105.15510868891766,-100.33073554766494,-88.84458495903935,-71.99291444942382,-51.635358197628534,-34.66996532798464,-27.184007347042677,-22.30246143444362,-9.464097790122985,9.407181149959948,19.950918722685042,10.309721711175467,-6.866276641881587,-7.969209552929875,-0.3848751510374946,-4.75995733078765,-11.254418449797171,-6.954729268996694,-4.878354433612746,-10.95431629322627,-12.673353668792153,-7.849307071152982,-6.250192694102241,-8.539260351330054,-7.199587610291481,-5.680120343465344,-11.992608723497781,-15.455615256824094,-7.2256137354810885,-3.34951226502557,-8.611645845294358,-7.390818002692644,-3.1795656637441603,-4.473257456277926,-1.6853412374440584,3.0222009569356354,2.8368635157478472,8.340165367859855,11.089368526145332,-6.800874140327487,-21.004897014147968,-10.068356342954534,1.6069989926029074,4.334271979007719,10.671480281455937,5.035616702243967,-17.459172158237088,-25.32511726008405,-16.06401266298603,-14.124567345066882,-17.397797700764627,-21.859327496593327,-34.972177117336685,-38.347479562767234,-11.796730706803022,23.849654798525616,36.10296702048464,23.226959571767473,2.2308073538170987,-27.729004591132625,-67.64173419349804,-90.32866947793588,-99.37131023478132,-129.35198694724386,-160.18591867199592,-177.46690562701562,-214.09677489197225,-256.12755535658727,-244.32127772525118,51.79945867613162,904.1072132993872,1677.6695619553968,1140.8240381610144,-326.33355307334534,-945.7309072573033,-475.9662098656454,-165.1721842018205,-247.3866636250578,-182.08518729696988,-76.96477034283565,-111.33915710904813,-83.783754689166,-12.24421750329551,-22.326236452031267,-26.380159109516747,2.407830968477505,-0.11289459627760579,-8.331419075624265,-4.20166967355183,-13.352751013911371,-25.304077132895053,-28.093374299945097,-28.573044548128237,-22.905127426105036,-10.386714328757694,1.3277123682048853,14.699875515299816,38.65296129223381,72.89008425602839,107.7742881317368,136.25206915389026,153.1941215666722,153.2103415863573,140.12465012073076,115.68808164986426,71.58315748996326,17.429315703337814,-26.838346863957973,-67.22034981914217,-106.74125999991294,-121.95211438308681,-112.14336849691591,-100.4483622923052,-85.47124395226018,-65.7362029263249,-61.95927124824824,-67.14916998523631,-53.31943147519721,-29.066505910670283,-15.278573979476725,-6.545984855001468,-0.49916116916665487,-2.0847108933710388,-0.533398466471688,6.13530867712964,5.698714258049193,4.513438330676944,8.677286908101383,4.674045743848886,-4.60787046671604,-5.603903860105731,-6.267565515526661,-9.391730361368271,-5.84560723731007,-4.695428084245663,-10.186643712855606,-8.380965162567943,-2.252103481236377,-0.9293730974812746,1.6900042402126196,5.772856738380703,8.724248241031093,8.781594926880679,-8.236228645751254,-32.364745518570054,-30.73542946474838,-17.15320623436952,-21.332395566740892,-23.380553550925587,-11.205989199109908,-7.385145885496037,-7.628296159062019,1.273374891504071,3.714812547816429,-2.705519197231613,-3.112125712336816,-1.631190503417546,-5.775463903748214,-12.398316702639086,-16.141586245365843,-4.857409557661743,18.74337840372398,26.195903974010637,12.799162163338156,-5.933930588766334,-41.299929706608424,-86.29734110725069,-106.51609119395486,-118.05619173414779,-137.57468777120306,-145.36641066041585,-173.4192480233923,-226.47923342652624,-243.52948244811498,-158.68220635815635,326.91458525873395,1307.492686666479,1712.8692140083463,606.7618105800523,-777.7894919733099,-867.821032798437,-313.036069899494,-226.67442770421272,-264.3561139520831,-86.73375993759345,-52.98685604222926,-117.69122327023587,-41.82831358219357,11.909776108454473,-13.060476502849625,14.165701940108406,26.625475542000736,-24.93535752947619,-38.56704967379182,-19.46910017403257,-33.72802517448503,-47.93497713739774,-36.05275214031714,-29.979869134763078,-29.315867418380417,-13.200796562232572,11.16772988716944,35.89127269354522,65.37788799286514,97.42700800069733,122.08299301695482,131.44564397702058,137.47103853188787,153.76928986494636,145.33079527178148,77.80736434579241,-4.201233283136568,-52.38966855974268,-82.9413948665362,-101.74765058461637,-95.77761106163665,-93.45909337988559,-109.38805163222942,-107.37673563948282,-82.9801326907243,-68.18064749945614,-58.07546343175259,-35.389488542255876,-17.673996059865566,-17.035481650434388,-15.503021330944087,-2.3251097219149948,12.119389710108942,15.02877125677718,5.97779336819487,1.6534172174051402,11.509847049776273,18.473619041480298,13.894530908374556,10.500806774904762,4.853877653516815,-9.15162308783534,-12.732585021782693,-4.1632378639585195,-6.331492702014451,-16.041587049351442,-18.267133401241182,-19.641458951575377,-19.971183096437564,-10.795666904252073,-6.4463564867015535,-14.866595482177434,-14.737435905622092,-3.6788750921772433,-3.3131542789139985,-7.692319526724024,-1.8726597889829755,2.6929333332859393,1.9400514934481663,