ECG,216.4382667567259,171.62430364553978,166.34587005875198,185.24443967116105,191.79383559049217,186.63145320765568,184.41101286128253,181.2682387581168,180.12000983739227,184.4523702784727,180.60653227859717,173.5445774851957,181.66624979354356,194.49180603270833,197.89704151873337,202.3981400082365,216.23100965199944,235.71212481797886,257.07179554380673,272.0690049061799,271.0192464075433,258.0532780339767,246.53302039007298,236.12056591493024,216.13195320618092,193.28070459697614,176.10683478030126,148.59766747554602,113.90605764828302,108.41971026433737,128.54610996473713,135.78752113156338,134.25371108837157,144.22478122147004,152.75000457651333,154.91613553948605,162.7869177555164,167.56960605426667,160.8840621620759,155.3298748834667,156.1866136982277,157.55812612717205,157.89306933388735,154.64754793473276,144.96662166768738,135.59620102933525,135.03269400255385,139.8265809524108,141.58226426996657,139.61431255839415,134.17220689511288,125.53362576603851,123.54910355529654,131.3826629325162,138.01571085942453,140.53072264292712,139.46235635156097,131.98796304011398,127.35734135821943,125.95400888265101,113.75295214265236,101.624347508369,103.16508944859004,106.90158745264057,114.96714146701441,126.3344064805948,114.1329852246389,91.66016452625291,95.71452309796587,108.8259318464547,109.58579137471673,111.41138191593163,108.0197644868756,90.95011641701998,78.40347073698703,74.74583284569718,78.20436533342428,93.8693718782722,97.86610266061524,67.1258556422728,26.03387927058796,3.065818559948127,-10.210116679496394,-28.507276953874452,-45.084380923004716,-58.24237031960875,-69.5752565730653,-20.141543127360023,169.90201269251668,472.8443274520644,739.1793307295056,754.5657793077986,410.4480874469185,-32.685223173015714,-188.82122156268184,-113.22256766596418,-99.04868283255917,-127.0427988764479,-75.73936537794839,-26.827386239443463,-21.54573223968123,2.2659103060247077,26.24437833318015,28.58897754921979,41.978328914056746,53.25871573078025,42.7906382969517,36.02732995896419,39.6257715098709,39.34799115512976,36.25313530206007,33.82778359482144,34.68293548929401,44.314989314485956,62.00632322505923,83.48994287648208,104.17009072547516,117.92317892134547,120.07391829262633,112.11485151261175,105.81912775679531,105.97936195780889,94.2252055434849,62.14030333670898,30.581193929414667,10.50865045929524,-3.89354039699748,-8.547334139572826,-5.043904839017799,-3.8837477505018967,1.4331377891455332,12.972931082937805,16.404560680440127,16.881727377641177,24.38720460903987,27.69571652236297,29.002569544520817,38.01724671255264,39.48799807066469,33.036453422553066,39.1190394955957,43.9803344825164,29.74403824906924,19.61657192901233,24.419907390195235,24.124108400841457,19.58378583668369,21.788519462965112,21.921157313296263,19.72224381521869,24.950379648732657,29.76056799861623,29.345008758155082,32.68109805498155,34.236073732798545,26.866568390431127,24.071868797377327,30.63214910371181,31.339975989507096,18.986970839177133,1.2316710878385635,-7.472242286486054,2.3097448875925792,17.603398381575253,20.56175480038207,15.329786777569618,8.758138947646806,-1.4013633466614177,-5.859547238648265,2.421967152071934,6.051643332140834,-3.5781198244837675,-4.714845998621293,9.154054792093394,5.900654452116118,-27.74273286881322,-57.25521489326698,-70.79926544837328,-97.93343262744975,-127.45826557610503,-131.83756787665854,-134.65564454760653,-110.50219598398124,27.336477405400515,267.99600823055584,527.9223808051235,686.8959140944615,535.5325678729611,100.17717154933828,-199.16487693718295,-182.85990239329954,-136.0133241070804,-170.3962186026415,-142.08840883060583,-87.15295914832429,-88.51784733097185,-80.21811260632668,-50.81508622480391,-41.458111984260654,-27.198392986037675,-12.243138592784046,-21.456526640701497,-21.832008591408716,-4.589624860682966,-0.608048737263502,-4.658492398517911,-3.854831588354937,-4.044080192028091,0.6224215130414557,13.486037369162885,28.414114289126715,47.71189217750201,64.37590824816186,68.08897521354092,71.52015079801765,79.8771424473407,77.26736081576965,62.72313822913832,41.27223596183394,6.758694803694228,-28.255571490825144,-41.24233033117809,-39.5814760378874,-41.607707160092865,-44.40792861442903,-40.00852587708897,-32.93142428082182,-25.196209997135437,-10.447110382230125,1.493282839337187,-8.573365393712855,-24.782241821183273,-16.38362449871283,4.81480155002657,10.849608458097732,3.6771166579035928,-4.997815486655247,-9.505525102791292,-5.911991654076896,-1.483376328287978,-2.5729091023216473,-1.7298493446800798,1.179156140484558,-2.104890624250908,-6.8695987220393935,-3.716988462202343,3.157089595766866,3.9720961163632698,0.8642905430302612,1.6442745039985294,1.925445503735002,-3.0514164350410518,-5.548435157469406,-5.944619103653531,-11.682668905266652,-15.483094197053667,-11.675634092904907,-8.22121614555638,-7.497405033619696,-8.04456067777772,-12.192604890314431,-17.282274602899356,-18.296393934938326,-12.555706168395423,-8.764757630006855,-31.7513710327923,-77.16938859590374,-104.4882774996626,-113.60029799953948,-130.60759484627317,-143.48765033793933,-154.5913365378853,-164.36347092652167,-86.57446574250751,128.50066828907475,406.7101038138545,644.7003642908655,659.1787166971826,307.5933637306647,-126.76619877295805,-241.53971089956178,-155.53276591741405,-162.4110737768265,-188.3139620076626,-135.07628908857615,-107.7915418523051,-108.58421262813053,-71.42652967994195,-43.12877768320543,-41.85442067755399,-28.34773321318353,-18.34204668624574,-21.848820803868932,-16.969927374374862,-14.160731279793819,-18.714715058548634,-13.300791429731884,-6.038991838263264,-3.0952871787283716,8.774551249536357,19.289308526025078,18.271088776305238,26.61039422754542,48.12357982261333,61.6696001257785,64.57467776436324,60.567596321446295,43.109989002590865,18.919503318324825,0.3055762533820179,-16.205807505311476,-33.53529057745099,-44.84238429766345,-48.95615193569858,-51.68391254334048,-54.430593493905214,-52.78902047903191,-45.08556838331005,-36.035013843431855,-28.620080719881763,-20.323386665904813,-10.740867572561058,-2.5782378026971706,3.9268960992971316,7.982142001857994,8.475595387612685,11.471477564980184,16.34965131577234,5.01471107952446,-20.958396282655265,-29.897588109614063,-19.24205913520469,-17.37189806308553,-21.97614907765505,-17.020913321037497,-13.286129101241386,-15.365913861511615,-12.484216816788006,-8.411082209354635,-7.698010757754002,-5.576456385542123,-3.667243807483903,-2.843678516653739,-2.7988305590942275,-7.845742057541752,-13.116581447118516,-15.359325341761124,-22.006170724181523,-25.595577890831045,-17.66300470652793,-12.459813308758484,-13.1566454580141,-9.926442215947162,-11.85024403599816,-20.242445779948703,-18.954969571745558,-14.59868185085596,-18.83996353647766,-16.96433080508215,-5.111789262055755,-10.446795106851361,-46.412540043562934,-84.25643842686752,-98.99898440055706,-111.77521146310087,-134.5230591023069,-145.6095210318281,-154.19004544669423,-147.0451446494379,-32.54507278537578,214.71576967529882,504.92392400733416,696.4443496312489,577.4788595113765,130.91934051170222,-233.89660548383657,-243.0601863635743,-158.9339722107189,-186.66072472602227,-185.78256980898834,-125.17233912871427,-107.46928865754418,-98.69131947582166,-64.43006607171873,-50.28606135887544,-43.518758116768396,-22.49591566470643,-16.674475648776784,-24.009932089067146,-22.037280075971502,-18.64249626168501,-17.174029439095193,-11.193781409881712,-10.55016736779313,-17.432485898468737,-13.356784481771035,6.864181932086899,27.444127207404556,41.39821351253718,53.03916361232929,59.637993982012226,59.164647520095954,56.884335603652154,49.436636291847044,28.8414459792037,0.6487471949396841,-24.98788504356303,-44.43561279264938,-52.38150694540128,-48.3856945672724,-46.78887127080435,-52.18465017456924,-48.08007924011588,-32.13208071082592,-22.615984013411246,-21.860718977046993,-18.691252418257307,-14.703926673381083,-13.373216021728322,-9.43213948310219,-2.259767617962602,2.795459605371981,1.581779828654053,-5.949730376702277,-12.693730826930743,-11.818231623715867,-4.746516717836702,2.0899648091416907,0.11120856885398567,-10.908236564853002,-17.73325366658494,-16.738686757993936,-17.650464986773635,-18.89570850321624,-15.30252312764459,-12.822756190942464,-11.80763636259492,-5.702628240705582,4.106410783064021,9.724365885489583,1.3476294683331993,-19.415494577976375,-32.72419392743075,-30.905807558686885,-27.08983937125645,-24.351897540580076,-19.265407140353936,-18.35894147246686,-21.231198178413408,-19.38382299418265,-14.83697061946041,-15.3494035731294,-20.47093718271183,-18.9189506993674,-5.148767805593717,-2.4793237696640738,-32.886218574155734,-69.13288431053601,-84.05090059342608,-105.37532961867117,-142.0291784079409,-156.95110344672165,-158.31080444183436,-155.04654794568333,-63.893216750798686,169.2451186099612,471.4626927414938,687.4383238665378,604.8450616088619,191.96084713749752,-185.33942252569986,-235.64342550628595,-163.41974789289696,-182.01248700492062,-180.23109113593506,-120.70503428580888,-109.53947426095755,-111.66247228247607,-71.30145804271858,-44.357369916342975,-38.836029132363535,-23.359584616715793,-19.75563389792724,-27.248972289994068,-21.527232794816044,-18.755251651385883,-24.571741253682347,-21.90862104764506,-19.59166229204077,-20.010425696457887,-4.320763968246588,20.621245014756255,36.48131992801887,46.41034826042093,54.59408336220456,58.27606217281293,59.614943120322025,59.337499160405216,52.588106363158275,32.981835774965774,1.0267754164224847,-27.399011303485864,-38.83408152982582,-40.39212001188844,-41.90590268248012,-41.88646428566848,-39.39054163403784,-39.28046789750518,-42.500201352148,-40.652890447214745,-29.33339247967759,-19.681365547388005,-18.85666398535766,-15.931501735603256,-4.034325710992185,7.731380621377282,10.262450856620937,5.070114605711449,0.7690320730309068,2.2848253808181695,8.014844114727042,16.736419101003953,19.52836817719165,1.7338391473294017,-27.11186362550132,-41.90103803006711,-41.35158929246836,-37.77943915058003,-33.683466195974,-32.688949763683965,-35.54495442956852,-30.58394098527338,-17.400771537128968,-10.509996320429615,-10.893410793117305,-10.35373743534447,-11.073585346059929,-12.549358206685735,-8.324554395611301,-6.272860968006679,-14.510540903013926,-19.707535993593986,-14.01309271957809,-8.994216799672802,-6.7539247392822475,-2.73629740141509,-5.070412111454015,-15.103508310143383,-22.099592366303504,-23.628376044775877,-17.43112502643017,-2.686247629292282,-3.9106962866656545,-38.64496825466112,-76.20856765097155,-91.58811863541003,-108.35610458884081,-133.7039994369038,-146.19673987232738,-159.08120207004916,-159.71553849035743,-57.056520419668786,182.9452294072663,479.0056908461454,686.2439842505095,597.3682660345088,185.09239213100915,-180.43098909952306,-220.8025652014369,-151.2818450664687,-176.89245874514208,-183.9973573764737,-133.2081194844323,-114.11445831340518,-99.25963440460856,-60.55053537952597,-46.716570258517606,-45.76074112410255,-29.520072024454386,-18.65710615040112,-14.053095204192715,-9.810751649584418,-15.289503159903425,-17.280766862966868,-9.416956548500046,-6.40554110107521,-2.897333263622433,11.184706746773747,30.64770687644485,49.126297065220406,56.85621567280105,54.38389304054412,55.00488485576402,51.021890956169685,34.02820041829961,22.160329848240693,17.093539449437067,-0.9403105309340596,-28.231013405420676,-46.48728971019347,-50.37389684822648,-44.94274161774808,-39.44482418959496,-38.41405489153284,-38.572875048272266,-37.075972325971925,-31.933820401856124,-24.620504439446382,-19.63687277415254,-14.28143036463899,-8.326130931571633,-8.709744941436146,-9.493775671775012,-1.958208800615374,4.578998102866848,2.9796653684873036,-0.9525992018224585,-3.9659639262158493,-3.302541822620576,2.3686016601993245,4.16784827855246,-1.2676951386824271,-6.1566401499948356,-10.129265280620512,-15.593692502145625,-16.93546641925444,-15.207683607919805,-18.84229734787786,-23.902246751795662,-19.0309936292779,-6.796961073321587,0.05250938517740522,-1.0695884088432592,-3.5084866745319836,-7.480204847033846,-15.680346754095815,-20.641915294487347,-16.693876618925614,-12.659582410908218,-15.079975942840367,-17.634221632041168,-24.562569631210874,-50.40943164181099,-82.56955579943286,-100.56872834668542,-117.12424869368785,-137.70698465728464,-150.25945579623016,-159.45460653546687,-121.34409188709806,41.12543492582047,294.05875290060476,536.2340980794665,655.1603634909505,479.9228863373663,59.24609577304217,-215.9409609197241,-197.48594769888433,-159.2474794194109,-195.56764400589014,-165.35272974618823,-103.34833388222461,-91.93584578873035,-81.4745863719635,-65.03488944191352,-64.96213658902808,-45.504797243553,-18.890126918597616,-24.098418422209527,-35.19650631580606,-31.101838910343098,-27.246335656284785,-23.92629084176637,-16.98522289640982,-10.621339079721935,-3.8308652576766846,3.2189102418215043,15.205219464544518,40.09656299699225,63.22343780092524,65.36769381169873,58.05340403745363,58.48350954434066,58.50189655401449,46.55304295658482,25.17747919864885,-3.280869922365042,-35.40487223616448,-56.80512328579928,-58.65742772451263,-51.855298321912976,-51.69643743082253,-57.208597881924604,-53.250457441313024,-35.93977371182952,-20.062808704840528,-11.01680046613168,-1.042814409147475,6.033358147600744,5.346635094087546,4.641585786152881,3.5484177049889425,-2.5759169642289628,-6.569166584795372,-8.568752593225163,-15.040153040012811,-17.444677949008724,-11.495309875669573,-8.10402752817544,-9.314580301775912,-11.170182618723352,-14.543381227942085,-14.276926767144644,-6.870282962175619,0.276682976477435,2.395956090689353,-0.12509692617888035,-3.589875841349034,-0.864033144088868,4.060587649054266,1.1084904524679935,-7.738158318427395,-19.38281833622154,-32.504806924352806,-37.2795828679098,-30.426679771818762,-17.493035204968514,-4.262099452907947,-11.785805048961468,-50.53613267512774,-84.50094969885397,-94.6977863386907,-114.23652832021307,-143.42733578920573,-154.76823181843585,-166.25841911899226,-155.13162696213035,-24.898427896823065,228.73168797390156,503.01362087812134,670.6308825580766,550.3152154607595,133.97315198619862,-207.39304507910902,-227.47333963617058,-163.52130407678578,-197.3654846632483,-192.52133976546543,-123.8326739870071,-103.05920738835437,-99.85969227795295,-67.5799760542986,-50.411243889912214,-44.77851409816461,-23.806313856345117,-11.443823414380137,-15.071221493707647,-18.348973208320174,-22.94177992225874,-26.98689021486819,-23.378683019390444,-16.03402344805373,-6.231982949918864,5.933928000589409,16.47443927600363,30.326964140723696,50.89962249989488,65.22572616756743,64.49450356426468,58.03124328528267,52.01481079826788,38.61942919006245,15.890219289115004,-5.30826758508233,-21.3681433874535,-39.58407016936141,-57.388900800512005,-61.45076662049526,-51.37788456995979,-42.27882594026995,-39.73979867359256,-35.84100304808483,-29.74730658236124,-23.73345234584108,-11.938764041690735,1.9726466886367255,7.707747327156033,10.513428810558253,11.244526214209744,0.7085811903137476,-6.94984165950272,0.5751117103244567,0.9712391147192356,-12.59316985924719,-17.257148465536496,-14.673010725918328,-20.555411691166558,-26.659429090515754,-24.76715076630854,-22.257184543112782,-21.265301871842567,-16.40780679292211,-6.921249547645218,-0.45531553584832807,-1.7177437749094437,-1.0070424420200688,6.3760904724746865,9.45757794823993,6.477029614243847,1.1802691297698829,-12.927758560432544,-28.84928719781613,-30.800286720772277,-27.877980381695224,-32.19357697767928,-33.79128178539382,-26.449953721127535,-17.595142422687562,-17.740092299080978,-38.38336318215589,-71.95129287779812,-95.14647655349266,-111.08131187367667,-130.98956699698184,-142.715983496945,-154.29542874081002,-165.5004844155396,-95.8740361468668,111.10872780013666,401.146764231602,664.51152731761,695.0184872005706,335.51588391382455,-133.66963801324863,-277.6855518586325,-182.00669194148048,-171.64168915840395,-203.25777456402346,-148.81319572744394,-105.91169331748867,-106.55284754783177,-76.12736994024462,-41.72747840260727,-35.237101393877396,-24.501073075930776,-16.50121025363545,-21.005617347544558,-16.021975134729534,-12.717606610176812,-22.359814114756414,-21.67453075598509,-9.72193979646935,-2.658452509371884,2.0170548030439175,6.462217670068082,15.400099424840667,37.53227032332909,56.869499011286244,60.11886179932843,62.44723314187077,64.15983231938047,49.25238269576877,24.039796411429716,-0.32366148843092724,-25.038785977198927,-45.60263477732453,-56.53049605034886,-60.98260969578578,-60.755252819189124,-54.39345551957169,-42.810486874814785,-30.67235767653561,-21.4149469817848,-13.47137987525386,-8.174580446665068,-6.386513942452066,-0.36761012450165254,9.46435071520249,13.78478706663358,12.393650561955543,3.0062088927911255,-14.9352127622609,-21.31471127535505,-10.615352952413286,-6.860519741140241,-12.843748202262319,-11.107775425990923,-6.4786519522449275,-9.617288705346681,-13.679535883778687,-13.249138980933665,-12.339204930125316,-13.655367668835513,-16.02735421087975,-16.159477232232483,-12.906262382651907,-11.174664019965796,-13.664954025604423,-13.361456300447113,-6.413247978590466,0.03469429298021964,3.9397120903006275,6.918438166837699,0.3660126573978566,-13.903472384042498,-19.31515537772336,-18.046734916356314,-17.866737327112084,-11.28984409605411,-14.498109363581463,-51.715628174390616,-91.49854488322734,-101.71368654286775,-112.82897096336455,-137.06900824244718,-148.67676593726233,-160.5230743646033,-151.8510763193943,-19.872501484743523,253.35426685161795,550.5011127360065,708.3618982647606,547.3904404106415,104.19150256296595,-231.4984649397681,-240.63720132930388,-174.49113378177282,-202.43059630124375,-192.23842446799193,-127.97380764311538,-106.44775713535407,-91.71454857232189,-54.71037382513571,-41.86556183840613,-39.12612970140012,-22.500221521186624,-15.530690928716119,-15.975400735512821,-12.819696185291647,-19.232142297965975,-28.628985579611832,-25.419694218301366,-16.432453712898077,-8.543353317149315,2.280674045719259,20.12298850097428,39.95446716265629,49.351870719633254,54.155263384057804,67.32017037788164,70.39496974807453,51.097970028093584,35.46322001133475,28.841555934677615,8.88035562152886,-18.667854549639443,-38.25058786503398,-52.33793597649024,-56.52296966754106,-44.98524899281448,-28.38684811377108,-22.005066066846418,-34.718386060230074,-51.733640209691465,-43.50000809321124,-16.41239934782248,-2.480505015938043,-4.377173642888145,-6.62810830014854,-7.348008286515068,-8.971049364334366,-6.764144254238026,3.0564989953601778,9.031489709339029,-0.8195332041175796,-10.38655250101705,-3.8528095959540387,4.498923982177711,4.304343511091851,-0.3655506080898281,-7.521516600287335,-6.432328338920637,4.742768198490698,8.75203445256705,8.949061386206619,11.353403133899532,-3.2872766479216367,-25.613477777158216,-24.431970467777962,-13.444788085027561,-15.613813959414777,-18.335687296689454,-15.232163896558546,-15.509734280191495,-15.678740695060675,-9.505766901438951,0.7379352788828033,2.6287608001965967,-23.228651954979703,-67.53087525308113,-97.3537430731451,-114.88975391361222,-135.26558725183253,-147.504134367578,-162.63528595284734,-172.14177156981523,-81.85732852226631,141.84897351938514,410.4315540965971,632.9508046863982,645.4795721254831,305.1622824725276,-119.22625810490612,-235.43125037722893,-160.6557722755751,-177.14597481926748,-200.83432395928125,-136.59473913230676,-101.17933025455473,-104.0441239359316,-74.73435617285901,-48.061584007982475,-41.15262856543913,-25.71285503160881,-17.445437882392493,-19.254352191317544,-12.640637086003018,-11.235075407293401,-18.357883686448936,-15.40707419738332,-5.393245416271954,1.066268658965459,3.931699384763096,5.083284696672672,12.299091264289704,31.451654885649077,53.60137912793296,65.85900556124045,63.67849842107256,53.69273594625582,45.66258096145924,35.50210580790281,12.648050185244829,-16.352350128186742,-35.164558956873464,-41.36252555999409,-43.81452079164349,-44.56744120260514,-38.990142503633116,-29.29995323963216,-23.286442139551827,-25.15740567983137,-34.15449824634367,-38.922708870939175,-26.26203543138467,-9.247610092257265,-9.470192766443205,-16.114402759605483,-11.523699198308485,-4.07845601920468,-1.7588720275803809,-1.1429445292466482,-1.991551532033057,-0.6400126920138192,2.79209001188028,-1.5413381258163135,-6.315824128696928,0.48067119352178267,2.4957257793073033,-9.915544734418294,-15.569776833998539,-8.4945524359973,-4.899887556636802,-4.1687046479718965,-0.2291068961617455,-3.087750148813697,-12.859647230082423,-13.389735767001191,-4.887722767921865,-2.4529758298652666,-6.33310678857076,-11.274923800633426,-28.52144592987374,-60.80097851897119,-89.18324905025898,-113.1045448103242,-140.88239323204118,-153.68843106197,-158.76438653738427,-174.39760592082763,-119.97987208678725,80.38238390469755,355.3957515407291,603.1951804166038,693.4126284206965,439.2608409956045,-25.630881450580382,-255.6383099813566,-191.08510841481507,-159.93389371904084,-201.72582716998764,-159.85785472726957,-106.79944145676761,-120.91010100786252,-116.67639879778393,-77.59139504121754,-56.13419777774513,-43.33348815315185,-32.60834260028098,-35.52156016315041,-33.258250335737515,-20.687734149753126,-17.0257500647392,-21.12727704638356,-20.717675088235367,-13.127670234279858,-2.4178947302951492,3.9410030748874973,9.847388139673921,27.030439495819444,47.62267948615557,57.435690792775496,61.58940274588048,63.344244558685425,52.22289553025723,27.106781063571358,-1.8162472814407238,-27.75981137360668,-47.9782498466382,-60.62702629128808,-63.45552925440997,-58.324664630101125,-54.3543108348545,-52.25269309446975,-43.31954588616765,-33.253805979050945,-32.57693520861426,-32.22806540829008,-23.33438799168313,-14.013623475650391,-8.660302734962869,-3.5902999377388127,-0.36630793625629465,-0.14966470890961503,0.44177210011575596,2.171087952666028,4.692731872231107,4.942305006037415,-6.009827753320245,-25.36404791253416,-34.00191495028817,-27.078537684080892,-20.192889075566413,-19.548630514838308,-19.56510169555068,-20.264712801203817,-21.789891217994068,-20.538183396512842,-17.583110411260577,-15.090336416954187,-12.816189417379693,-11.37035476912763,-9.457016036987675,-5.290477168405978,-0.08631096958993112,4.327417059948814,3.95241690636551,-3.0720257441030867,-11.636500940396033,-19.98933317453975,-24.416057898846315,-13.401057364815024,0.4815799583840352,-17.26837295202653,-64.67242266945384,-100.15764232650767,-107.23614755908706,-113.61578138008463,-132.95870856643188,-145.05878761041453,-155.1645870747212,-165.22063812640351,-95.76588743590258,112.04620651265859,404.16859922668266,665.7161355006764,681.5496422162971,301.1095173777435,-167.3166378232939,-291.0521264790672,-194.21769912634338,-199.08136941764758,-226.28225944618347,-154.72118406985825,-105.71179994673614,-107.32063359124895,-82.2490414461043,-57.81724326656814,-53.4798453901107,-34.606280654249865,-18.660892158173134,-23.506978297817355,-28.173289193090262,-31.19420863168147,-35.72956901214725,-30.968874703944785,-21.444561921596925,-16.33693551438708,-11.251030799540104,1.3159070059453803,24.170695605595142,48.35629013706897,59.08022213877726,57.46678367451939,55.94302640541467,55.544365490440455,47.02677453042304,27.572199096227507,3.317317407304799,-21.52744922325549,-44.69309807078083,-58.46115316131939,-59.06477299576147,-53.56347404093054,-48.25279776155698,-46.383749169104924,-47.66490785143363,-41.54624809870713,-26.01659415482542,-16.668959234016164,-15.688463738604014,-12.343594702259821,-10.362674991114666,-12.211565079456435,-8.100622539002323,0.7727463213717378,5.21151583215369,2.1376720511225784,-7.449527840192182,-12.504139600047907,-3.750420742234038,5.524946504346978,4.31907950004863,1.9839232791103107,0.587096487148127,-6.419557812159944,-9.461570068167344,1.1473511520125257,5.861978848665,-18.48533638469295,-50.05722297757984,-49.59843513257186,-28.632371429422697,-20.45220031906529,-17.959754579296437,-12.114513919638412,-18.2580853010304,-25.977122772584508,-14.985889753484905,-1.7194879725293646,-0.870414187797639,-2.575574407972354,-5.2536956928784875,-10.911623035955976,-14.717472415800763,-17.931404703237096,-15.918500849584433,-2.0570792405603378,3.4043439321431848,-21.382999482144463,-57.8835241518146,-77.36949381294104,-89.89096493675498,-115.97271150462315,-141.9888630317409,-158.96208865339653,-172.38505219123812,-129.00215871525506,39.30775069602633,312.4940457482217,597.8271089425898,702.1259592736574,425.5195802165243,-48.19418038802989,-266.01358221754504,-196.27597052674602,-163.5108309759882,-198.05943184577694,-155.23348448962264,-104.5258899186534,-106.27972075527309,-83.79014777397673,-45.302036118015565,-37.321754902797785,-27.017823616553887,-12.951432651740397,-24.17663009672659,-32.5269884511137,-21.770507215644383,-20.880150628469664,-28.209571839233526,-22.924079441302567,-13.392369196584152,-6.000270498086149,9.258425367536152,28.081148801757873,42.50361233339976,58.00426602295893,70.93708021782419,71.89213530412596,69.13314107729592,68.10684048907382,55.9789782330168,28.678541477937195,-3.7160183177139423,-35.00250675211079,-56.41066284930245,-56.21667629782269,-43.97498664910995,-43.35969288860875,-54.02051346618575,-54.968664354910885,-43.09218070567691,-31.64359095018179,-22.265873971886954,-11.656316681176989,-6.4549482049336575,-9.855104376523634,-12.262383929786424,-4.727407023984787,6.359322085300263,6.990220328161238,-0.2641537804365228,-2.001905875317078,-0.21010471239149808,-0.17810577323587395,2.5529865104991156,2.9346704870175557,-2.692578076956748,-2.4436970867357886,0.1455390386816653,-7.169900733090657,-12.460956938080285,-9.349573018367469,-9.585257064541882,-7.080760185852139,1.9808696073563716,-2.002352144103039,-16.420532310429728,-16.453375245918547,-4.4804524572201725,-1.58679256973371,-11.364019567464396,-17.382495583844324,-7.761301363530663,3.0131675977925205,-0.20760720955885503,-4.984758033367179,-3.973907475573249,-5.215245355237869,-1.633716871427847,5.063065290015508,-11.99138900905713,-50.0648995926876,-75.15260360543033,-90.00885050654236,-120.52772010870984,-147.88713334275712,-152.0748149395742,-161.6076510378919,-146.58054909458036,-10.80129933806036,233.97140591323534,492.8328464934864,669.9868985679684,574.0670982828518,159.3627829783818,-191.77697013354836,-209.06394707580358,-148.2524989100875,-196.69224996286272,-196.11565068968986,-126.26355037410161,-112.0692721584268,-112.30955476746738,-72.67627434629227,-44.71371931441678,-33.73887032492246,-18.603617755141208,-17.36530811871212,-22.062150543769,-13.437085400204545,-7.20299417606935,-8.442620827084411,-3.0138756458377216,-1.181862910015127,-15.760988643257663,-22.216120106582007,1.4237270536096216,33.21926216946881,50.667100312382345,60.98678153020765,67.22088778739439,67.83062749761459,72.22654386218012,69.05492990362961,35.66774850825695,-9.23742274856817,-33.23830040091849,-42.500066600013696,-50.65389263669829,-51.554246695137365,-50.32477877897622,-57.35030268526753,-57.12657095543794,-39.40608712991212,-24.589685368697193,-21.071566913305794,-14.479883285391253,-7.595653607283879,-10.197722795987215,-9.62756734385544,2.347747977457809,10.22573247578115,5.590849774310648,0.12264117631466576,0.7706554024401449,1.5923224879880067,1.9978130955451494,5.787247308111825,4.045798030879782,-9.582352499938823,-19.78185823566761,-14.512535428836294,-1.493592509449618,8.867613231270845,7.204290039657597,-8.094818693941097,-18.227945667282953,-12.026351984023226,-2.9786009413633927,1.6596815648612502,4.951247527030308,4.4455924639736875,2.3557982950102563,-0.425001319208274,-10.450739178037772,-17.26812320505228,-10.125326217719905,-13.978834015825543,-47.59688446668044,-81.02664131851105,-91.8417775856627,-104.87251876606665,-129.291486334416,-146.5585117886273,-169.76819186313725,-176.49754202949384,-66.32184105515516,170.44247309798357,435.8434605335888,649.0379708625481,634.7984663320814,260.40875524295564,-155.4300163296894,-231.5554573421801,-145.03371367583645,-167.57830744809587,-183.19306538351856,-120.75421697926755,-98.40073883266083,-100.01669422859524,-76.73922052955959,-73.47993208954883,-69.68102519737508,-35.39485423821359,-19.34938523761189,-27.24585335459063,-27.013775696873743,-27.256534228800067,-30.261059576991094,-23.895860884468796,-16.487319278075987,-12.519010184948938,-4.449934258223486,10.517390954598426,31.576319236780584,53.63516343386064,69.9111025860778,76.85119918308597,73.61133554352989,66.38630616668618,59.16142544438978,43.496124189159076,16.078180328517814,-14.417039100194366,-40.84401912446404,-56.88547047308229,-57.82353096948212,-49.162877527184975,-41.33806448798558,-40.75634063834991,-43.57770674281939,-38.40692768124033,-25.621191968634548,-15.287204366215171,-7.154978599474564,-1.2838587558253565,-2.1349610642996026,0.4814617666665484,10.3066824443539,7.84595676134316,-7.614431580260959,-13.219158718554747,-8.455894023181562,-7.754240827147399,-9.401675614714094,-8.253509730373498,-7.36094073137102,-8.750071345804898,-10.871555997956573,-10.071262908076891,-6.058040897997399,-4.214102725409216,-5.0572365063771905,-6.286155648176315,-11.051279594136247,-16.387286728841342,-13.56191103879577,-6.547339652252379,-4.133801691059995,-2.877236867300148,1.010418067070578,1.5221239019140391,-1.9350386340750703,-0.9335864534175293,2.1142558542403336,-3.782275772221478,-11.162615751146317,-1.3037950085787848,16.75340440057832,6.089567664274988,-45.57451629275451,-99.42419437177901,-123.9566502290152,-139.5117095838113,-157.56917765046762,-162.81333344762683,-170.8946025074473,-163.9884361570288,-46.46813208506367,208.47745335919544,514.2444607309084,719.1739693283224,597.5078746213292,141.09263155749454,-225.1625928326762,-231.94584023715004,-152.8951819021638,-188.31204663681024,-185.65016698230505,-119.20583144575154,-103.650724235319,-95.0250984700926,-49.98861185475797,-32.752423935265625,-39.45947562276073,-28.559756216716558,-19.16279028814982,-19.7896358835228,-16.35130705032772,-16.655510561124053,-21.23434770755127,-19.992986908230293,-15.497660883502803,-6.754796512365434,6.077059678530012,11.66924207684228,16.065375582488148,33.37196164895574,51.32503789288005,57.866707289530815,62.988002893789336,66.18891604151847,54.83943120108038,31.596736017350892,6.163398621428734,-18.05500696103969,-38.407040383585446,-51.876601870458764,-55.984486178234285,-51.31886316044914,-43.09756780954561,-33.73046310432022,-24.808402643960893,-19.62333364015286,-14.378024651182038,-8.469771020655084,-10.272939030260225,-14.485663218326874,-10.328878711659078,-4.829945391119324,-2.693856954446412,1.5703255749468994,4.413590057616192,3.302853510551671,2.5843202657596898,1.659062702922153,3.1107373412977513,7.638086282419536,5.2769845808795175,-2.6308296057028464,-9.903014107849948,-22.192048151179165,-30.798401558180075,-23.191755772842246,-15.752969685415511,-18.241135027150634,-16.65344031807131,-10.920525212608997,-7.855025544678142,-4.462703666666673,-4.1427505395742585,-5.326507069939218,1.6885716281539267,8.503825323106376,6.607586930159311,5.533546963690547,2.335530349389888,-14.137541581593542,-31.871103264833934,-34.71072421394303,-26.14170537151768,-14.061423749428236,-3.1451020996439354,-7.049273262334321,-37.54352117217553,-73.60350234971631,-85.50413864007386,-91.29669582793642,-116.46199282828854,-141.2152007106887,-160.6759195941871,-171.76934797583914,-94.46617157002285,124.71179951187278,421.8656247042997,666.7086939206105,646.7346889082004,261.91046973916707,-156.66938561978495,-243.1189339368591,-158.11835291902793,-171.0782659082567,-189.12441748112263,-130.70946445897317,-101.00014363571421,-92.6450285253078,-51.369306260020174,-31.656964234872774,-38.923735766077,-26.51784624519966,-17.668443984381874,-25.255413078672408,-20.671781372901002,-14.928357519721363,-21.624543603710002,-20.799982925821777,-12.254387203898503,-10.052957100491874,-7.8833313258672995,4.422513927773727,27.296326516850094,51.042736925745956,62.68290741176017,65.33306801448009,66.1957266576994,60.35565310293118,50.316588822273324,40.89452379045528,22.888052259945077,-3.779122071035352,-28.15301638215002,-46.6097070414192,-51.7090782592243,-40.530300929597296,-28.278919235549914,-21.58468235068837,-19.90628489628595,-29.82281645695926,-36.105144421506125,-18.469046944450664,0.596610980895953,-4.2136688917956455,-15.610338607407758,-13.463525051683959,-4.593225320578398,-0.47153517288692903,-0.36249952633376736,1.9487407875274965,5.309333936731248,5.185272105096731,2.7954224114319466,-3.186910092269054,-11.495832651512378,-9.479397065677134,0.3853768799043653,-1.671299466818752,-13.254251440658761,-16.10765332815756,-11.31283207144735,-10.709933462673096,-15.796718632241685,-17.82128263238694,-7.369339165237879,9.315313588413158,14.124670085853431,6.214669035988109,-0.635679033463564,-6.755278646670114,-16.997734392525878,-18.894010051838123,-4.40695708442801,5.425224996290847,-16.999183812176902,-64.42722614096026,-99.02264225329331,-111.31505613776494,-126.4146788157243,-142.36541650130266,-152.49912088010095,-169.12425148050988,-129.23040041652786,48.31518807250278,307.58754993533574,552.7087122866236,677.1030472389186,481.26195470487005,27.036461794663268,-240.4591727216451,-187.23912724619916,-141.1481383851234,-191.65750749310337,-171.72857267122663,-118.12358623600556,-106.88574663876201,-76.19136149264241,-37.14192888050181,-38.08830991384025,-36.95928930508734,-17.160603674966268,-10.551038319757382,-12.885155235642422,-10.48233299013718,-7.344723569427508,-8.133702769712617,-10.831654011457465,-2.0822535373420497,12.50952157276691,7.600936816057189,-1.3453032611184979,16.448952639393347,43.10251665993619,57.3978862441557,67.37152193952427,68.94923649052335,57.038149979282196,44.69028054416904,29.43299056614599,2.8652063770102227,-20.91904169272391,-32.9710927042174,-42.03935246532027,-52.47306232883254,-61.466079915645196,-61.29659455170908,-48.655690970611765,-39.38232048972716,-41.23329472865455,-35.71166002650746,-18.790878229787925,-9.315598217862096,-8.882058918908875,-5.449168849894207,0.6536683275455992,5.367669631509155,8.805051930754578,10.403552370012084,11.562976562102246,9.948801883855635,-0.4198074291776255,-9.54798010253998,-4.234767432778371,2.384065640544696,-1.8107292907006514,-3.0799820600343537,-0.1350153665496343,-8.28287705831837,-18.107266080161963,-14.54183723036507,-8.504860168942209,-8.365525155245162,-8.52234437638116,-9.365445638935409,-11.748114947192125,-14.313981398797964,-18.16688959924072,-15.129679758910699,0.9717005337376854,12.76154412181977,-2.1950731239569485,-40.69379409272604,-76.08014360713716,-98.14879023843719,-124.05216831694044,-148.4825476763418,-157.58169230737022,-167.66515272432332,-140.00671881991275,12.718150511034125,274.9153900046191,548.836387195973,689.9636231574334,496.07260832194595,40.28557907597926,-241.82807616892748,-206.22173484396097,-157.00727080222265,-193.46891781779368,-165.26114319985868,-105.76719705307727,-96.00108223739323,-77.316911825374,-39.527696943696455,-27.016129039070506,-27.001778700115402,-27.693183478960204,-30.221568556603835,-25.22166137122133,-27.04318663372612,-40.77436508818848,-42.740070882934475,-34.18252314484864,-29.160269275973967,-19.543575859959056,-0.005298173794562544,21.535714915372075,39.552441517139165,54.31931800071856,68.74017902319139,78.77516596742207,77.03362497371901,66.68156172439777,49.044139864052724,18.110048222809933,-17.917888620846675,-42.49698185825496,-54.277327357038345,-60.529171025926374,-62.134326750066805,-55.966090482974124,-44.13120412597014,-35.006791688562764,-30.807340220208744,-24.905098494787097,-16.93957343357605,-12.388065561674708,-9.646235437718815,-4.512627753089564,0.9170294133873647,2.098899534548913,-0.6386212857373152,-1.6609193694402862,0.7366095329055895,1.3172581248792845,-1.8470251400846323,-6.51371175894695,-11.197684352779163,-11.588263439551403,-6.482816846871735,-3.201003884920013,-4.315158846394709,-6.113915121593376,-7.604803540267348,-5.691895066094514,-0.7427659246586131,-2.8766761287886027,-10.682706623481923,-10.747035178063019,-5.3210806603487555,-4.488895693827779,-5.473795519609446,-6.358210823344695,-12.534993139037486,-19.90386519007477,-19.1056111716777,-12.958968951437022,-9.083008050295565,-3.8614524307507754,8.601624481942576,15.077297701645094,-5.894370585917796,-41.48108817745933,-57.63609093382493,-71.37034899193861,-120.48792083869596,-171.41224901316338,-186.73682999537502,-189.17746657287958,-142.09203013857785,39.63959665423236,333.45315766116914,617.9766465192853,695.2479675361918,392.99554641566067,-75.92749161837476,-265.5061887784036,-183.19335807922937,-163.50366919601302,-207.71146525546823,-159.5614503226152,-100.88733435622285,-101.32572302240007,-86.62797748323396,-54.54498907583976,-42.97689121530645,-29.909497720530958,-13.05118903636209,-12.273123423416479,-17.442716657037927,-18.07918662626691,-17.246615990359757,-16.94881797300693,-19.88872525735783,-23.211233486906426,-18.349999721053102,-4.180071443007413,14.79335138101534,36.702584305065415,56.677167325885904,63.623798536713345,58.09768888821985,54.65349957424142,52.7577217725542,40.31227520648534,21.46077049387777,1.928617011516879,-21.105065546540736,-37.21523114016942,-37.24901896009297,-34.438469650652245,-38.70466321589849,-43.873084888876306,-46.552773425669216,-51.18288804709533,-59.945675023844046,-61.19888374848598,-39.545342794075864,-6.795383310539261,10.772491767778066,13.022060760158212,13.940271244513358,14.332103937724574,10.534535298612148,3.4990789279708263,-1.2161857024734388,0.3384047394003744,1.924526701827114,3.392305494559107,7.817510860867635,-2.112006439422185,-23.92936058207364,-21.67276593228695,-3.0195233462284783,-3.411214380532268,-8.240805620359719,-3.3674222085607006,-10.370582233070433,-20.025604027493547,-11.609095191946029,-3.9649824576427406,-6.745511178220518,-4.6401725645790854,-2.152873890770799,-7.0140725198158655,-2.1357114267045816,14.65996850222119,8.29369854742059,-28.2419458807705,-42.01311469423648,-13.99643038522182,4.027712658290852,-3.4145840081338754,-0.9736016101144926,-3.589873650226327,-48.85237635202976,-102.05613132223667,-113.19613521776348,-109.65724200237486,-129.11797578791519,-146.92740911461505,-153.17924169733035,-157.82692615408544,-85.66312938055958,141.12683255105193,455.0787975402725,678.4115409237431,606.4398973303183,214.34961795073525,-156.2174102095197,-216.3338518495713,-158.4506417074695,-199.15384785801032,-207.03546041736485,-121.92938635721956,-84.94295945447982,-99.67983429152429,-85.04254177839334,-59.04043366858063,-40.04295074138058,-23.39333349239927,-24.822282911548395,-24.768398491091823,-8.389028854164415,-8.787124742575479,-22.499588029141307,-19.319765125466922,-9.70852891618405,-4.025684566077441,-2.8907659605761964,-12.760294707638796,1.8962775582376565,60.416130179752805,92.25251437805727,69.48511675983715,57.3317125502075,55.48127454453938,18.922117666904455,-6.483847469434714,12.61827572372714,3.633190497022845,-56.90957510621084,-83.73449262307275,-50.882032481971265,-35.528270993915214,-58.1347923126635,-51.50230245874452,-12.066315086335486,-4.42942163394601,-17.06507014248863,2.426358498045726,18.48371352429779,-17.11406897630259,-54.06021899880017,-36.96069273876361,-5.936782702002134,-11.323827485004617,-24.221005774680044,-12.058269330107152,-2.848495536996836,-9.647725316553675,-16.823628922357226,-38.26902657763381,-52.36821773774943,-4.177898435903149,49.28266974689139,26.633961131423842,-7.657415673746886,3.724409882491681,0.5473439669546423,-32.94723937514062,-56.1079467845135,-64.93745681986279,-36.88625133478507,29.107207332889367,43.38248573159515,-10.368384663897416,-34.090498936073786,-16.209344530167435,-12.457610731755413,-3.982106912125438,14.478190450295607,-2.133412695622823,-21.973673386322,-4.89718543753736,-15.00832670412403,-61.67281757094038,-44.72682847539023,13.26608768803107,-15.954016886388658,-96.32018227421126,-112.56980813788775,-108.71031744726017,-145.293490149572,-172.50402227971452,-180.37621323289073,-150.8223974197257,21.694935892587125,315.85597650603495,576.1532227547417,673.0556592580695,464.9780068273086,20.14882648450609,-246.52273164046335,-197.43496943430927,-154.9281050073621,-199.71801579036418,-168.4238811329941,-134.5339457837672,-145.120425488072,-80.10078137588538,-14.261203241159208,-49.55800771188913,-64.8919842949309,-24.683817183628932,-22.99012391845926,-31.292672755171395,-15.53698370921363,-28.087780752523926,-43.07891280448274,-9.46326121413848,21.778972662145794,11.881051983199079,-1.0310664666134066,1.9662850708575181,13.032774595798509,42.13208545798748,74.03959275304777,68.88632662447135,43.32546049167966,39.01814182925376,33.76458704844181,2.4707572514831924,-18.697601986393273,-17.384600170457734,-29.91058940955334,-55.42121993190426,-62.03715277339438,-47.829607715942004,-31.38774895135448,-27.23284598056253,-32.331440752191206,-25.684894155957156,-11.728380113988806,-16.17691711293975,-21.73484770256334,-1.70026990702193,12.552101003092533,-2.5636050967882333,-12.170887296975934,-2.3319075263523636,-0.390168447888275,-10.710632839561914,-23.110666142999328,-35.279719878842826,-29.82508386378513,-4.606642242280088,6.3594396544678204,-0.8218463742241724,3.3484660909764834,12.715680238630405,8.849004269955508,5.431635225418759,2.6157148242513806,-16.916818277374986,-28.825795002450064,-9.620330549544413,-4.294071107402424,-38.71331606624071,-50.003666030855214,-11.352985282419745,7.31782242698587,-23.922236306495773,-57.86058621315456,-78.77116351626785,-103.64741321310782,-121.14156369502473,-121.63353158978808,-132.16708556330627,-162.3405848148533,-143.61942856080708,-4.835115026051184,226.34847927232295,489.69658186242754,677.9273965831956,554.5736965809489,110.29322725681254,-218.88366628266908,-206.29339272979615,-150.00491667409054,-194.4867741382265,-167.9033053806961,-98.98105940361694,-109.42655318245879,-114.78413744737641,-69.67444633493689,-45.38589380854867,-31.9802068220851,-12.472320551276447,-22.48820925843912,-37.28812280177049,-24.7171615195144,-14.632923173418064,-18.20715933111255,-20.53398785745482,-25.49484376247537,-29.766010926260165,-20.46984276987761,0.9769896456953209,28.50348427433492,53.72164987253593,63.56013710046454,57.59776864270897,54.351239865190735,65.75859148039874,68.25380297735653,33.692578697172074,-15.486061709554352,-41.3499301186309,-48.5648604869981,-53.02448041140665,-55.51156714078588,-61.64248886414649,-66.33306723505082,-52.827036575193915,-32.40221286306626,-24.6875155132905,-18.3998823329783,-3.908523333760133,3.415019894614346,0.7281561181701335,5.114868248957674,15.52854007926647,14.108845962496625,1.457178114849114,-6.224178083858231,-3.3640575737104292,3.010083235869674,2.2444610817884403,-9.836055420129902,-22.616803352431074,-25.235600245420034,-18.047318756476677,-5.1936894122082045,1.2043189413834767,-7.676272685370211,-14.420865952425181,-8.229246553348997,-7.368036806671441,-12.53904379229279,-7.347959730098665,-3.371388740978439,-12.398533408674375,-19.098503067033242,-23.484219425470577,-42.62394682226851,-70.38071716015796,-96.65917001118481,-123.87417397640183,-137.73240161517822,-139.39342348167887,-156.808589761958,-137.93660614031222,11.026494897087986,259.7406917893669,519.5967712060576,690.4087964388709,562.3107808149812,125.82401938859381,-203.92066904469334,-208.08529441485481,-164.77551086425086,-205.56854851042058,-177.22745392905668,-114.05875287470202,-120.53025218871582,-118.71448517466288,-74.35092318530752,-48.52795385506974,-35.77403093562334,-23.143882872760564,-27.634224641172906,-33.926656852785044,-30.336007664185473,-24.009774771612065,-16.202005071938736,-18.324523016824713,-27.973782216305228,-20.237233401556566,3.504133597532747,28.47850651200084,53.26856841149687,68.83983765574595,72.05967176105673,74.03894358843436,70.76211290645078,59.69592846098588,51.3914617006944,34.08134598019621,-4.756677905263722,-38.53501344269452,-48.15427047872036,-55.8209501672323,-71.02228929701157,-70.76454493932046,-54.35329882683405,-45.717478004959546,-40.818976290599664,-26.130695419255233,-18.19159563309288,-21.499998285828955,-14.256010325294028,-1.4751898286218967,1.2334294728124213,4.494743208200063,7.617645517519211,0.24574132818785088,-1.518288010146179,5.660188664449585,0.9329014993870395,-7.871165014826845,-5.508316261131835,-5.6433302124569416,-9.449360002875624,-4.119321310708095,-2.078956877998321,-9.928117496619777,-8.417647274396593,2.4126483757505817,6.151316065263146,6.755626009065637,9.351955131024445,4.710261522926626,-6.707310955011703,-16.68091508241259,-21.229045536109382,-11.857478682619883,2.868644755677277,-15.957124324823786,-68.77970864713555,-99.0586960599733,-99.64401905119712,-116.18851560346633,-138.2485347588923,-148.39559131581584,-171.05082232011065,-141.29276972286976,38.69608371817395,317.13197664668314,585.9485879883218,708.9239513582896,478.4429159552088,2.481183934025033,-251.45604353329267,-191.53484079050384,-158.34242859953383,-205.68748634577642,-167.5618938699364,-110.98974350896583,-109.33143542845866,-80.69952391539552,-35.72319015817712,-33.36047304780311,-35.36215823054614,-21.93068135026059,-19.118630476122732,-21.896324307464983,-27.68616288012825,-41.12960121362521,-43.17814714304098,-31.173012367502565,-21.65780056218487,-10.742237305030887,6.239475391995324,21.21525216424673,39.41119274123879,65.09485876165473,79.82534353275943,74.1986565598171,64.4445885623954,58.590442618753926,46.054954040029855,22.601299722817892,-6.575295633858831,-35.823957238330394,-54.20801258823512,-55.22021885756024,-49.880982304473356,-48.12682658336697,-46.297718911948536,-41.80549002231019,-35.36798117398988,-26.62982055443687,-18.57377056919983,-10.743397713139846,-0.19646604439191506,6.242241969522235,4.9353914868450595,2.182411768427926,-3.191875138569049,-9.864541804924183,-6.363122198440086,0.8350178728527986,-3.658158487035827,-11.59221729633203,-11.540418538246612,-8.179630997718734,-4.997723726750101,-4.480729001911969,-7.709119143012311,-5.780242897610769,-0.6085608367827984,-1.4363981361995624,1.8850810254655883,8.740338303393134,-1.7603578387833423,-17.474683594546967,-12.716000186050536,-0.8502032735544844,1.704871281532725,-3.2574327660750235,-20.110641287272447,-34.498401804708514,-20.319276835908127,-0.7361507488080754,-18.389385769693675,-61.02308161456971,-86.72264252304021,-95.65309793880692,-118.48649035933181,-150.2526986932694,-172.07913542384028,-190.9393787248497,-162.2477991904607,-4.4995567643590135,268.0683228111205,570.2590880797823,741.1784216375837,537.097926689115,38.515912732651735,-263.23171207793996,-212.51550808409903,-151.6344378547821,-191.63221912622777,-168.8607395436864,-117.31913470508309,-116.74519336833754,-99.73435753083288,-60.369117015322715,-46.94138780322561,-39.942886355018075,-31.373649456836382,-32.12294194757217,-26.719597372596283,-21.626246037355422,-29.9969170226756,-35.5727838344863,-33.434532272607726,-30.44597428825982,-19.66120772404326,0.45178587479244037,23.56012052570719,46.364071272225374,59.80844721254309,59.57428822833674,59.61507306340502,68.31922448621319,69.31147939220114,47.570963401980926,14.90747788576514,-13.376075318386548,-39.151218687109626,-59.944990007350455,-69.24663086377821,-74.05545305547895,-70.91533151753393,-48.377773607575385,-26.196346505417836,-23.446793789272224,-21.395126520583474,-11.879788938689323,-11.979580140651688,-17.357885245621645,-10.663343128808528,3.6353538379411106,10.786442624518777,7.57802967170387,1.9599246117097309,1.6694562926890413,9.575173671865523,19.41274176476766,10.067694780715376,-18.319045112474896,-24.185076441029494,-2.753692256547609,-4.79872073505301,-31.44247138390685,-38.98406064382419,-33.13458941255837,-33.99666875205711,-27.818431320401356,-16.231114039649107,-12.764602869228451,-7.025701115519475,0.9047921403184986,-4.52045970305549,-13.7154646454938,-11.264011919007,-6.100549567413964,-5.39769585187835,-1.5894195815314234,3.512885834678819,-1.0390869020706006,-13.210282730147625,-20.180495206121865,-15.803682250026602,-4.396762796817372,4.302819875168897,-2.5254902276888043,-31.44022145069451,-65.36001701004847,-82.02517454213555,-95.99747753910097,-125.42358427742505,-147.29791001380022,-155.9127606910342,-159.15046590883276,-91.77780936497179,109.15235666032973,407.34616150058,686.4382689439725,710.0582336156497,325.5464964877458,-144.5833702809588,-268.74273225670504,-170.89273893087187,-165.36361134097837,-189.17916040174183,-137.05321741548937,-107.84067893565569,-110.63162643937503,-79.6570844018003,-50.661368542840634,-43.502544998134006,-28.617637705224773,-20.865972987362397,-28.93526712213115,-28.71047353789438,-21.984895223120944,-20.980042052630807,-20.114082907131092,-16.43785838219072,-12.604197802049839,-5.219367844514221,11.901490740479858,37.524029715228835,61.62211922171587,78.77161524591418,91.10289668853413,95.04227551182382,81.78336151956209,49.13796355766998,6.605008236516515,-28.446346390291634,-46.1654889458641,-54.713261889601256,-65.83311255779262,-76.13728229061383,-73.48002492255677,-58.60400557386282,-44.61989691701949,-34.62062097525066,-23.170614305350867,-13.797109824457301,-10.733781414051613,-10.905542835781933,-11.638177971738475,-7.448218385668113,1.9563658622728894,1.9061575671786137,-7.269391011762206,-6.563154809569024,-0.35684723349440617,-3.2192708592005665,-5.747600801155009,-3.0215602926042884,-5.495406607174651,-9.214010920328601,-7.08158030386392,-4.967619739080277,-4.58210206677184,-5.268980623093579,-9.468339385230152,-11.733458396398278,-8.77631224351907,-6.557444972696199,-6.095252202109769,-5.725808258420187,-5.952528290653991,-4.813224442271686,-4.220276767940245,-6.086867087553895,-5.881270062828486,-5.867050253276069,-8.804782264757534,-6.889917899439544,-2.0724439542210895,-4.4079733887655195,-10.853964357317686,-14.805361443354242,-10.779130604758702,5.073322913348052,12.112886958950854,-14.321222028018184,-53.966437156842574,-73.29733436324848,-85.18193443849623,-110.92291333668695,-130.3004847324426,-138.98174309015198,-157.7104956430723,-128.8941729857845,35.079866424225486,310.64717901876634,594.3178908341644,706.5908857116741,446.0273645353675,-28.931841007049968,-254.12264915596393,-172.8192271575085,-130.7059216068888,-181.4470602712397,-162.44545342954734,-122.66001735533806,-123.90619170010554,-98.85531947899702,-60.42902067413526,-54.085702911549305,-46.66081550025298,-30.629973020197408,-27.443481143870876,-23.963778040473798,-18.572455424810233,-23.381147003856526,-25.934945431848803,-18.13886179324046,-10.027077960772157,-3.7754402265299625,6.4968270170538815,21.54802408637324,36.829914615419725,49.98113323084413,63.69567413537627,74.782030523954,72.01358142334051,54.38506806961979,32.81010715678768,11.118054108826833,-12.369843941416791,-31.725932272918577,-43.18806105423141,-52.2229528373435,-57.41409098127717,-50.90278515275556,-37.68932185010582,-29.045368794142618,-24.75502857854204,-20.63233992818811,-17.355154337172927,-13.423409687805506,-6.1362127545964675,0.6730944737135331,0.8434131308008119,-4.725046258394773,-8.50376484645124,-6.918298610789666,-4.338730609334418,-3.5736649458625784,-3.27855392362976,-4.203171312000816,-5.861904869577504,-3.5266096171050236,4.11869955404547,10.03907125698507,5.100553527481985,-7.065303033665565,-11.66069021718457,-8.904018134382877,-11.10963018294123,-13.198058439877018,-7.5943682004301,-7.276343763167741,-16.87958660723794,-20.003815491563344,-11.471368335512993,-3.165482909260419,-2.5229573520784534,-7.425296277391819,-9.59982499510664,-1.5473736891140781,9.25588120990803,5.894529860047729,-11.37422292626335,-24.72443645848356,-26.399367024136602,-19.99492784150256,-6.136973031580066,2.328555922537463,-16.609925977555164,-51.103061160243016,-68.20153000117267,-72.13326314090632,-84.67138457169838,-102.23728619849805,-129.28647648098712,-166.00433270602977,-141.77320374316696,12.374105385776659,268.3372543495104,539.5501602351013,655.8022689594598,425.3257698371341,-10.716328517512935,-237.35432181817282,-187.17185848311794,-150.2757585464311,-186.051223300065,-158.23264428426046,-105.75699652813003,-96.21636404669135,-75.44544925256382,-42.664985678811504,-39.18315320395263,-35.414789974937975,-16.814281542250924,-12.517909477683425,-17.72966439547659,-19.363024826121915,-24.93444605665821,-26.696326654067413,-17.44810903346449,-8.803263913732106,-0.5907712864367403,11.367431772558605,19.358322702486447,30.962034404892883,55.416789553220205,71.91955330393152,69.68485004162713,68.09736419072624,66.11909084637828,45.60359288763106,18.08912930040851,0.09072833210444875,-18.40519315949884,-37.602862909808664,-41.15805287917167,-39.99111774895353,-54.31558766988301,-65.73228781676255,-52.60574300544932,-34.38364487566659,-29.25077328663177,-23.18127898750064,-9.109809114709964,-0.10638975110826365,0.2760127201370466,-0.7052528869806363,-2.0408451349323258,-5.165760703312493,-5.918146231712404,-1.2262495455841993,4.793353977912501,8.109083293360534,7.995489323020272,2.818768808590468,-2.9354412883319405,-1.4916269603410974,1.4021018164056276,0.6977126910652123,5.452615538359094,12.305549601143618,9.168378454138548,3.8670088948020993,0.4998288176339969,-12.78135260671646,-26.802009522713536,-24.73512630880992,-19.163844345845746,-20.176663379248755,-12.88801293350859,2.2793869760202945,4.38275190640779,-6.102647264257133,-9.004443922758156,-2.4102820426439955,-1.2180762961260108,-3.43624027557526,1.4986506706914469,-7.215720387663401,-49.83048036252015,-88.56443923172134,-94.40899292316669,-105.52958651297314,-129.03181317383604,-132.892584593273,-142.1928723992156,-138.2486725128982,-14.964401382178437,218.29560277955036,457.51605645870023,620.6023578946587,530.7724359889372,137.58973868834164,-187.19408462876072,-191.46144687346597,-136.42236971166642,-185.00938474371335,-171.12223335740862,-96.75464653244791,-88.56858714306956,-89.27751913108376,-50.47701707071833,-36.42499993370484,-43.58779327066391,-33.88880689770052,-24.91001051073789,-24.393478082413644,-19.77485590008332,-16.06077496254531,-17.667468840903744,-18.11321205370604,-13.155145151399804,-6.912055241235004,-0.70009368209852,17.59881786798929,43.6458553170864,51.265162209096125,46.48267448794658,54.72465647866693,63.85356228055991,58.50549320357,51.66999324203033,40.162564310775785,11.465260435718648,-16.427245953082338,-26.78763760001879,-31.1449352621612,-39.711250616093196,-47.89747724898884,-50.04068289466226,-45.40727353731302,-35.418253386019316,-23.643100162022062,-19.74470746102392,-26.220555996953774,-26.31482628951705,-12.761052517375987,-1.7789657816167228,-0.30224801449610794,-1.7261448751788464,-4.104586957999015,-1.0978501074743416,10.897713181420151,16.772841802935446,7.533938191857153,-4.600684909751916,-8.565566728425637,-6.157975588622859,-5.800515730752142,-11.281338893157562,-16.28208023214667,-17.987422289513876,-18.79898239833925,-13.51545740923973,-2.91526091154134,1.297793221569039,2.85399370512218,11.820300919284762,17.0685307308639,9.579102553235423,2.2892642441378594,0.8319513010611708,-5.886122724570889,-19.554393961448348,-29.43061975259393,-28.32321083589224,-15.307072784310652,-2.3046870112187747,-17.68526972698819,-63.89290272749516,-95.03421754322514,-95.48831670504389,-108.81115288723828,-137.1485302449657,-147.5281150767166,-155.0693335825144,-134.11871820222612,4.893748537267683,253.0342920604362,516.3700107061329,666.8581444338976,504.78663353159413,68.4859671181745,-220.8164900427673,-190.60210578859582,-140.68178623435347,-187.11328119602246,-165.39388012213738,-101.04173593079989,-92.457749949011,-77.90409346278932,-44.485718621926345,-47.200463455310064,-49.2121540944831,-23.875566236209963,-13.16465516358226,-17.759405201602654,-15.356299581364016,-16.622925722852145,-22.662790396562023,-20.283070012899195,-9.14868018163133,9.338458912662956,26.419319772212052,26.5444875993921,22.18161355488894,35.57879784650516,53.87467417444749,57.43876699604122,53.20244148185229,47.72295078413005,36.3449529773778,21.055266880763774,4.978680885624749,-14.303863738041283,-35.238695700921525,-50.98367464513752,-55.48448309967823,-49.65235948392835,-41.97690485462185,-36.1025140078975,-27.613769266100856,-19.10348478499968,-18.663681838080056,-20.20864343960772,-10.807385215786026,2.098948852999083,2.1740930051388077,-2.9317406587078345,2.901373219788134,12.333850717283179,12.356808973069048,6.249857414209478,-2.2288864899478185,-14.54841011391625,-23.89234316393258,-20.80748251287578,-8.878911194559214,-2.907944935238376,-9.725885822821535,-16.81837362834557,-12.29487308670304,-4.221623481484485,-2.595968103204193,-3.3814502073405652,-2.377895784554525,-2.153495599870457,-3.692839568741693,-4.584558085409586,-3.12118458922048,-2.7944832878972115,-7.510920642795398,-10.44315687689786,-4.708201272658151,0.39890238348043994,-6.08370822732514,-20.19232172432205,-31.003900855760893,-30.74892306299436,-18.944072645103244,-7.771657918405175,-19.322571973901862,-58.3536631446177,-94.66678461259079,-110.22535923527712,-124.92840196140229,-138.52198907790643,-141.05403017872044,-151.08081412001454,-123.8449723048381,34.65709623455871,309.1461062190935,590.4746409939311,706.4832757367093,460.1914284976053,-11.174535919129958,-251.16081356444363,-180.85944498116743,-134.02875760974194,-175.51920609636335,-153.088799716778,-114.62098493477106,-116.20191420543136,-87.97723097492539,-45.310106918969105,-37.84522492460788,-35.879350590547844,-30.96821029140635,-37.110142999287326,-33.84685741379454,-20.22781328481412,-17.191944416046724,-21.264089337230537,-21.84927742401569,-16.473351385402882,-3.04800812003052,13.922370579494153,29.065930851643586,45.57073374715152,60.668377216405446,62.72368797936937,55.5811967386478,55.28592065864624,56.57855694335781,41.22671604904465,13.09918181706274,-12.36182393123054,-31.542601031978315,-44.31597462900973,-50.673247982332015,-54.938572618236165,-55.29705531565305,-45.98348863754228,-31.784515787688147,-21.54473729929008,-16.327981301749865,-13.438694863334334,-9.19999635605662,-0.6287044109928175,5.752019678740151,2.3530088800988427,-2.7631764596274166,-2.2423238926699085,-3.2969473924876027,-4.551396749181221,0.7090725476260342,0.28422507068767544,-10.89005064350655,-15.630408418563128,-12.408450866903124,-12.617949711910818,-11.245284150709326,-6.0370055472500965,-6.5755631753507515,-12.127875612279077,-15.191822260471064,-11.368349792844267,-1.1978517605268895,4.754254855662648,2.2455485877646293,0.5764877606967644,0.05850260027583154,-3.865607923579276,-8.024387721875,-13.063525960106158,-15.88813101375911,-8.180336772924019,-0.8377297189874149,-5.5653905832412285,-9.006735571288406,-4.260151494673639,-4.4233817485154105,-10.652011302629425,-7.5266105251474436,7.673948294577125,5.511054887426717,-41.15616905061054,-97.62089885649412,-113.93826726737582,-114.77711476304808,-134.6641895473202,-149.48958557994888,-156.70498948545185,-156.25622157958782,-65.3043912164276,165.38342283818116,462.3221540670564,680.7661729581528,609.8390905927067,199.0038072000503,-189.76817478445247,-243.367451802569,-163.56122060001366,-185.26613712800005,-193.5857656102098,-125.22733003507656,-92.55453253139788,-89.07379228699587,-56.32403588379938,-33.08039792310432,-32.47893292181679,-21.344430644760077,-8.093346666208674,-7.995218763117187,-13.319098441063424,-19.379246821309692,-22.35934100201289,-22.341430299803243,-24.41801543408633,-20.941234008406106,-6.209524998011102,10.970191210081007,30.08333907671899,53.1145946476731,66.63713514221988,66.74676888428361,65.04773151018728,58.544474555283045,41.02542362297387,23.050173589975696,5.733233379944339,-18.734983743169906,-38.39401509279301,-44.96460300779573,-51.07680797539745,-54.45349544992322,-42.92765632217963,-28.826159868759422,-24.72654225581023,-20.76479164374235,-12.416655514301747,-6.865367190927493,-3.862122668159353,0.030346551321715154,2.9677650874389094,2.4572472674036696,-0.947167984695934,-2.1413836393470262,2.646540229903593,6.6988774651588,2.510017295680578,-3.8145925893962502,-3.808599413791839,-0.0002908947678648133,5.147341369617967,10.470088215409495,4.337088050861018,-14.525975267870084,-22.399327200249125,-8.678096150065148,6.468843962219715,4.12540701936571,-15.229833224988248,-33.851552146374516,-33.40571119876473,-22.137931504984767,-17.903177286476136,-17.65939677370744,-16.371964330246538,-16.519001706298717,-13.927185338359973,-10.012222639483184,-10.763597009799838,-12.709473322191855,-17.855797707252314,-25.23739471921684,-15.19204208951364,6.625341740377731,-2.2163798586031866,-48.56797285597805,-86.77549786083802,-97.99303185459064,-111.68560021834011,-131.57580005929316,-137.0153289457566,-147.60859299446508,-152.9819124730899,-57.21373041355257,178.67707535326156,471.83652165407403,671.8418415098872,572.2270195407448,157.38132357997154,-196.80459809818453,-223.11675077790233,-145.6474237636629,-167.5595626150914,-174.1206521994965,-122.70513415390438,-100.81638337363847,-86.59895196739595,-49.12036842700302,-33.02124136030386,-36.90193451497367,-31.080523295407467,-22.992574389001398,-17.378931032268362,-9.481724337116997,-6.180541967071221,-12.271553346401927,-20.46954441650198,-18.23561415959742,-5.499787882389722,5.724929240655416,14.45901859698402,24.61971077307179,33.34358898767563,43.79567587028289,57.24589697985266,63.828265892885305,59.26645483418075,45.867458268468354,26.778712586466852,8.523808331209185,-7.76378769816116,-21.97993629376226,-28.468514884750665,-34.231698224546975,-48.30207164961435,-54.98536665413451,-39.996581833063004,-18.72381330008418,-14.620509734696839,-29.50878054794113,-39.77691554494678,-28.04831933682584,-9.069090780667121,0.058276761207437744,2.681563124262958,2.094115207150878,-0.17507878520410358,0.013403334604600303,-1.5365548150098824,-4.888157756068306,-4.524123607209621,-8.521024881926834,-19.2868450857666,-22.144769718888966,-15.541177177056813,-9.94807789593293,-7.76474872078883,-9.627792386522351,-12.918674716454138,-10.297096442174569,-4.577818096191088,-2.2412663637565693,-2.520743645905103,-4.963681711099397,-5.91069561113423,0.14726184470514525,5.418763882442374,1.9151120276711993,-3.313448382944955,-6.318231225795863,-10.445237976639625,-12.18496878184138,-11.42591324213149,-16.85285471064183,-24.338403208228975,-18.057501787803993,-0.972210812079684,-0.09029454385377278,-30.742144118100956,-70.73361281081559,-95.03285218313262,-113.46836544463642,-132.13543153209196,-137.34916330594743,-145.23458861149874,-150.44585807244349,-66.56347665783774,149.34459640133832,429.90145235564273,651.3355820473245,610.9847142222116,231.22201551803974,-158.017418531765,-232.87831849627128,-159.62031807742153,-166.9974268114458,-166.94003135964834,-109.46073969701243,-86.74642208454588,-82.81696202842116,-58.802052305309886,-49.67617951055413,-43.91259406091217,-21.062791550419746,-11.132503014346206,-12.066431091512342,-1.4397051520092816,7.895098437440483,0.7623509122275536,-19.325184147969182,-33.74364318716371,-25.226616580357536,-9.429678920114933,-1.1627076670949474,15.749924861574337,37.702763622036876,44.643859793581036,49.61525353870866,61.49034031356637,57.70502710348886,37.94451117963139,25.116535493656396,14.372392170324254,-9.398290180456675,-32.11758511682592,-39.33945882699217,-44.54379445539821,-53.5393461249501,-50.657463895690675,-39.22334308825005,-35.39209246662186,-28.908579309532737,-10.542287372887216,-0.5938256259609034,-6.152522553920154,-6.043640775637863,4.788485407929111,9.631804139167361,5.226304899954453,4.3691493289035765,11.398199327103892,17.5534100041181,14.914379513449873,2.8453859105231913,-10.85811318258618,-14.386453753929,-11.14080591312508,-15.097768819784676,-18.653507482187866,-8.012709014886934,1.2491631268173382,-5.798324573476474,-12.685442107629795,-4.226590629552145,9.463797748984005,11.629431431950529,1.9559212029819495,-3.916681005378802,-2.5537483784572537,-7.168695055878228,-14.165976852606352,-9.671844639562629,-7.869323002436438,-31.964121587146302,-66.6416187118206,-84.43966222183657,-102.91927996561117,-138.11755150230178,-155.7345540187937,-155.33320021698745,-153.864686627892,-66.5309173296956,159.4546455072497,420.1818570480526,607.6570716739791,599.6002781035808,279.88421582643997,-115.80077285670605,-219.91377736955292,-149.08211287295342,-180.78633751834133,-212.4711612211844,-143.03732534239353,-107.1581478259369,-111.13156136178902,-73.12569260791818,-43.76475037323023,-44.49675879106114,-27.773119934076462,-11.970504125213843,-17.218083986260304,-21.346178862132625,-23.045659557911563,-22.64862784577157,-14.180385128451956,-9.500864762142808,-7.128768005181058,4.657853802095935,21.591402122647523,41.96583566868608,61.40832445839396,67.36787328521908,66.7193708938768,66.97195335800527,58.51610322248608,47.08320793766721,39.341413592312946,16.371614249483606,-23.299691570662375,-51.33451891664197,-56.70542174260622,-51.21206230624575,-46.465737172004026,-49.63650940407874,-55.110907760444135,-47.80989664689863,-29.751640298834282,-17.082962374266902,-11.20159237086812,-3.997491176305001,0.8298538851683386,0.15536424868333398,2.9796271631060254,10.162974897370454,11.558585951054042,7.963575400451724,6.214227953132151,3.217113414015463,-1.690640709565379,1.0464969607024193,10.589693939730486,10.380396011004517,-4.165480157240925,-16.374624202505466,-16.128309491934488,-10.385558883227366,-5.02885856976998,-2.947440306811778,-7.573565793423079,-12.934219715912597,-12.402440723236126,-11.495105810237199,-14.191257287997036,-16.21688720891219,-12.960578357699351,-7.048176259802238,-16.50574608889375,-48.02244176068015,-77.67343160315414,-103.02886664826937,-140.00186245953302,-164.5668268841927,-167.65889421084643,-163.66528050060774,-87.22876002432847,119.91282041341596,389.60250382174445,609.3047198867037,616.8587241691376,292.95050016797745,-111.4475947383439,-229.11890623488333,-160.4731513253393,-173.54914237108716,-194.24835604220732,-128.2556752131521,-91.66659359200376,-99.92599795354494,-73.92596897951009,-43.46252364777115,-34.82401907399818,-16.4752682736151,-6.965049310755628,-24.723622621890588,-33.08999546516027,-21.72928431416534,-15.209459744672902,-14.15894696311733,-12.920016098130944,-17.36257267133842,-14.934572501490285,7.432913655530227,32.317245129660556,47.643909082166864,62.40965542146638,71.3633724955747,64.98484214653377,54.24871404541696,45.92956337449279,31.256046345370812,5.858073119115906,-23.961214475559213,-45.01282398992694,-50.32142442896749,-47.74087701742078,-41.87987545628434,-33.89704127414695,-35.02773163591943,-42.11482875699857,-34.71423375784593,-16.675765838501754,-7.6649381407083865,-6.226417687434832,-4.474986079070735,-5.054578437040568,-6.6469322722514725,-3.9278745286313956,1.1876174134248991,2.0119020366706266,-4.026417293264906,-9.840235485728826,-6.968798871142029,-0.020051418248995034,-0.5238720747985823,-8.403170606387533,-12.912611312280337,-10.041358168149877,-5.723730155328088,-3.459241025912622,-2.3542203032452402,-2.003118842872169,-0.7413716382242335,2.465405461872784,7.463008683299641,13.231350329201074,7.377570505467908,-19.54249164410459,-44.07748204208427,-39.49199093473129,-18.1875454980345,-6.066551604597491,-15.654694897742381,-48.106281462532245,-82.01116902704857,-97.70754574087235,-109.87285661565187,-127.2003794888524,-143.55379878882974,-163.38100711960544,-140.48080771201327,5.575603268272133,264.95251027696634,551.2057031764367,707.207014011679,511.6089717819409,38.039992575849645,-259.2013212610327,-218.1616741796011,-154.8904789067082,-191.44766596058798,-169.07956864473653,-110.54288530071742,-105.52429017077468,-89.65287219536745,-48.141453519186186,-36.92858850440828,-33.37950865253401,-18.301170349505057,-16.50351949482392,-16.356559082581835,-6.710228306612244,-8.6884664771632,-23.23875624819412,-31.72964837639561,-25.22012248296014,-7.5346076691865935,9.499515780702168,23.503137560145888,38.26888893101493,45.766762715310996,45.79418051670632,50.84789477183739,56.553396691142545,51.095711896622255,35.645491171640884,12.383541474957408,-13.849398423273106,-31.92521960501532,-41.59331697990385,-48.701941154190344,-53.20642408921093,-54.32190896179403,-46.88990396404295,-30.05513539998855,-19.418177736990284,-17.859981868864175,-11.122237983556357,-4.371472451574668,-5.426200294889572,-2.2605680932985983,4.132949689769614,3.801491266576541,4.467617144203549,6.71164416877675,2.474025203232179,0.44336937990787106,3.966152603392576,3.3892599977115943,2.746133869993015,7.066959204692794,6.187914850130888,-6.418047305245217,-23.666701430446142,-30.462179985869128,-21.063062151241123,-12.379052570549753,-14.923411572094267,-15.195212324881098,-8.727366560906372,-6.175492998685698,-8.790553115732646,-12.766437232528844,-16.104773117142805,-14.263824426583497,-7.120093487316069,-2.7090980746104805,-14.836060556889441,-47.00225051274572,-75.95551207567257,-91.45349260123791,-114.08272314125672,-136.1512104250521,-144.10677863025762,-159.94334685097334,-138.46610888627248,22.026116456546944,310.3739762126448,605.5841905461649,722.4843894923235,471.7875004605278,-3.7804944414779627,-256.9775604241891,-200.5045642261573,-154.92012090554863,-194.78289588620095,-167.52350078707877,-113.36310171525255,-109.25332562790278,-93.76744111521118,-55.59346544576085,-38.55587221787171,-29.448280151353874,-19.623428381225338,-22.53618920398071,-25.539752977813485,-20.342703367080855,-17.045104460711798,-17.8562995346386,-19.993587458734122,-20.62674226271105,-14.794709060072108,0.5653392167492166,24.48875424036971,46.15711464293747,53.66240808765484,54.212607227290846,59.50428803033861,62.9548989596769,55.652304631610164,39.533793811908865,15.6689090753082,-12.305117932120421,-30.683301913498923,-35.08043009710706,-39.28348127626199,-49.86807147783624,-54.6758479171295,-45.27141290564243,-29.844411111653464,-17.471763024139683,-6.889262553539499,0.4989698700248688,-5.3259406169676815,-20.818076639733082,-24.172520040325608,-10.249803744874239,0.21297761785499603,-3.0865160015236768,-9.159181834949099,-10.94452074970554,-10.580890689500059,-8.22485233040124,-5.596348409365657,-7.494124412356026,-11.542552512048601,-11.2261250616898,-7.684722193853391,-4.375268154820105,-0.056562935073353415,3.1936482617907753,1.7747091910097286,1.1770671240299482,6.337699581325577,9.579389875432089,3.1326814274805663,-6.743561402455679,-10.222443610592876,-11.184510921597209,-17.034176495064624,-20.499259480951906,-18.017169675746686,-21.775964655836916,-27.237192677728782,-15.644800143859769,-0.2253394324518858,-12.446341779206964,-47.69832248383834,-74.8894011942539,-89.6384736549914,-108.52840752383881,-122.89774904278299,-128.2258190360604,-147.49669510174428,-134.88728325812414,13.263901667669657,293.28736740953525,580.7319959679669,690.2356802396889,449.061702676196,-3.868302442300397,-246.36103920779254,-193.38316037855404,-148.85855437335812,-182.05089979055657,-147.75755004058442,-90.98658924270515,-83.79125380666778,-66.46797628528927,-39.196906507381584,-38.82288497334759,-36.60292208367778,-28.528735052506477,-30.797141250029576,-25.990308081643676,-17.859281744014766,-20.900229838556754,-21.53797024755415,-17.43045114297395,-16.29368169654739,-9.975647690038675,5.778071997102833,27.360853899245598,46.44203116644643,49.88801819823266,45.695024895725965,52.438181915369725,65.02326697679163,69.93143831528148,55.006716748277874,10.907936052957439,-34.55807025978411,-44.63609588397617,-38.49609587514141,-45.5085852966468,-48.536139090499844,-38.55838206268243,-38.8827061796616,-43.735527407927144,-23.412119791023922,5.223909590557096,-0.0924915336649903,-24.974724946934714,-26.03826766868741,-12.518589867926732,-10.290141629345227,-5.0089274862607205,7.713805238133951,5.153662831842562,-5.544751546698308,-4.950383094678649,-4.6898151974762285,-10.879798614315153,-8.146075987914354,0.15459891808497161,-0.919129460727099,-5.128655736159677,-2.503629705991173,0.6757218377896272,-1.5279649148305658,-7.087500275484835,-12.29002000019774,-10.834031022159731,-4.847004841310664,-6.919352740293082,-11.935702750246703,-5.691979212909943,-5.463189535330837,-31.97062151576018,-61.374119039350454,-72.2172184758359,-88.69305731578585,-116.11772164323952,-128.73155810206163,-145.05437026844552,-160.41243212678816,-70.11052888472634,161.46191549128957,428.2069203020213,620.592942927478,590.5903129482436,242.6181623247303,-143.99785317147268,-225.26421709629292,-145.44097015694325,-161.15273203770747,-179.40937251480796,-124.64324862911837,-104.53109153338771,-105.31600961598036,-67.28471527276818,-43.216057951612655,-40.31930605899623,-19.96541649713165,-6.878755315119701,-9.059378691343454,-1.834754943705228,2.9866760984563747,-1.9979068117717773,-3.0517049507274336,-3.8159560969854205,-5.256197257777778,0.6726778079143712,12.104967173172437,30.628804795812258,51.493540694126004,55.46461056027349,45.159011042248586,38.62056026475115,34.7821579861026,28.74621274466697,18.7023836713576,-5.360252159164695,-35.68333369794148,-48.90864462669522,-50.36117358705146,-56.72257487926708,-57.036250178519936,-45.7991177624107,-42.32597586308139,-45.632652891576676,-36.255576607708164,-20.97421228518292,-14.158449632284078,-8.098256636013652,0.9925319891037709,6.232151974064296,9.067629330179882,8.097939609034222,1.30941173189375,0.883139431793257,6.923203059088875,4.214505106582163,-1.5953912577368712,-0.6351462397946452,-2.9733647556722183,-6.6578763910865515,-1.319612879603664,-0.9578371680435893,-12.22284590896204,-14.479814976698878,-5.396413496716836,-4.466374423223261,-12.399165859553563,-17.178160156526907,-18.22753319234599,-19.064050451697533,-15.735044264516564,-5.443384902701817,-5.138516471411997,-34.753970183727986,-73.44472464682256,-91.58625737378935,-106.89765000553763,-129.89134198592296,-139.73074628743953,-148.94680421253378,-140.07788514572601,-22.099540623914912,212.388649167124,471.0187584907245,647.9372322299464,558.9854642910346,158.05347160380197,-191.17828082368402,-212.34815024821472,-138.7402354588068,-167.53110707547202,-162.66245761440476,-98.34904518627349,-82.99382775333947,-76.407553009065,-43.16795350227257,-41.39602799488753,-49.71683040324796,-31.873736964893617,-31.185895260860924,-48.44306277939176,-40.80452000014055,-23.36269117585489,-21.802150426659935,-23.014313916298256,-19.88923422053783,-13.661889275401174,4.181830664741949,27.84770425309467,43.2096018709907,54.40989195872871,63.88342909627076,61.11859951392329,51.1849042529238,47.10157754177667,39.06895931313184,14.749024488510253,-14.657784068936019,-34.7988094692285,-44.01063083475937,-46.74921344471096,-50.68252466627814,-54.845189945446265,-47.40783988242933,-33.4606982978936,-30.89690209028627,-33.955610040498904,-27.63447005659781,-19.77518950412813,-18.09703068069095,-12.658925468515267,-2.6604293241463672,1.247497859426005,0.32581858526336305,0.44426201336635884,-0.9739086292426222,-3.813438547941935,-4.0849376419498,-4.62008122703751,-8.455964869834517,-11.197434420969415,-9.971490960551655,-7.767817462165539,-5.776960590800133,-3.0945115672284516,-3.436238880131576,-9.070510704474323,-12.427330052243878,-7.484210022583822,0.3953386522208078,2.8901239751988292,-3.5311465431941826,-13.032956950471277,-15.632284347147564,-13.843426745698167,-11.277665890533669,0.5403401307940481,10.04845901824312,-10.808957340519347,-48.726190485429875,-66.84775260640329,-76.09913491071872,-108.669582733666,-148.69286042385502,-171.5448097670709,-188.7207758851412,-168.7762031358852,-31.310687200405653,226.08971940704285,519.4943296111696,697.8683281985934,542.7727302071814,88.90899608741594,-232.02845153727526,-212.07742132862938,-145.34506536912033,-185.34345921916258,-170.59980173222527,-104.93534441617666,-96.3708073416915,-88.49315949523347,-51.94918663080861,-44.41382142602092,-43.88272799684893,-22.224582909200116,-12.907095753753548,-16.673843595941186,-15.303996981589776,-17.545159615249226,-23.08312487778865,-22.9247333403102,-17.073328681155722,-7.206383916518764,1.1534217873646124,9.470163266435975,26.484887367483346,43.808670688649734,50.89272997024847,54.51510259852192,56.18523410898494,48.94978659310517,33.76842994377423,13.647463043298009,-9.400920665426845,-31.58129211953122,-51.10330861185343,-63.07292276666185,-60.754638183656,-48.544368644029234,-37.79621333891325,-33.05582945649063,-30.525370305400216,-25.62066647304536,-18.39152352961799,-9.410650749598531,0.12603792277341697,2.4876700641721534,-3.8949691917355302,-5.729426342728679,2.5056750124179636,7.934981598878343,0.9153725303801892,-11.915942285375635,-18.591009634039462,-15.815299871957706,-8.685845549369656,-3.647368013749489,-7.596605636681307,-19.833763067096545,-26.46675583433593,-21.9241734136965,-17.171352758439124,-15.453816155753344,-11.960793366758267,-10.963920790297763,-13.561497197034726,-10.026059314880825,-0.24776470471888956,4.777473506931159,3.8291605387353513,2.5321405330421953,-1.8603953527959263,-8.640755580599535,-6.954401899285745,-1.2913347190712123,-8.137335007388224,-20.039953628978985,-22.156363242612372,-30.002563897101158,-56.42713371454322,-79.63332608884365,-90.90428047976965,-110.58711925947458,-135.18559079412188,-151.51723940843607,-166.38631006626832,-138.37110006030832,12.058584822590248,282.7066803926918,572.6444986793431,694.3321547437022,459.7010965677591,7.256020555866584,-240.5060220651126,-196.4188440641952,-156.8200520373637,-192.43950399024754,-159.07913101926061,-101.08094615312316,-97.81995304960518,-83.54788019807665,-48.04268659588348,-39.07598656281477,-29.83593835677673,-10.153343977084617,-13.017941972334825,-19.62800324177699,-9.523815353279552,-8.82648373435401,-17.874411895063567,-15.563072130947322,-13.29021771596241,-16.94304692478449,-6.141530394303291,16.65646046988735,30.71008419654317,36.75344295501702,43.19284152300515,48.05973590087871,50.233099397507694,49.54939996619383,43.089943762076956,27.301732377257114,-2.76674510477309,-39.30773501475721,-58.74595142587186,-56.90233916835544,-54.69414402991648,-56.63978594031388,-49.268119925432096,-35.77560717457895,-27.667940641209057,-21.2748957761166,-13.165164032605858,-9.507333945755398,-8.871040675360856,-5.31593269294973,-1.1584790289323124,0.5586842163248207,0.03866395629149366,-1.669411826803504,-1.1553720253417694,0.0379849644943242,-2.3555266175932843,-3.399165208599733,-0.8212633877798101,-0.8105140469367313,-2.2284469089715557,-2.713784057911674,-4.222249189950308,-2.661840653212792,-3.5184217419934924,-19.177239007627307,-32.8073865078309,-24.068271296732,-11.934983129802301,-14.31234993690034,-17.42757361081345,-12.59271147835532,-6.961458902950778,-4.244625681640251,-4.38515641719815,-4.795812779744043,-4.028256712106337,-6.262387249752841,-10.580029139549165,-12.924488352054638,-13.483010683190722,-7.474332190238725,3.2617322219829656,-2.929522578752156,-33.87346627455692,-64.35329684447692,-78.68665773727982,-93.98984708906025,-115.77431041643536,-126.57044450943181,-135.53478210850832,-141.9466459743066,-70.57362999864407,134.1977940310545,418.98909089721747,642.8985834839594,595.0488578912082,217.17841181431925,-158.82380586166732,-224.12446598188424,-147.95749021969658,-162.8873431561903,-180.5186131707399,-130.89335298274065,-102.18592484373379,-96.36101138940352,-71.17428982420992,-50.92217861679601,-36.77485738626939,-16.294774656946988,-11.886210792907441,-21.01167501757461,-22.31781717327089,-20.53405713107611,-19.853258541908346,-16.138706098419604,-14.34318440597901,-14.60584588185191,-8.897607185866274,5.346166128309044,25.86158664538942,47.004083927757925,59.95034980873289,62.18130196044974,58.1618010292608,49.832426804601624,39.783878140026864,31.015188668531522,12.731150495761376,-23.228829464219018,-54.97249219880966,-60.05165418483144,-49.17431041563246,-41.06895243107142,-38.84412681014044,-37.43517615004438,-31.028760168017353,-21.648814410828802,-15.951814953224716,-11.368118836793503,-7.0854430228216785,-10.407119389988733,-16.802754176911655,-13.355203213645238,-2.2233509632538215,-0.3282531181400934,-13.768417212951318,-18.666807947013375,4.425584265759086,28.464031497595684,26.142088773102657,16.126526712720974,13.13724955153487,4.98862363296551,-5.874545787864053,-9.617119028594823,-12.653029918890434,-18.54147462006192,-22.43611682940054,-21.647335490050477,-16.95305123451597,-14.72208592786599,-13.390870672740851,-1.2544112548944568,14.134050136819887,17.003758098245964,14.084537036672934,8.811628781700303,-8.832617284729434,-27.19955837794813,-27.587325520477204,-17.119250325608405,-8.004254762936107,-8.166796141837814,-30.643010167342666,-65.0504228158036,-84.05316547556396,-93.72693703984376,-107.80104755726768,-117.46273987328459,-129.2890931870606,-123.77356687181287,-25.786003048568922,173.28746331528623,403.6762157204666,580.2297709794726,530.151348558204,182.3391687952315,-153.62754528067757,-202.5970477304314,-144.1668748827351,-164.46108278362115,-159.95572926058392,-104.85305348240134,-89.93980875337891,-83.17189844762319,-50.74138844675261,-36.46466815844157,-32.69097616242878,-19.74508768909056,-16.168480623692034,-14.526673090874826,-5.3188210014653805,-0.5886085816626441,-1.0521398572102356,-15.434336944781698,-42.717620420507046,-43.343479946922464,-11.317955025773758,15.219638055964754,30.641482374879974,44.77375967208937,47.463041564269325,42.758631878534274,45.350316181666564,54.03354502063231,58.20450944862543,41.573537488518284,6.316335800550868,-14.98786300969362,-17.951210382693628,-32.000430782918414,-51.558287183553354,-54.323190580726546,-52.86964626593704,-56.624730850999114,-50.73092835456113,-33.938569167483266,-16.5810986365273,-2.8174507916970235,2.748628900319442,3.1386397049581074,4.981369122188953,-0.18106530214478767,-11.549459180512557,-8.75987569969433,5.187032481943276,8.74021546769217,5.656073680845075,6.492156829232002,2.328033958436775,-7.95250006256115,-12.327251218102818,-11.249214483444568,-10.247196828277502,-8.06095792799302,-8.346658901118502,-13.56254549650542,-14.538405255811703,-7.227432401407631,2.4676831926379013,10.370196969489228,8.776573092186863,-6.953745276136331,-21.217901444714812,-20.49189690974174,-13.04911397959992,-4.617016533434615,3.6468596669068827,-6.905831872346777,-43.07442443037549,-73.00575942836136,-83.87348116006352,-106.07150760650869,-135.51497792839567,-143.15145297398888,-150.76853921873186,-142.99827326984317,-25.36280701896706,208.84684529974788,471.09909781072633,654.0336483987018,561.6718045134444,157.5869880854597,-178.4495161867187,-195.88002167757077,-147.01644733003604,-192.9386631737396,-181.66876093546156,-116.77436187832278,-107.72226898015103,-95.10745004440409,-47.260584150509274,-32.311581484091036,-42.13616890033304,-40.825626685165076,-38.69579881218853,-36.06107465462705,-31.05664611065958,-30.06526273850929,-26.100256069121468,-20.223897560365774,-17.155858774596698,-8.79589316632132,4.389134410711723,18.338133493008595,38.00076773080882,59.22617206801587,70.39017042582557,68.16002145045272,57.31399459092617,45.94654046004055,34.87587826775045,16.739023246638858,-7.17560583912516,-27.349453951084243,-40.1456753692456,-48.08269102935613,-52.888651654950664,-51.69855019308667,-44.01909950051755,-37.90331853634973,-34.11965450483105,-23.332399482521712,-10.02450341387581,-6.1706209104686245,-6.714519940713245,-1.618290293327476,6.566128200678461,10.534456567077797,7.722962698043174,2.6346146858502024,0.18488511001706698,-2.7663527902291634,-7.513988399605504,-7.6554088197664925,-4.8701560833652096,-9.000580531270232,-16.875530539103124,-13.592895958465785,-0.04230168559673331,4.283735607022489,-3.4743850414749797,-5.011999411600458,0.2686679239581622,-0.6884932139419675,-2.860614713784038,-1.2740463483498274,-4.635778219142736,-12.402143800294361,-18.227642214339276,-17.099415899450474,0.26952956430610975,20.402885544510863,7.600217333935253,-37.06406209279374,-71.9383013736466,-82.55462757100631,-95.92260005244643,-118.952701920978,-133.82006111379752,-152.80743569615842,-164.6177943952455,-78.1271011295313,152.39858133435985,454.3715104418317,677.4966556621971,597.9898139374645,178.037113600289,-193.2608574668396,-220.02890477086294,-139.98488733640482,-170.46925932022907,-172.97295234629527,-111.78533546870938,-106.25020718088128,-113.04663538670397,-71.31086937432718,-44.37449039258374,-43.629585854185024,-32.554435503575775,-26.79439827462503,-29.169716724204793,-19.115350992029533,-9.088921919704656,-12.266281321600616,-17.64104100820298,-17.858688776695303,-10.234391485082739,8.872709063051797,30.795474879907147,42.53956221801056,46.41417779071732,50.96175532118854,55.36174287042713,55.48059996033402,48.30000750675386,30.78600597491885,7.646752453780179,-11.372280622700796,-24.362441825103392,-35.58445415987775,-46.05693249005472,-51.30254750686273,-49.13079717285673,-44.63598459151146,-37.46199358194852,-23.15996279571092,-12.618826691292789,-13.739278193372982,-11.35542135218123,-0.19498041370344232,5.551506222224383,4.787661828763335,4.493303758378261,2.6532834902471087,-1.0712972159266858,-4.298375115914098,-4.500364316696418,0.030250043250125813,0.4130984256046677,-5.633233545468396,-4.984426417870292,-2.7779101836285687,-10.724802717687673,-14.426799817781848,-9.728737253792039,-12.855042261803273,-16.871869260339007,-10.238226366923032,-4.76536547518176,-5.94677525248872,-9.20341335527198,-13.201681913283199,-6.860304405827078,12.305253936399438,15.294650341603955,-14.932616751095779,-50.20545468872841,-72.04771393308428,-103.27482922213306,-136.72066064030952,-140.72797853746727,-152.6217372833202,-179.65291151078085,-92.50172445152252,166.94516431312755,471.58595275634946,660.3432417460361,568.227092659923,170.09665180655028,-189.62530965111048,-219.629699479564,-131.8887401405089,-159.09369161052052,-179.36458307965717,-124.1547687060395,-97.66501445890117,-93.82614768941369,-64.83220145191574,-45.8846777480225,-42.149104481031344,-29.912329511035807,-21.748469526786298,-20.940469713392883,-17.539224591172925,-18.00868509925769,-23.382981970117505,-25.435939802080718,-20.321262723237176,-6.882250767198393,9.533343871360278,23.41787673903444,36.47044568547222,44.692666346766956,44.95050137288254,48.40783395040972,56.81602241483195,54.00004130164487,36.11497481847255,13.410467270538097,-8.842047512021047,-24.755110339055676,-30.676835588157125,-35.501318964797775,-42.039147895729016,-43.05915925905666,-42.37237579153633,-43.34514007141043,-36.187595961138584,-22.81197534361243,-17.145855696929363,-16.6883196178564,-10.64002055139379,-2.20081963027825,1.6909526433252076,3.7124188948115204,6.982319771914057,7.483184375567202,4.2016100722464795,4.515184209162106,9.332582331948355,10.66892434550622,9.078042354100809,6.280748081265159,-4.548815545354238,-15.163420288063133,-12.851041625393307,-14.860770364266607,-30.270419711982722,-32.36695671452179,-18.612349081442673,-16.052154078325515,-20.99833028680915,-18.13459105929892,-16.468662260085146,-14.833214305020128,-2.4219840743896786,-1.943276182241835,-37.07699070507885,-78.64865851475948,-95.66238322651125,-108.613851453468,-126.57658457705692,-132.02437395401478,-144.64221583289992,-143.48448703110515,-17.121322394838813,254.1861319349292,536.0127444516327,657.7444542366746,471.6251334089735,53.34176882828374,-225.47879219054482,-204.47871414545858,-143.36461270360184,-174.74893021555647,-163.6229793808744,-106.17403374229926,-88.88295744064294,-78.29170896029768,-49.47655012734276,-32.35149735474782,-20.888807599090082,-11.54269333026761,-14.109200663202337,-16.13159843522314,-16.99441119387839,-22.92793909117562,-21.4335042714902,-15.036322060259174,-18.26291014950353,-21.792131028113296,-10.930721750031358,8.621059721708864,25.191148031066284,35.95537855720463,41.227459275473535,41.128829970852124,38.0333866997931,29.74768280453094,13.432033788320746,-1.7322841874151163,-11.339438693212596,-24.035873259407424,-36.65142529421799,-41.62307854075359,-43.63343930922309,-38.72959750994873,-24.59034669793894,-21.93144715622814,-34.23100735410144,-35.43093452141408,-19.936620399149966,-4.9760715244310845,3.325474560489589,7.325404393691226,7.2011620577756865,2.1506316468295665,-7.298082165839169,-12.574224111596347,-7.336136512839655,-4.375193387881193,-14.761318443946372,-24.684618798772604,-20.678889000459552,-13.163732489361578,-12.039462918105059,-9.55453552973351,-5.909917231335395,-13.284375164985136,-22.41068448891091,-13.800126839258574,-0.7912095695231933,-7.472273449200081,-22.611434785174854,-22.75282492211682,-13.63255565163595,-19.34961262940459,-45.45739611100825,-69.43063400590891,-81.73728373448527,-102.34382527282989,-127.16670024093459,-139.04482464473648,-153.86114967595384,-136.49403187671288,3.0469859332716993,247.03668332940188,489.59974408960056,618.7322405918142,474.7853638223213,81.60385556352554,-199.02144719708343,-190.4706646233351,-144.92020451078946,-181.90020673008894,-159.54950043625809,-97.39764593399181,-92.41628503974061,-85.62924535420049,-53.18638916180868,-50.09553911167656,-49.61060209199876,-26.66378228848206,-22.963826365739553,-32.05286954142842,-20.116695665273088,-7.192938082076999,-9.768205823295968,-9.079367469889842,-0.883280256549499,6.384858346446611,17.019746602382128,32.74378320002666,42.048610007188614,38.07403947634468,32.83254685668916,39.109696003801034,46.19056632568464,39.69827871800201,24.71268031916329,5.506425542459992,-17.941479868121476,-33.6713259114765,-36.96569363456665,-36.597159066818605,-35.73502386307773,-42.89849038250412,-63.15235624957114,-70.96036139799749,-53.391443518373535,-37.926967886612076,-33.56234628554157,-23.14416564892059,-12.336417908922662,-10.263564325390384,-5.6796360786484215,0.18601299335511712,-3.4972099376646426,-8.574741406072832,-6.404311205583927,-3.169238680453013,-0.8498130219606104,4.03484016408607,6.340449591687111,-0.6425150172359366,-12.782243080001166,-21.33795466453436,-22.305295990230043,-15.784768740431694,-8.404415211596508,-11.053604163302374,-20.206196703499494,-18.60032427436679,-7.123295623736745,-11.895827341636114,-43.33695243749328,-75.45156127949997,-94.50214617167813,-118.81376512129276,-139.36332273679267,-139.17174324374292,-146.87668443431477,-132.980719112357,3.1110732635126936,248.04152939299064,491.41358100089616,619.873111661221,468.37388648971546,63.07287658241972,-214.44691488369799,-187.20566016871322,-129.27848020813468,-165.03169576138512,-149.20787922958522,-100.11649039205581,-99.39881566894685,-83.98076419311968,-44.66432125951562,-34.94185013478316,-29.990961388069906,-21.115315402538798,-33.62843531546965,-36.992155099407036,-17.478459534885157,-11.752238004415407,-19.061421794468153,-15.274663297931994,-5.459677118265176,2.8109696860664695,12.989630780808316,24.99269641468034,37.15277476055801,45.17476257707794,46.29830116115824,47.79848425582874,52.339205355225744,49.79719669532822,33.8245148206144,9.067728799421628,-13.813220904105789,-24.240734794313084,-24.816377367772382,-30.793545412562644,-46.72478379156915,-59.024324890327236,-56.57518612658269,-44.62607015156575,-35.3159391631566,-31.979739454326044,-27.97862613849245,-19.3471918980081,-11.4149730829933,-10.715066919304476,-12.43501372996765,-3.89270295098099,10.165232837285728,8.318282194205686,-4.947817615711223,-3.0782527650944047,8.75953873883438,6.500551627158192,-5.320689126769192,-14.044057733873128,-20.534190126346434,-20.57223176706022,-14.817849506810482,-15.104582242075185,-18.860083050497984,-18.82116803439718,-18.97642875297276,-15.984532198761503,-7.582393246040635,-6.328991932347613,-10.744156043160324,-9.468059815421869,-18.501443796263636,-51.40195641070528,-82.0536867972894,-97.63591266146861,-120.35179992016377,-141.34286528803088,-140.85787981730692,-140.24832004500516,-111.27324737461583,35.77052252130075,301.4989082457539,577.5935501196947,685.1814265529157,441.49898202833026,-18.871539334933487,-261.9831515587614,-198.82431601048546,-147.93762090812052,-185.6673459529905,-157.6628004494413,-106.97632137811462,-106.99470960634423,-86.68918855359038,-45.831955079580645,-37.17791250002309,-30.905717246207864,-15.011810414862857,-16.402336167319632,-22.2880914481012,-23.025763038674306,-24.843233523787006,-15.445743870343515,0.27646336738053634,5.850415915395416,10.050983883988987,19.397013019469426,33.35555334476009,53.84248604970094,59.9412377178422,41.61413050054679,30.397793537348168,35.82667904619071,33.55848396813868,19.1304692106074,-2.004059199738828,-25.609468889312616,-36.241686047606265,-38.36978410294315,-47.39646708557126,-48.0728045194646,-35.36155404089914,-34.0620554756568,-38.75929533516161,-25.78295774585893,-6.770361260388572,1.3160020951930882,4.126915882599551,3.7833525976065054,-0.8734875455878424,-5.343975932936033,-13.008741842722593,-21.507368212459486,-14.139898636729177,2.909391452199351,2.9985069996793605,-9.857112392528403,-12.791974858116518,-10.36761910677808,-13.523502387494922,-13.128978958027048,-8.258831423281315,-8.167485103091227,-6.068746243779875,2.2503000411388925,6.25071590857689,8.014110589627542,12.197854536803845,4.356534096057757,-17.855738318194923,-33.56544266520032,-32.75843615897625,-19.129847359108812,-1.055780452018098,-3.325692547012153,-41.04844554466178,-81.42783845444734,-89.8338708961743,-90.27152708231523,-111.87654826212624,-134.97672653465077,-154.12030319102325,-173.36715449516112,-118.31955721967631,81.07032408306193,377.5113432588558,645.7664437997378,677.8288894114243,332.7142915991382,-115.82041442934482,-253.57223737612227,-162.12266199334698,-152.25172501613503,-183.39743658524296,-132.27318273836093,-90.5629473811669,-88.85988331143308,-58.597315031308824,-29.0871833378677,-31.74747137892078,-29.812517087621135,-19.326922013351233,-14.13815602073283,-11.588813395689158,-18.914278983578207,-25.169253439549966,-9.799422974224175,8.55899315287208,13.36386637245843,22.12861022015244,34.381243165261886,29.064095000947777,16.383414873790983,22.45037746215078,40.370662119856426,46.38257542082182,37.6343640825214,22.967412573511943,6.8710288599381135,-6.087562441913194,-15.624557200317984,-27.428163909754524,-40.03785735745438,-45.18546725414702,-41.18503794696464,-34.376103197183596,-27.81347478299621,-19.30252213680991,-12.560468909356999,-11.20942951190159,-7.233575050498061,2.6738785462733645,11.841861583018732,17.992682991876002,14.633505079918592,-3.4123266717156966,-19.32827359495776,-21.11584751538649,-18.843860208884422,-16.44735814686868,-13.916037302353715,-16.13870232561913,-15.542420695949673,-7.964077896020061,-6.168433263941708,-11.712333310289555,-15.20235345949829,-15.42870851855298,-11.642613333165757,-4.9102713029542855,-2.322561479160804,-3.800861881710322,-6.283198684183024,-10.872730462762195,-12.541255292400265,-7.5978553755971845,-4.706258084709837,-7.997052724549503,-8.37905464650149,-1.4879992930482473,-0.26327712533016623,-20.602650902784525,-52.53932880940765,-72.60116532661536,-89.77276297666936,-118.22975800068114,-133.80660198541165,-137.33113130570993,-151.745445737077,-110.01163749317047,71.99597733587477,351.60343251433125,605.2424079914097,652.0581453749998,352.28120167608466,-77.81829380295163,-243.51707447283837,-170.73409724074793,-149.77497055567312,-174.55919110203718,-124.64243621542714,-82.33224640320933,-95.8954487000929,-85.59056409124629,-49.87500340911593,-33.74477876592868,-24.333408075596623,-15.43024414538294,-18.581941044247202,-21.51618110693569,-17.854658287784783,-15.620702048434612,-13.371221702953648,-9.578988652057916,-4.3318916714536035,8.32563263757009,26.396235298362498,43.693960837705276,60.5395393619913,66.97135126915754,53.28749532900457,37.42198859024349,32.847913186094814,23.844870982181284,6.515644803055885,-5.7862214504711,-18.91507506174633,-38.489620451927145,-46.55018369760806,-39.15953366284522,-35.45739687031866,-35.325972544992105,-25.47700568959803,-17.135062160548433,-22.2712392407222,-22.921897097633302,-10.451553038879783,-6.1800429817383495,-13.719060394145764,-11.378224538433152,1.409035314822468,6.45413549771871,2.2983027521012946,-0.9565585553003704,-1.775012370209156,-3.6109273179962003,-6.004741438975035,-6.869665660361996,-8.174172976312226,-12.986394474560715,-17.15499337487792,-12.224803999975276,0.9133458423132037,8.969414818268856,2.8905234716943617,-9.545221876436964,-16.635108962277286,-16.509859079632008,-11.2575479032543,-5.2487121192322785,-6.968510288858141,-15.2387416968552,-16.81575138557726,-6.525560352452475,5.870674228861603,9.63290036199359,5.996140689596007,3.801386797082367,2.622214900733537,-2.28047232504753,-3.5272064517368804,1.0465854853523862,-3.5384805503362244,-23.407089451781466,-49.60960507279387,-72.16352576422389,-85.25182050428404,-99.19477025746197,-123.05068237672081,-142.5020962186067,-155.64852860637035,-151.91256126505246,-58.35715147263599,166.03141021907112,451.1364031933698,654.0528432825288,578.8692871819255,188.9560610365185,-174.5554401155884,-222.11026791836144,-145.8039001132209,-169.12117397890668,-183.22065584359746,-122.14390961424138,-89.0451787903267,-85.00858227507598,-57.70281930513559,-32.205947810510516,-18.747842673343534,-4.274269838110907,-3.344568203303375,-12.698200531905204,-13.064756706558327,-10.719452577520535,-15.738316453473725,-21.405740605644738,-18.528232227376826,-6.6200130876067105,6.850698277131235,16.912261322055762,26.998118579350844,40.98284804957402,55.88553519576974,64.29521969728225,61.90326488926486,50.770558382697104,36.22261830237871,20.365015902953584,-1.4548776619050052,-27.002371775687,-40.6682927240617,-40.99192713687419,-44.53728278565623,-50.9451755368347,-48.09109499183937,-38.621790929076084,-28.049642586669933,-19.646829256698204,-19.973225259726103,-20.443060062228767,-8.180384821345799,4.4723407129280535,5.101706657610508,4.2687610184818965,7.758763215256395,8.637385419413206,5.808117884296095,1.5455259452251973,-3.324330952145507,-4.909945166716,-1.0842173760400353,1.8193665287810212,-5.660110687867785,-19.285180262218773,-20.68996755737087,-8.604600304337698,-2.1804849435156406,-3.1024883534967174,0.5606412676989692,3.8427906283381716,0.6219857681217569,-4.0642357594042124,-13.48214701956821,-28.901150597531018,-35.74815352361933,-28.80618854097829,-18.425434573824724,-8.953225531923056,0.05008241309259276,7.414056902629941,12.896858548157137,10.122052453608514,-4.0019332621772765,-18.007333707992686,-33.227960200522986,-60.524453714064954,-84.40520811814764,-96.1558453504189,-112.52178202867208,-127.16726444876367,-136.9749572319375,-148.3384805969448,-90.88419944568963,103.58869500154701,373.4335817482918,596.6665209744075,611.7156530470519,304.70647404236433,-91.70288907642775,-215.409163425623,-141.81247227085495,-142.25751647418736,-171.6113757922705,-130.93267182700455,-108.20775505166225,-108.35920207964183,-64.98527391590022,-32.08359166399688,-42.661191232124295,-38.622698935147966,-16.305166484128378,-10.143549654097757,-11.13913026232213,-7.235627411251066,-4.337579920169226,-3.8506375044384633,-5.874095942080361,-5.8780452217689705,5.716300939841712,23.696680912838577,32.58047072064341,31.911446199762636,33.88741088906235,41.180464817559184,48.841715301184195,54.622291474053846,48.738142988381306,25.766912231490124,6.158538369732764,0.6990418146305588,-8.465363181478196,-23.62458531109887,-35.39576689930831,-50.319200146931045,-60.23656204808245,-49.92451660803644,-35.1608817095145,-26.94357912001029,-17.007239685515113,-16.09771944872477,-27.51483759253665,-25.49333858941698,-8.182430393748199,0.36702432344185354,-1.7539755136104276,-4.1872984716069865,-5.293710035346589,0.38464208654049514,12.31053551821805,12.905654148021288,-0.9082430326411366,-8.789230837571786,-4.848211140584164,-1.9389898309690636,-3.349463386704702,-6.069916030220931,-10.234177248333726,-11.751789418769311,-8.771969107131461,-1.9040377179243402,11.03399378862565,9.877396801922796,-32.3471368682225,-83.03251844595486,-92.99588043222455,-91.82159438000394,-115.98662014608517,-133.57763002749812,-141.69945635418443,-150.27994241394794,-70.25673222889998,147.92957769976465,405.80306955395054,589.1443234876765,562.5226810873866,240.69817623943263,-119.59142213465094,-199.3155135427826,-135.58522913966172,-164.41326333809775,-182.63842856242337,-117.3931717605125,-89.45733546739945,-91.28266815976772,-55.04721354130178,-35.45848260950339,-46.0939858918396,-33.48609014456532,-14.823568184546932,-14.30562669447523,-8.223312583082663,-0.8889047229712972,-10.172072232765125,-17.325541263749717,-7.419227407914292,6.27892294814427,15.291638251791234,24.014466554698934,31.176662905376084,33.83123765811331,40.059321867087874,54.027903784101156,61.903213359846404,52.72957256909582,32.711677196797645,11.041372454497044,-5.579003370864859,-16.57318546263371,-35.01780180759683,-62.13312979346022,-73.21307596391233,-61.906400905145006,-52.997817994810006,-53.17023138915688,-46.00096011576269,-31.59463413276526,-21.647385318856983,-14.483674800122191,-5.741902219697014,0.009906529683828325,0.9905849830274001,0.3677050458754003,-0.7635875788762814,2.195937313709175,12.438154720592962,18.048644374264097,11.100865809263848,4.248754823311504,3.100038355387186,-2.6278313547634014,-12.100571479844026,-16.277789639049743,-16.499143232938174,-16.6403791969718,-14.47555680682525,-7.784651714934142,-2.3266570848329735,-7.109699561974303,-15.840764452165985,-15.945803834103366,-15.037380855027742,-18.662317207626646,-13.889807999809278,-13.041661360976061,-41.84220713263033,-78.3144395763928,-95.9922455602408,-112.11233842561379,-127.03164706202284,-132.01441892446434,-147.7423143534833,-127.68078187536076,20.59155941113775,271.7070250471942,524.3419684816259,649.569361844753,464.7921997919965,39.62496202842796,-218.4161208145966,-179.8031415285078,-136.63254618470683,-177.6332792380524,-153.58331149614634,-103.1062494670199,-104.85408601848513,-85.64527609246686,-39.988611793469666,-32.11996577817412,-31.939875584651432,-12.454730169431826,-12.957863090352326,-29.955708764730566,-28.73584064832543,-20.46227362398469,-22.99529319622672,-22.4360555348903,-12.496924949218386,-3.551887395793118,6.640047477352903,22.77421797702359,37.887256186895584,49.445601146582845,57.42159827270398,58.51009153948199,54.56391213564653,41.16367874478415,13.833724725101861,-8.220128313730385,-14.927461792776052,-27.701681827770795,-49.65103826764418,-57.234638307304614,-49.17418306772624,-43.49414820175991,-42.99929627369447,-39.644568582767846,-33.31423279796285,-27.956809153132596,-19.682809611632102,-5.899767340846736,3.1807768369437,2.579572142847418,1.2483407567147466,1.2803603453764296,-0.9715032006476783,-2.1371226623634563,-3.4295750034313883,-9.094457276767404,-12.63153534076622,-10.144696597350825,-8.246318250829116,-8.968015595034917,-9.422086510282234,-10.252777645048635,-11.6999779154055,-10.633249398965889,-5.786895199122075,-2.1601533132435407,-2.927265393755711,-2.114546448612554,0.14791924339321127,-3.949891107958674,-7.956637353010052,-4.929206565723927,-4.807966718027139,-6.701650297085958,-1.3411632882129592,-1.9249330766965471,-22.068653740786473,-51.47001553260637,-77.26977595990131,-99.58649513684183,-120.97784834853765,-132.5015719021187,-134.6684911831423,-147.97850228264423,-139.1731833728872,-19.42095531889437,232.75474166318133,540.2666700543244,719.815686025292,530.6418634939635,52.01600223162796,-250.35934919265978,-211.61783358026545,-152.30559082406904,-193.24300858028883,-165.99052762837096,-97.95916159955954,-94.80575713306683,-85.29688042754148,-39.48006654495528,-21.43605596211824,-14.660325188417303,2.754249411897188,-5.758775520592749,-24.365347969736394,-17.510664934450084,-12.308240865113046,-24.819983765210722,-31.003949872622467,-30.38561779609443,-28.07530320978816,-8.625567523438677,19.383163394380492,33.0981499221829,39.59806053903081,48.34636313457064,49.92019788528275,46.336328838676906,45.79463209324636,35.95979698241693,6.440450925471846,-24.49917079981562,-37.13685385592723,-40.00098362394432,-45.916208591848196,-47.89968333211995,-42.34509004934168,-38.30170763230492,-33.78420712893433,-22.575075601068093,-12.235173323401387,-7.8278648932921016,-5.3084932849351,-4.752074508447759,-4.827475830827584,-1.0549068699631299,2.5456989336242213,1.5600952173490086,-0.6459252833408478,-3.5739179640960153,-8.048483839763051,-7.971988569479006,-1.9414547573316714,-0.797542406884908,-9.030605204460997,-14.402693501946953,-9.965691951330134,-3.78693064203995,1.4956263731474149,4.508282094296778,-6.672781417690292,-24.118417984978223,-21.959414571082284,-7.461264483403124,-4.778792479755989,-7.143140166587411,-3.8939316662340637,-4.2989685525463415,-8.790297486548926,-9.713917853659336,-10.480476978221702,-13.599971342985194,-12.118245073406118,-2.463286629535915,-0.267793954366347,-26.553835862930157,-64.42950681971729,-82.99673365599503,-97.65230958953816,-120.06809912115847,-127.01823922136653,-135.05224782694575,-141.5949332585325,-49.18999374080002,175.93347904210611,441.56013477986653,629.1111954187027,562.7376239047887,183.23870566277517,-182.0790113682239,-236.4007939664783,-164.10123912645008,-178.31366150676502,-174.9766202113534,-112.3666986025093,-94.78758573455694,-96.61551858711321,-59.09236292465248,-29.062427943301017,-23.332949573752813,-11.714879076090014,-5.262506256879131,-13.964083077805853,-18.717907282087495,-16.65810627870858,-18.081347435510136,-22.213998131437233,-24.41975968503936,-21.243479225262764,-9.231519625436736,9.43714201850953,29.3576808096875,45.51271298256467,48.783948586447295,39.26531235557355,36.0829339411105,43.55256279874222,39.78752795980891,19.945936948862364,-0.8775859340456691,-20.37393359442494,-36.588706307434315,-39.07838024538704,-32.68920419900327,-30.204390702346302,-34.67828770383472,-43.47857921494738,-44.54921881043992,-29.807248196156447,-16.157024907141626,-13.794249346959159,-8.736824271007166,-1.8779990643346807,-3.6485222337104766,-2.6581298346757087,5.150077539544602,4.496206609004613,-2.1085140675007743,-3.025540363136548,-3.4880119607557702,-6.064078556339659,-5.058861410798546,-3.4047247156772578,-3.657620939295363,-3.802089546437095,-7.553242039560233,-14.135887516541258,-15.43238813713676,-12.638937706493262,-11.515340696670362,-9.987079407225082,-5.346856210519684,0.22180227097585714,2.8952076692093325,1.7931173688956967,1.2478627431531866,2.731301168544217,3.939228344450431,4.052706916865574,-5.92499648847167,-28.877862499809876,-36.63347999336792,-15.080643393383486,-3.8331262239937107,-31.333936796886412,-66.44551111374523,-80.74128770814141,-93.31256888973343,-114.45333595160062,-122.61409568975007,-129.04309251651472,-142.56651040168697,-78.88973446937294,124.85985368054175,389.4905544438222,582.4506252911297,556.58891562127,243.07343267253856,-114.32845922278003,-210.0290245329444,-146.89332587882424,-153.87595297537428,-170.5125963596415,-122.39259071209163,-92.51338170288761,-84.22313791183858,-53.58781639118473,-33.93056589443339,-29.195473624658405,-13.361903517909312,-4.458538168913517,-8.791861519723955,-11.091710172906343,-13.88621692477502,-17.174691474524558,-16.791871362945976,-13.295429497233949,-3.654082451073428,5.674811394072902,9.14035993167792,17.23283156372159,29.245490357772532,37.14516711158079,45.65239132566403,50.33331260417914,43.817824334531636,37.26804525812964,31.17778406540961,11.034321384189642,-17.714084901322167,-38.370418883501664,-46.59346194342057,-47.29003684239406,-47.83163114261396,-45.55220311317502,-31.97410037785255,-18.29561885060644,-17.62053866932196,-17.700634608857857,-10.296224150945987,-5.128384695049672,-1.9811133680663655,5.773502292538873,14.38635791878288,17.92096691412909,13.213073998919326,4.340272565936729,4.459901971290455,11.369566040269492,3.339018232945744,-19.54071388264099,-28.6385798066164,-17.636746500325227,-10.556039574058046,-11.088014295405744,-6.035377001013654,-4.901935780208207,-9.350216908418204,1.6941392787054994,14.8711646982138,3.6655552671587444,-10.058730377079929,-8.675510546377147,-12.232929817138508,-15.339811711700905,-2.1863581447662686,-3.7714639510346313,-41.176108639628126,-75.21766433683742,-81.68317044715279,-91.92632648369168,-114.47861427011944,-126.29885300999088,-138.54884666849338,-128.61349850419225,-7.59239794552434,220.28382111062535,450.1449125468705,582.9218552480297,476.80376070641853,117.40156553802132,-173.4577692412419,-181.8837581300249,-128.59363693358918,-165.65052079266846,-160.65723246700765,-101.34066681196961,-84.48012295708675,-71.63554835873532,-35.79213143125032,-30.467556621157588,-39.38973335084874,-26.116310646716897,-17.71571564634905,-24.43736983101651,-24.376050069119362,-21.09421060012346,-24.14237231323134,-22.40361479300137,-9.392014826281878,7.6137385918722575,23.361909588428315,35.7781574339086,43.37161919064142,48.07406904539623,50.719061956966755,50.601379263615044,47.70806763605839,37.924937279876765,19.93190836847959,0.8034007993098804,-15.640496475185987,-28.76537713975291,-38.28083717690005,-47.9889455826919,-52.65842798298214,-44.85291479080095,-35.822789419852036,-29.85896094443339,-19.02139505635946,-17.065585581375153,-28.442598964988413,-25.07220020436584,-5.085011986974429,6.054509409989489,5.877863453942801,-0.31761473700989384,-9.42070420253556,-7.21897673029801,2.3784176876052463,1.0913875969128313,-6.018097879724667,-10.112218855634687,-14.668611261153966,-15.354024025972265,-10.717064263353155,-9.046802506919601,-9.312149967681002,-8.952555021224082,-9.908952857410789,-5.088102396667207,5.890435233725622,5.733104098882521,-8.357045121679203,-17.94358024609744,-17.469053239174144,-15.780214658011825,-14.367637505635571,-14.018661479918364,-16.82305808864887,-13.38720062689576,-4.6242755494139445,-14.418277100380594,-43.55837640882752,-64.56220693619497,-82.0676831763538,-114.14750931299041,-135.74770136439972,-139.25712444196338,-153.6075851606355,-130.98063834484276,13.122624291163945,263.09751695457425,539.1920637211633,681.4731983319937,470.0048210789629,14.527590523465221,-237.56829690923556,-188.52549581545122,-149.93402783633326,-186.94625169242562,-150.00532911775161,-92.88878411124412,-94.49183972514149,-84.64597636149946,-50.09102744499353,-36.169788802466826,-26.285656318579257,-10.861799798869004,-7.910025117982677,-8.505411410600889,-5.5842804351219435,-7.2699953611052415,-10.815534508274421,-11.94599294609474,-11.804517715193626,-8.460652205961425,3.248984054588073,25.174509118697756,43.20112911622189,42.381520859360066,36.13791978836662,39.73119394164049,41.616568709229796,34.56855822081198,24.34642837755052,6.465608215817743,-17.681605298792867,-33.51531734637229,-38.34637328438268,-35.6044783930909,-29.05200052314725,-34.1774083031639,-49.149353340863925,-46.9340833334457,-28.395108767487027,-17.472885604440897,-10.87188140100399,-0.8539534182717219,-1.950311519375834,-12.533040768920586,-12.441940553606145,-5.481232338601245,-7.778170814498775,-12.866297950057724,-9.566181948899533,-6.162915246084125,-9.320429590951797,-9.07456555847962,-1.8786849955985048,1.3886783340192714,-3.7589359989205278,-11.252338341934244,-14.953475792191073,-11.985088885809922,-6.342222863244782,-5.008166073216536,-6.893310484839866,-7.065004308494796,-5.537117943745994,-4.903496697067151,-6.371712761379033,-8.751302512015194,-12.61879114366003,-19.021452819902688,-17.57328893451068,-3.4276519174482374,-4.497248539749661,-39.43228251455718,-74.31587184157155,-85.76467111605457,-100.54160118904086,-122.25533119129703,-131.5181433773551,-146.63889185762474,-143.09692114094278,-25.0146430658004,218.74231530267244,492.3887528336136,657.4859741511845,525.3629207344663,111.56606531557746,-200.85801956575585,-200.27281460445033,-144.2503293780228,-186.14426035070005,-176.3898348796469,-109.67985351707893,-96.20779498206545,-89.60860555082354,-52.29209800262457,-38.60334777582689,-34.46849308664852,-11.928079072125595,-4.923003841295902,-13.03583287186406,-11.045577007000261,-11.90936877436176,-18.020066126729276,-12.791694130304526,-2.8767715544811416,4.450515569643896,13.45797757907771,17.891479270477145,16.866238472150712,21.56728663634685,29.511003991836606,31.413302196685322,30.344996179811073,30.043992491649078,25.35915126279334,11.183121517073523,-9.70207848104683,-28.141755731598437,-39.21623743360092,-47.276146074066716,-55.687167097342126,-59.60081259379587,-53.538477653609064,-41.13535310935683,-30.573088283323717,-21.89659917655886,-11.384412419355975,-3.131433900238534,-0.5291051600843488,0.044729684492875066,-1.108938745118536,-4.476850478552684,-5.281027127359344,-4.341905512495515,-6.849646603573177,-9.938875641146485,-10.009122422602807,-9.96151202260993,-10.501123083811514,-9.395770559004514,-7.0795009759074325,-5.590138462652902,-6.684207424140158,-8.381267862938767,-6.159658081210093,-2.9463312788002334,-4.828017769033167,-7.929432783061081,-6.1865511282538534,-1.7616362779962493,1.6718019948355796,0.3699523723056828,-10.475790476830596,-25.02591821776884,-29.34780655783174,-20.1980050300539,-6.702288247430019,-6.454381596326403,-35.35034056084147,-75.6235138082901,-95.90215864836601,-107.16637471016813,-122.84586931500404,-127.84063841088121,-139.19604201091366,-145.69028922920467,-41.27656617744678,207.10836153573007,486.48399940603895,649.2938993391647,531.3526040449055,136.2722129964091,-184.03831087553988,-197.75064426015243,-135.02317071392235,-167.94259914359168,-170.51915458981946,-127.68822631528647,-123.8471823059573,-105.61053640446652,-53.81250527079527,-35.53745840553548,-33.884429958072545,-19.977002947816192,-23.65874488406945,-35.40577364688317,-30.049809426365016,-25.92934025632301,-31.234028763910374,-32.12536106568722,-25.86049772372236,-13.569823722863049,3.3180508923001995,19.737924562471335,33.01661581089818,39.56866609753434,40.08504560280254,43.663720149860694,47.70039299545462,38.021845095753484,17.299075238045234,0.5922099404107666,-12.48940023100683,-28.553486373258476,-39.7701521708462,-41.76198323032925,-45.760981018994435,-52.888448699395745,-50.2718604904406,-37.22430751754126,-23.505525116241436,-13.447210607718528,-8.207290697308586,-4.115357631863958,5.6279582715427985,13.773833049967115,7.414628874075522,-5.319490427787699,-7.370194722786568,-2.745069237555942,-5.768497976845204,-12.0612753379552,-9.06930891443372,-4.5794676449825324,-10.583345041599234,-15.351636573578496,-8.95865529153792,-3.8460349118984425,-4.033437828751673,-2.9675590328765438,-7.167535889128775,-14.742114562589766,-10.602349294770695,-0.17413098526233917,5.370646082023583,8.872039583583968,4.116942188519271,-8.797502499145004,-9.331159295949565,-5.038864434916533,-19.180383506321338,-28.002726560575134,-12.273306813358987,-17.030820367933064,-58.98701111968309,-82.99810957416463,-82.70855503817182,-104.63711921849736,-131.38425226063006,-140.6884890897912,-152.24809596302146,-96.66218250145516,103.16380652971259,360.06414823559396,559.3939925061661,600.1652348611984,343.18581479912143,-64.64807566916653,-231.42138554690007,-161.75189420125645,-156.93932391502943,-195.47948082378548,-141.38552624435616,-95.45718392833214,-102.4753493339553,-78.5158676922685,-47.60724534946673,-45.93083953839262,-30.050036703559034,-5.212559808084265,-2.472545179146973,-5.884807519041754,-6.38023033620912,-10.686841698667862,-12.378293516666517,-9.426156215971876,-6.328614708872287,-1.6533743920768638,9.33481987472776,27.363499156987714,40.8809753636504,40.32019764908445,35.6691894849788,36.85960800076612,39.560503472484086,37.11559953975404,24.835947315121054,5.529175612457159,-10.494510293777289,-24.62575003890042,-42.104726819223345,-51.446242577277154,-47.489640368682664,-44.19705826039698,-42.98984162623856,-33.62615903034964,-23.22454074452886,-21.3224847262273,-19.674605420109913,-11.838645012402864,-1.5404738928312014,7.867096801431975,10.871080050595388,8.466276209412483,12.310577678057292,14.855690806735801,0.11146743299053874,-12.270853549816419,-3.8214655940148887,0.5316525332297779,-10.295512147495586,-12.669078881457157,-7.413039945643426,-11.804076876997957,-17.154522196677547,-13.698867570670096,-9.207981185100174,-8.410374523492607,-11.224927516072757,-14.773070445776783,-10.24969465188754,-4.001337558689345,-19.958416261098293,-54.41312119868024,-76.46316427042808,-89.24711593260321,-108.89761150103216,-116.84913868702303,-126.7964122635791,-157.0488098892238,-107.10863676244702,100.8384537620291,372.65610452778327,584.6031078303033,595.3302170303324,282.7130483479435,-116.69858828536778,-226.83992223999772,-148.68298809335775,-160.6523293075455,-181.75610085552194,-117.22074773606762,-84.95797869773155,-86.37215167089536,-51.444052963615746,-33.48291651963444,-46.21942617536989,-36.185150450633884,-20.27781775435566,-20.615415520499976,-16.77763474606578,-13.088581267920802,-18.422235636060755,-18.353761747340794,-10.027249620581607,0.011174340819454898,11.05684294555424,20.071364851882507,29.944898446278454,48.893404399985634,65.39221919442107,60.269306229878,44.4827746208299,38.8350801839529,32.88255146720202,13.463816920796996,-6.384848131786773,-22.054427131842285,-39.33338685940595,-45.71606973215198,-41.50347771625841,-48.15432098170048,-56.29582168301117,-45.083487969232195,-30.50521963049584,-26.04108740285503,-19.63769859540014,-12.798259962311171,-11.730154086898128,-6.04468094764184,2.233728738164075,-0.08499612889815467,-6.050392164870402,-3.57704350617386,1.9971074042606887,3.247541608710085,2.1810512726780793,1.1034701081264728,-0.2813599298078344,-0.18824423258517697,3.0954775681266007,7.634931047366637,8.841976312649994,-0.18292781993577378,-19.476019900393492,-31.35264597451419,-22.585624156870047,-9.010174153660216,-8.613630023007353,-14.827583337415774,-18.14575672905595,-19.377243065862373,-15.32587002742089,-2.907747133852439,4.807447688971063,-12.004700713437224,-48.72463198720711,-76.49419599254195,-91.44768880717598,-114.81044203265435,-138.1398629223521,-150.18037119946774,-160.6690076479356,-120.615518281702,41.91563166086422,302.4672891837693,568.9434437167358,675.5739214397239,431.9407279778129,-17.105764124326097,-240.94913463331883,-180.6660497260817,-146.5523504086894,-185.66881019363558,-150.92980310325115,-94.83117767405709,-86.1155683154326,-65.87930343559414,-38.23199353441568,-38.871035670784266,-34.53700907722504,-18.319876927316074,-14.06791750528954,-12.440662302693926,-9.988805236091242,-13.654633970592858,-15.21322240805885,-16.58262155412867,-17.05781631073954,-1.8852469017987694,16.303794464253638,20.487070660747833,30.79643031057385,53.745013699042936,63.17416752357461,56.64254418742384,49.76765368532641,38.02800890603788,16.686942572343465,-4.82022087064319,-21.542014526346343,-35.71223670046149,-48.697208246352645,-56.32080989246185,-52.39963137663325,-42.197627294136794,-35.3519220889209,-30.124192152864573,-23.922539263396402,-19.46326009128095,-15.048779658726144,-7.965641448020481,-0.6742559851363232,1.4077915987394682,-2.904223556910054,-4.360413272527815,1.2769600670579813,4.550310177723535,3.877882120184939,3.9411519244265314,2.6211488784967063,4.451353456168986,9.238161574444431,3.336089836517763,-5.438292517921084,-5.3456347226702405,-15.631397108538042,-34.58616443794577,-30.4805720192655,-12.143212457766673,-8.300232634155812,-10.90888015201502,-9.138827426527882,-9.996695534252499,-11.168173776566476,-9.753794331182036,-10.831117246987716,-11.542684383112704,-6.999420337153268,-1.42572134198174,-8.906315326547722,-40.86855085167957,-77.75574278309657,-95.4450716797084,-110.24720216496769,-129.8929548331507,-136.7753398415078,-144.62598666847325,-132.71871014668807,-5.738695615757607,258.9491850566943,558.8074203750084,710.5546531763617,509.2880901857352,41.97135763238554,-252.85003859953093,-215.23096375192262,-148.97958295926864,-181.8132566668204,-161.6964857076871,-102.38908047441694,-94.28431006301174,-82.76054585192551,-47.210848618541974,-37.16818586521451,-35.38553113988229,-20.719256122575977,-17.30107391013596,-24.348128944438784,-24.111065492257655,-17.881620339627784,-12.862207639976035,-13.24864608645132,-13.74045794747941,-3.3735576157585063,15.041721476560472,32.94251747342899,50.13125811637799,63.0177250613736,63.59671855438771,55.55649880009808,