ECG,-5.483674967398841,-47.683693565014934,-73.79688577614841,-113.25359112044123,-132.75072955901328,-163.25571932495114,-258.3803451852357,-193.8160610005403,254.0083510555374,916.3535754615559,1382.7438417004264,1106.5494423248679,-65.48147309844055,-1110.8430856238779,-996.8630579811414,-334.38074358083736,-130.31269023402655,-165.80347002144754,-35.73248826663061,28.71758191980014,-19.785392355680383,9.989510352535845,40.36823632012336,7.966673454358407,4.343120915589637,10.039313981530047,-14.706843015014378,-25.132841321343687,-20.806713581107093,-23.368302575889174,-13.828916090792804,11.865715205735377,41.04200761553707,74.49049729658255,111.96380313394538,147.1355474702383,170.113271648058,172.51173155270757,160.12353373972792,137.44111820324576,95.48078934891927,36.898822579012766,-21.135409264282615,-71.3547429592225,-110.15692788373704,-126.90145953985474,-121.24725299465777,-105.32276233258276,-87.2552431256495,-71.08141291804841,-58.11430750963962,-43.63219018295143,-27.038543684645468,-14.280647950104047,-6.554521276543667,-2.7685013479430225,-2.8837263248228595,-2.0398424194673694,1.2492331428479737,0.3882124573409804,-3.468578101879011,-1.8752516293999015,3.6417330275792033,5.287901167762431,2.13684776850733,-1.872369162074726,-4.359753621573464,-6.125260306189167,-9.347231034935497,-12.792307649622986,-12.76267898635929,-11.500649510090955,-14.364596619135714,-16.980507452279298,-13.45027389783585,-10.431635358629942,-5.803804826272477,18.29188444191408,50.51369004443157,55.40554932778426,40.17096192385674,34.895403342338525,24.16040601976139,-9.014887336538195,-33.795805113569905,-39.74218172377812,-51.56354315537094,-63.60345911336698,-70.3358471401442,-88.69933253829072,-104.51314458807693,-114.66949014639587,-136.0892687406951,-142.41732781860634,-166.9213227577039,-250.42397894991342,-184.54610291643763,255.85877224015684,927.6223744429012,1399.8749238262699,1109.7340352576427,-62.18142671395276,-1091.102359373948,-974.5801907766715,-317.78920966016733,-117.58638970680113,-164.81330551017393,-45.17753732539941,22.475263754975714,-21.1668355623366,7.0403349275475104,36.49671048836343,5.595932102205625,1.8172699759589186,6.989873832994373,-15.573144245208907,-24.394744284476232,-21.751664050323498,-24.814541319251973,-14.10565281537127,10.193796055237563,39.07141173087107,77.23420835336447,118.26607140914396,150.8025135506564,169.3982392093036,172.5299494996562,165.38769299037907,145.5039710975612,102.50740168001859,42.17190181265208,-18.644254761677246,-69.28190804291374,-103.46939055646519,-120.38451319068281,-122.9187192896859,-111.14955983873114,-91.20870378479786,-73.80794092198575,-57.528078402050305,-38.56274142864095,-24.40047323950649,-15.478892940586903,-2.1230262651757172,9.374096979617867,5.678313073954271,-3.7271385745523347,-4.0549849017114425,-0.6733425584522408,-0.18784449173732298,0.7301703531566925,2.6067328555031093,5.957607372505141,8.474169002934325,0.046871958990202245,-12.756756048480442,-11.160951895101556,-2.9192384260824102,-6.268994962431078,-15.174166053287863,-18.716975235309203,-18.319500213483266,-15.810566726834427,-12.260763194517939,-10.916271327802221,-13.272270909601502,-11.82435352774268,8.735630414819541,40.51049027101958,50.94625700796379,41.27784186722715,38.356414151131055,27.57053865615221,-6.055889365029737,-25.362498281242733,-22.653110282078618,-35.475839870589915,-54.46588084303707,-62.01079280619928,-80.24075300103789,-97.4602167291613,-104.10647833176787,-124.11482627225273,-129.99351478489774,-143.1404676717476,-221.97405860528113,-180.41200797941096,211.38596660811749,837.8037117468502,1342.3484985702594,1179.836556838259,63.59818319988091,-1086.6423376140826,-1088.1048932155322,-401.30707764905753,-133.73890785940796,-163.35856505337506,-33.06793036891477,44.090425933057915,-3.71532239738265,26.9956540159613,56.86744722406539,16.26330669579447,12.102809501841449,16.864194181016337,-16.846319302913866,-26.34074638856033,-16.62529996179783,-23.631641127054465,-15.716395817729174,11.997113471022043,34.96887436821624,67.62999135298462,116.28156768987107,153.60264913163644,172.3118650925273,185.77545389396306,187.342381026542,161.01185591290445,110.6420310125655,50.49538112708606,-9.676838971942933,-61.664158020647704,-100.84029021533985,-125.10191505363973,-128.65767711357867,-114.0855592189421,-95.75817588162582,-77.75035686085414,-56.491479815466235,-41.38721435593303,-38.68253671017345,-34.91749886956973,-21.988969688469417,-10.116533151737173,-5.284740999117769,-0.7724133127893005,5.972980242036726,7.395891162957932,2.247140924018968,0.6691954353626528,2.8011002250597983,-1.8429083755161635,-8.500944076315706,-6.507924931943043,-2.6758300509040183,-3.0691170562492136,-3.372649379847596,-9.151013351998891,-21.962821196484896,-20.947442358649994,-1.9070101605340763,5.274176604284472,-4.128600670673263,6.005013912705495,37.457316421838634,47.944824989913684,35.2287928382722,29.864062742342895,18.27392827071331,-14.643771466426141,-33.91777175780341,-33.25785350609559,-42.771185096366075,-52.417890505555036,-58.80123652624947,-81.11475242465245,-92.62941736388291,-93.30719484553747,-115.15540623917285,-122.6299882126956,-141.36622299993235,-217.58060657510063,-148.21990874493827,261.2914978940199,880.0005829779333,1364.5683596665115,1120.433439949578,-95.97060862625332,-1191.554697049632,-1047.0812218543633,-360.7851437901061,-175.6307202622989,-176.5245866308564,10.826046958594446,63.74529054685927,-6.480039398680958,40.648180532379484,71.98805187574311,21.93710529613663,16.689048397864546,19.408781970351193,-15.169849100591684,-25.846321808191412,-21.210534055799364,-26.364447400397435,-13.687915067460338,14.711351184182682,48.16307315908727,96.78083927218502,143.74620895718198,166.58509237960496,173.69893314597175,175.3542133069035,167.07262530701945,141.32835537937186,94.13302090386094,32.867542316662835,-27.660841020766057,-79.46783996658452,-117.24634714756166,-133.13730619636323,-127.77472554799465,-111.8748866778652,-94.73893989099062,-77.29314141018932,-56.009862848228494,-35.69723254616453,-25.95134282034997,-21.922111912389205,-14.03372058574583,-6.954471191727542,-3.8858799458961215,1.2159016008732237,6.230474526877156,6.69419592428355,7.1478984840669,7.717065905410767,4.2429761200739,1.4214815705011947,1.558384837291765,-2.8687085200444074,-10.300065214973383,-11.135165319256593,-9.95067396220345,-13.515097776001028,-12.501066090302208,-6.914085973826621,-8.333452765295297,-1.7153492964597699,27.141404405692505,45.71307602490719,34.428375021054535,25.962483001171638,25.267024475643943,0.8999538634261306,-29.003263555167756,-32.71663087150233,-35.90271372773798,-51.790169238516576,-58.93566057771305,-70.41124659335202,-91.19987833196025,-102.0363002346404,-122.13386248332951,-139.48662480562416,-138.74580403564232,-201.03151888827114,-249.73206802492524,-2.040126984988234,575.3266323817236,1193.0629384419283,1377.769061608895,616.4889978195465,-703.3660319879032,-1227.9473107689846,-656.7971273206324,-150.3727892361856,-152.15996646775616,-99.73600683521222,40.991827962121306,6.814590886263687,-21.578020176325825,37.24975231690884,29.014301551244426,-1.835145041545175,8.920894646917848,-4.357007113787892,-28.38002729272387,-25.28957169706018,-24.127366232576,-22.80253555099959,-2.8145524589764293,24.344833202477567,59.65472254293094,104.22268085922778,138.90810275422132,158.89221951124915,170.53894162386453,169.06560399691676,151.52432490931204,118.69422658979755,66.43788793023333,1.9816511384219115,-54.16866003182494,-93.2469649756381,-117.81139396090941,-125.49436927596756,-116.79826991153575,-100.78686332909047,-82.87901858919145,-63.33296143385967,-44.38262777629242,-28.984855970868416,-17.116882563090144,-6.943360781628314,-0.4595616143429382,-1.885533634082222,-6.509062245360017,-5.091344221958444,0.7319870329926594,3.677592682673456,3.2302198623452316,2.8867838928081397,4.222792516758158,4.395279204629851,-0.8065744893834914,-8.800222407110752,-13.903713434112063,-16.50683293559212,-18.84114408741278,-19.04717652680607,-15.079700023072165,-11.982647807157733,-15.756314802428825,-12.631838418981388,15.448287070955365,46.859891814320704,49.3680875949996,39.07462577222962,35.796929650442905,16.44212304795103,-17.215003958552774,-27.099860336712265,-26.09809217719185,-44.92065239010055,-59.29325542149685,-64.06210220001891,-83.80782725699719,-96.24907757726976,-103.51302280214627,-135.16831134291772,-154.08858253730983,-183.17580375430728,-262.71162896375324,-177.71964920643433,286.0658440747252,960.604172152204,1406.9977937112888,1068.8073612999833,-132.24402529078873,-1123.1037408120917,-950.0292062119842,-297.45708357702347,-124.51401831810205,-163.5530506586692,-33.734441893996745,24.56690016591341,-21.15056140452262,9.445106824294227,35.5208839445246,6.525991202404343,5.603521540787405,6.923175288973265,-17.832183431003294,-25.93472809245562,-23.4802857380416,-24.664071411454746,-11.042588581949651,12.951429269149884,40.39877322572112,80.13174124867031,123.06137044740642,152.38030015132267,166.45949992447387,169.6250465454451,162.1507103467804,138.4343989668598,93.92642962003384,36.83745721132253,-19.029940425913587,-69.48477511443541,-111.46270285789497,-132.10703753725605,-127.14653707926067,-111.23542701085663,-94.3202409399062,-74.25806540103217,-54.98352356283993,-41.78158208784185,-28.87781432756652,-13.001485244513525,-1.6565713833782638,0.47672535703080854,-1.309983875917979,0.5737301111014084,6.3280924715963245,9.697908288455082,9.281246377764237,8.46516781554325,6.024493030362074,1.4570797864241758,-0.5073214168652971,-0.16254403978761012,-1.7294702344047668,-4.9519641566637755,-9.417577159588356,-13.661493437512746,-12.397055127677126,-8.723366865759125,-10.289006647824639,-12.01239001073509,-11.051856999927551,-16.559267697420104,-17.296106514667805,10.307345896194292,46.61145938208951,53.35781625892518,42.958160511298956,39.37655130070169,21.440667275134096,-12.40768044399644,-22.60852949902579,-22.284144836835658,-49.52572290924148,-72.65244565246735,-71.6158619057594,-83.75326863930708,-101.34077128248123,-110.23352938907287,-132.6186678879658,-140.13785610096107,-153.09149265270236,-232.54921619776286,-190.84524707765266,220.18355608741996,880.4077319384147,1375.4653557273584,1151.1974933987203,13.937515198024471,-1082.6097081293183,-1040.7367527433403,-360.7730372550223,-111.91162347393384,-158.54750934784983,-42.7883915661489,30.265783613229658,-23.455555892767215,5.458638490819158,54.09447249356384,23.348762377986965,3.551339011633681,2.1632779376452387,-22.599011454842927,-32.61996673915109,-23.900124737740683,-22.647702800914082,-13.270023199584793,11.475243287845906,39.31703923739059,73.03516829611134,113.70062752805364,150.62313423583265,175.90808162097366,185.07883882838743,177.57284552692386,157.05798795497228,119.14120659017632,58.529744139916,-9.295530594247658,-64.98621717136342,-107.88326698966779,-133.63925612377142,-129.5803558749074,-107.66484108579593,-93.33045338077665,-85.05982937995408,-66.74226599835245,-43.51091084589282,-30.225775176034738,-21.785889349239365,-7.956788041595605,1.2244203359233161,-2.0871208266388095,-3.107254148548739,6.306294947781534,13.154245232958145,11.63356962158511,10.467410723874638,11.437867985630911,9.53006151799578,6.567391481031226,3.4800106171500937,-4.200821052524679,-11.172314624102999,-11.506586021477112,-15.830956309371626,-24.832768071596423,-21.73034131529736,-11.470843577074593,-11.089832593095384,-13.707451729776011,-7.753106853124069,7.483224182753706,29.06510777965456,41.07210026091653,37.74418902527178,40.01411620341233,39.28642376261827,5.993127442136654,-30.56101369053998,-34.60808108642199,-38.58110555621869,-54.46607082121031,-53.73562936053337,-61.484852828345325,-89.80012951380452,-96.78478099077742,-104.07999464125666,-126.02468881591025,-123.36402499531806,-163.87838375391578,-228.39844694555748,-44.57190552156354,477.74556761267326,1093.0568017012151,1378.4578751601707,765.1434474309476,-572.0767141048111,-1279.626385004164,-790.130111676073,-218.83566501496085,-180.71507131329494,-116.85151097060512,60.19746999790766,35.98906740586164,-1.2610357922222768,67.90627277232258,54.09686659017135,6.057638490929554,24.400087292452497,14.054944851962086,-27.29836309595045,-28.9033474688911,-24.128615326846784,-31.212701946047922,-14.992495274698577,21.307395263102627,60.302968929137734,101.98810438861827,140.67130457546358,167.97826792228236,182.3216491698764,184.9465346450862,175.92405287383065,147.79111930397363,93.75806049131646,26.2650675994929,-33.67248454762633,-81.53365224109555,-119.01620093054996,-133.56802215612305,-119.73872621102078,-101.30784587030408,-96.83119349208211,-88.37370966935077,-61.340848675594586,-37.000466390599186,-28.713847997725022,-19.675728260072002,-6.400707999740735,-1.1450172585879201,0.4580881348143748,2.0027993468023837,-2.5793888639097133,-4.303192346703778,2.2514304805527843,3.6646509953417112,1.6330177288857044,6.298386193146051,6.447461805483677,-2.8722004451394714,-8.975411428091551,-13.70826605021227,-19.703358387310182,-13.073051271368048,-1.3451646630822953,-5.137118910273616,-5.361311131121277,20.49795662185863,43.04745581917869,38.87551312164564,32.65247594852674,28.293408665531306,1.2308740262498965,-28.29264530145994,-32.151677411956044,-35.976704920405815,-51.267261660199615,-60.084522315226714,-75.4985186499366,-93.40530688327368,-95.50076825259876,-112.07077978146799,-128.66020601201672,-125.28780656204127,-185.50514755919858,-225.0919428846699,34.527308915675064,608.6663445964559,1209.806223765269,1349.3160044186777,511.0311287994395,-817.8455832523839,-1245.219646065268,-624.0518204860143,-170.47172895227664,-184.6714854681134,-84.56646387354586,61.97946339488506,18.315298665650232,9.277898703619764,63.57744988964393,31.30166618958942,4.98187549771837,23.735212296368097,1.3672947279264935,-24.748275327317927,-20.90360771393557,-27.527258084929677,-27.84885626776878,-0.15370188045097422,35.519068569506125,76.66975410445286,119.38980785116551,150.70844542255568,175.4780288887791,188.12658512039607,177.2343243021232,151.76545682081203,109.70089489388036,44.269351816935924,-18.72178837924781,-61.34543014705397,-99.13553026119145,-130.25718824587182,-135.36811141596775,-121.27211532801965,-104.20069788763574,-84.50541285898,-63.554494730248514,-47.82235919201823,-36.60645942530656,-26.413662778300647,-16.85918729345653,-7.869547840572842,-0.42282887368197564,2.9635181174789764,4.124468788716701,7.79511355083967,12.005340418329915,13.250574831520055,14.361869346946268,13.81137641969265,8.189573467452911,4.80949084924802,5.417438838458363,1.4197728077365017,-4.81921909170984,-10.377109044096922,-19.84498981022245,-24.24474286637885,-18.872924526512293,-16.045992479019368,-5.967782038040443,23.65602502859029,43.04686462311887,37.542115726710946,35.2843157596982,31.051271811328576,0.07661982160123415,-27.67512915750288,-28.629634265054953,-36.44653726048904,-55.23166594547973,-60.669435502999995,-73.3034214099809,-96.56418064311987,-105.6938599874566,-122.44606937740481,-139.28852625002497,-140.4818460506344,-204.42229679559676,-253.48753578099627,-0.07024595706863579,594.2375467370343,1219.4400060902558,1377.372671658293,588.8216482456636,-711.0538619229476,-1198.7854496712907,-625.6424437976264,-139.76450693764815,-159.62991915619347,-121.99623175406248,19.41925937699328,3.373362558859725,-15.542049645698906,40.25443073041962,32.9812117545803,1.3416241661377093,2.3015787662609686,-16.101592352499793,-34.25893391947916,-25.555994270708272,-26.216117887772562,-29.229297057755687,-10.030919416085046,17.387264624582894,49.85810616681912,93.76538712847703,134.5241910517986,160.06281695482852,171.75505133988162,170.57699571582438,155.7488399093536,124.49084090050928,74.91108054514851,15.195589028436455,-42.455894399678456,-90.67953196382604,-120.79228230764792,-126.52206522225922,-116.01678059057176,-101.72684131163723,-86.74854387274081,-70.1533944742527,-52.30837584342294,-35.29109315621143,-22.268075030630207,-12.06032389154364,-3.065187352523889,1.2885385295553036,3.0535273104794562,7.105639120032535,7.912857697753337,3.3430143742751888,1.835765741074873,3.2932981869122546,3.2699309904678984,5.171049396138162,6.932606381054182,3.1633891014659223,-1.5540805142096055,-5.00691362000506,-11.390159386811817,-18.406763645715063,-20.37743094381159,-15.810942928388592,-11.191339004675918,-14.618617161426938,-11.54037823103139,17.60958724911473,49.88824880714647,54.07797349472506,45.50354295123364,40.00066212235314,18.0938537917621,-17.61385957816111,-35.21350824518126,-38.14470679795155,-48.944652977921415,-59.401142281506026,-68.24035317438194,-87.20794673372208,-99.73062396714747,-109.39004124483306,-131.79556989623052,-137.0678150288545,-162.39652121986862,-249.06259755846722,-186.6991172613628,248.8507563579318,919.523845785927,1398.3524914487282,1110.927657709633,-69.12759995496702,-1102.7547750462227,-979.0650138490685,-315.8841180087892,-116.4564088019574,-163.25201975507113,-41.43844112463975,24.38239306930565,-20.823911291970024,10.633686587480225,42.82944167545745,11.31298971714477,6.170056856123411,8.127712322147243,-18.33794510627917,-26.193140882590022,-21.414645805154024,-27.31703983841694,-18.81768565911623,6.272999457462525,33.12696278549746,70.1887001256664,115.1696733654581,149.09702465064723,165.60242061497223,170.86668243536033,169.27278859478264,152.1325760891472,106.4546513225924,42.00000718260951,-17.230840199138324,-64.45857758848494,-101.14217310152452,-120.05587859591795,-120.89588399720486,-112.29775577910914,-96.55693525647872,-75.97195431739112,-56.63859036714913,-38.90187398406835,-23.658450137527176,-14.754643315418427,-7.3105470325076105,3.266104961844995,9.939274983334345,9.59749598462288,7.958366323343899,4.558934546713907,-1.8430665404520852,-2.088777761779175,6.981915566659105,12.019626732053778,4.9623461763026215,-4.324990334370781,-6.881172290309703,-7.11386774543362,-10.347616222837361,-13.176946755204554,-12.255700352698035,-12.624103934252366,-17.57181078961115,-18.208252822563658,-10.287082064139465,-7.821619662225176,-12.97413764798198,0.25273847030835794,36.537564947295785,58.80052945989416,53.82536274901247,49.39099515711604,40.51987601085152,0.03104737370015087,-39.24364603217435,-39.885348017610724,-39.18448983231467,-59.787445918740445,-72.97402966297324,-83.14640475039435,-96.07683175985335,-98.09037124387704,-113.38100463603074,-131.88798164006852,-139.78826446481153,-205.97963810904008,-229.46756383323304,59.674428975664284,652.6062717763775,1239.636986525977,1333.4543656453857,465.14858073886273,-840.019962227796,-1227.835039290961,-596.2925116915071,-146.51618206121276,-167.0515938864065,-84.50576291917696,51.02096602682823,10.902307355207256,2.503826447985386,59.71617855581973,36.33444995505647,6.95683303289541,18.301952881278805,0.025460073035439734,-23.523631591799486,-23.501298641339396,-27.836253376919785,-22.94664850169098,1.3392300211110069,25.305285561403288,60.10431294027871,111.81351000201091,150.34714832590393,164.96368834271124,171.91253340504718,175.63506673983304,167.65289162172257,137.08977537072545,77.65223527994932,5.551369645762417,-52.21938495112225,-91.15362048207602,-118.2837379287811,-129.08632368864207,-124.38426599796436,-114.68079987342149,-97.95821685614601,-70.1302727505028,-45.38592977410717,-35.81075705900544,-30.812339633911023,-17.493180206990843,-2.582726475361106,3.7964291358971174,6.454184226045346,8.57153096407406,5.768678648474372,6.966174419487439,19.650036539973918,25.26788521917325,12.457741161242591,0.34428222756971394,0.8218777869924789,2.0949324723170086,-2.8726133473202795,-7.26254761278472,-8.79835194460837,-16.406987983289284,-29.823420754170925,-31.152734175746662,-19.04605516517349,-13.947205704757309,-8.826812449053454,18.347988487148292,44.881625655856595,41.173148282563204,30.41965250975945,30.690019928797668,14.595725831165169,-17.646332221525874,-31.99813050068685,-35.75882179428251,-46.73172257385552,-52.04972495271415,-63.595765735574076,-88.95183732576731,-97.32957395309154,-105.14206891525768,-124.09394926748928,-118.69649348200538,-151.21316794547886,-218.32317529653054,-68.17098770734214,417.3231362435883,1039.145725167307,1396.1313322040214,880.8297728979612,-448.8140673183639,-1273.2784007070688,-873.0021102077017,-274.193125232786,-196.49126321521305,-135.13378028698966,54.0600493905369,46.222343994562706,-6.440566034984304,54.66580524126297,58.52001140221056,14.408898644858123,19.559573780152842,9.906845121992749,-20.988204460614668,-23.335294728198328,-21.773362395137113,-23.579963725754723,-9.147324867033433,13.897081413679949,49.03234300114971,99.54103092451722,142.54808849272297,167.39674623754172,180.51060303439573,182.06808165286,170.55632612150575,141.86683349224327,89.34227703095767,23.274561113424156,-36.271194410127165,-84.3549461285538,-119.14115626611654,-130.9058539316107,-123.91777816259358,-111.23139305069705,-92.61480162404307,-69.67258510599997,-51.566661370943855,-37.855892635202245,-28.97279940957434,-28.489839886422562,-24.636497413684886,-10.660548461832121,-0.7172378276034799,1.8148172269671896,6.622284333929873,9.9642652105817,7.9043879318158545,8.20552532626208,10.61716811613898,9.305819671937286,7.228036825095094,5.338485319580052,-0.46692042874940753,-7.275268637996531,-11.755032069893474,-16.043906874309915,-16.135967199823924,-10.491648847842303,-11.962327278425635,-16.537094792865414,2.619353894012036,36.029715159245626,44.1677989978499,35.902548703333736,39.208328872613365,26.88096315470387,-14.978630038762795,-38.55280813947128,-37.02084964176744,-48.49358326301737,-61.10922789919597,-64.8860672078575,-84.02626414948205,-100.13031189664292,-106.67402434040005,-127.66798952226125,-133.1170075074993,-154.96287359904727,-244.1059775960077,-190.74613530196257,229.05028470671957,879.6351249933357,1379.651060437467,1158.8189021560522,-10.04389530779875,-1115.608225441274,-1034.5884289747287,-344.81855850218517,-120.42370429460487,-161.61605508580774,-31.453522568640565,33.46078585933758,-18.977135694627286,15.349301830024771,48.44216494035803,11.300020024096384,6.655717566251848,11.434306562339485,-16.808286169929602,-26.21496441229585,-19.966289342374548,-23.112808112647368,-14.32910500434072,7.971385828838031,35.57985160515261,75.94833665287405,119.07119135017084,151.16592791213276,170.1404359822503,169.54151083208257,152.81782675880237,132.479497631938,99.94450847605833,43.77119147204148,-19.82895855770036,-70.52103140182061,-104.26630057663738,-120.03091564073733,-119.8090393263648,-111.58779779073438,-96.37832446370801,-74.42582851782885,-56.006341865533464,-44.131161026278605,-30.517746763799636,-16.236686883717482,-7.987954343184789,-2.7192526576570835,3.4764246917572663,8.219484710978882,9.809550976893899,6.510950316581525,-1.6056427628932433,-5.361328509047622,0.6877823926365139,6.105599245433099,3.625046838244156,-0.28076301605764975,-4.227824888812419,-11.906087564273486,-16.9820846668813,-15.769425994857581,-14.811415760064314,-14.935077268234107,-16.139382027037318,-18.94133388067632,-4.914156033523471,32.37330149710046,55.32566896936792,45.97260467902305,36.603237848225135,31.344093620813265,4.994710367414173,-21.168024321980546,-25.040706765294374,-37.47824756693413,-61.322514190796156,-68.3792904681313,-77.79604193890782,-97.82063117288418,-105.83636393987987,-123.34325850974433,-145.20194450703627,-151.93417967228362,-213.52499796392667,-256.72174789924185,-1.787089647372511,596.3901900764552,1227.500038417562,1380.727957247674,588.0675403253994,-699.2335176895044,-1179.6715556424963,-619.7569457498024,-142.5202689032771,-157.96737655771148,-121.03787239518041,17.1489756452345,2.8865279744805292,-19.462519647616,29.38126441003233,23.80520817543133,0.30803205911914944,11.582005751121002,3.4141225737843515,-15.30007438980472,-17.45913606310451,-22.900339319025967,-21.45913692641257,1.657205881874546,27.468749321391435,50.280049411550095,82.05922166100045,121.28516814196912,153.19953321157783,168.31471165437227,169.4835390353966,155.81165140780388,120.1462881092827,68.00387457055625,12.031923802946478,-42.05129950172613,-88.20911123381104,-118.43567229362047,-129.70556464969457,-122.87052787834762,-102.75013746875607,-79.50375852826001,-62.467393284978215,-50.96861529096168,-36.27262783913225,-18.668722623880377,-8.716322857002044,-5.2292342941194825,1.3321223544182743,7.261914095879799,7.162269749454641,7.059162935954742,7.8887598052691095,5.655610436913397,4.547837757693891,4.797241389622941,0.5402855120207057,-2.7148628396433097,0.7105259372043786,1.4104848755564081,-5.351944023749446,-10.868176771594765,-11.593506684500833,-12.3780314892614,-16.31875534838068,-20.430451820043498,-18.8379759643202,-15.517203636017456,-15.257544258737637,-0.923507989470417,33.64158257346669,54.28489060572613,47.33980226590112,42.444570296080585,37.43550964719779,5.897739733532379,-25.83503509327482,-28.363230496175863,-31.41794860334487,-45.430588464004835,-49.49525551932922,-65.57610312473092,-94.3916462524401,-98.94224350728666,-110.4431970973132,-138.62174920350193,-138.58448080947005,-177.58146682502917,-234.33812722822177,-30.41474659741158,527.3122191777202,1155.629504972364,1382.3853987435793,698.9404081124551,-613.6976689315201,-1246.870095883136,-737.6088062986117,-180.89506206451455,-156.7267374311308,-127.7654339397105,27.549215656371743,23.45791223801374,-7.1171307159748505,46.02853953553735,39.8449022767362,5.2375604474634425,16.37160552902146,7.254507365483795,-21.667628031365396,-26.7731754236994,-27.295459313869557,-22.86450362592457,-1.9801317138096124,17.937107977172374,43.093084717446345,90.08725090004248,141.21865882069272,170.89739419172128,177.278470252418,175.2441672518178,167.81695779447014,139.54003678400173,89.20333928083848,32.5637466645761,-26.009921483227092,-81.6228379646878,-116.72062458577327,-127.56464582232839,-125.05997630072562,-112.69993507359617,-93.56397066978391,-76.42164295476769,-61.64179260801279,-43.575666566680056,-24.28241636143042,-9.638048966405023,-0.17641551912111808,4.693320165011869,2.7571555899644267,-1.518087132764471,3.272891114729136,15.361592694149813,19.327738282472563,12.936988801056835,8.11012583178616,6.235265213688841,-0.13239511666917103,-7.833319597483616,-7.601917877787349,-2.8126011919670892,-5.754033813331828,-15.323211804853356,-19.884428433004835,-19.41553672693474,-17.566087583167803,-11.631438817963481,-8.071093594101196,-5.82893956365141,16.62425369402121,49.04160008924117,53.93937412074358,42.97143868941428,43.095760803407266,28.254805619010504,-10.675641177290126,-34.40776454796343,-44.51160801263717,-61.28293879434092,-62.52980816185551,-61.132394444208934,-89.76832929606768,-109.15630282892167,-107.24677551642986,-119.3528045018773,-120.75451509521481,-141.6858484139052,-217.07833655826755,-135.675149194657,287.9697658752275,911.4669531375,1379.2789032622507,1097.1176920220055,-138.0102079230338,-1206.4974113160508,-1032.8316643518083,-349.62638748966384,-171.06732833261987,-168.83299592269748,12.666752456998069,60.685766711370405,-1.6765273169418542,46.37416675548087,67.91023950600072,15.553060062034202,15.405677089329522,21.229828993173587,-13.479229287069941,-26.946860947994146,-23.027363365619827,-25.37277388396674,-14.132551445840521,9.797372148638374,40.53108930103974,83.80311149859565,129.43488750924053,163.53390614651676,178.55642308920972,176.2187062385165,169.6013560197941,154.56312846532492,113.06562706055817,51.25997110629808,-12.569907764246693,-71.55988298884097,-114.67931725969541,-130.76567960987222,-128.52928008461706,-119.18238887495272,-102.28463935936016,-82.12519528508308,-64.41929187507776,-44.61827516626592,-26.2968054751016,-20.661461729156933,-18.388106504656882,-5.816884037776504,6.43937730455132,10.32042313845831,14.728129103689877,16.376773978583113,8.510643810823396,4.2456134857040855,10.288323098221111,14.490054513698537,11.634208968136312,3.395826093772868,-10.507398622706749,-21.023411781247248,-19.48039104194393,-15.772401656319524,-19.391119463852732,-20.18897794093513,-12.396112662927775,-10.993268324625184,-14.890100794440148,3.1251791173562333,35.73449820907331,42.514810896984,30.068552243669075,28.69961225552447,18.465672453375575,-11.940338532411406,-26.20490941668281,-27.772555113321552,-44.92633421214627,-57.35369708002029,-63.37758437136079,-85.9935064726078,-99.54911154767925,-106.82282441507982,-132.84236187002426,-136.49859106371798,-155.4918001219854,-239.8752008048163,-166.45435225984164,273.9738618239421,923.3238352813078,1390.7954522993507,1103.9795918700377,-104.19295923935846,-1155.4207801437258,-1003.0170115367224,-324.8191948430668,-133.25404138967036,-157.78952571604222,-10.074012839846162,45.680658585564245,-13.787133624559551,16.243168496943568,45.188429482189015,12.651584129927928,9.885042656278717,10.324079300207487,-18.202879614001162,-27.333100484017912,-22.53149829097758,-24.51566646566107,-14.095841076184715,9.53823515892351,37.4425593422553,75.25413283057327,117.8023485690992,150.68079302280472,169.7494881552945,177.47823580204627,169.73978936856827,139.72088316266044,93.71202062446665,42.71100586312101,-12.776252825454733,-68.32489635809263,-108.57435645051197,-126.05595392235341,-125.10868769826186,-111.558677148843,-91.94387980868642,-72.76128063773305,-56.66751810202758,-43.7232580494688,-32.36854812311883,-20.786028484803893,-10.438895764079724,-2.9394473599388533,2.5114693557661454,4.91089424283305,5.979130303078739,11.25938913267492,14.782946559910199,7.081047363685489,-1.473589787903709,0.11877696651074743,2.3418333422620528,-0.23316701551187258,-2.102904622589884,-6.965328026375518,-15.83195286994612,-18.08985628624205,-15.232558919478207,-17.371479199177102,-19.303249047422177,-15.829673928773442,-17.44595014095018,-20.343250139965235,-1.2612498965418375,32.996167874844254,47.309586333143926,41.24156194619057,39.42751264318581,31.6317847373789,2.277028831267046,-21.912664120585106,-26.434667246370594,-37.30877680289685,-55.641037472627275,-65.18392222477522,-79.7735850720799,-96.65765986387234,-105.01356986503735,-128.11163184000955,-146.09513452457028,-150.47773352465975,-219.25785971873813,-250.98279790072746,40.220923836103054,665.896395680203,1282.5286117611583,1356.004523821022,468.1282613648991,-804.252069508854,-1168.748343206988,-559.5988658262145,-130.88299909645173,-168.2241181918721,-112.12254711939661,20.557894802611642,-4.12407128385081,-15.27753910781544,36.02727221496576,22.13990312232785,0.5001489487712991,12.818548493363139,-2.3000197648116596,-21.60481647444395,-19.91404347440482,-27.47572839576702,-28.823723679832465,-5.845556043927456,21.46708141790896,53.85611196588902,96.71904637214782,135.2083278254629,163.3063021480855,176.1330948858237,166.9641683071551,147.84136032773569,123.04251501858852,77.56191810745393,15.340905094456753,-44.73354647919234,-95.04016941111695,-127.38523707455673,-134.13175398857982,-124.0538477508313,-108.0576959356305,-88.2015323522193,-66.6767853688679,-47.04335085218199,-31.397425078109663,-19.183132873692674,-8.61853729402603,-2.111179598512418,-0.14979431055596137,3.037830467607705,7.35727239284871,7.782401446228288,5.007179757601527,1.5927211568677322,-0.001131593959458499,1.7564444832775585,1.9385265108150591,-1.409745847931669,-2.961767216030637,-3.1059817468469753,-4.304547544002952,-4.327574138878299,-5.564728599179626,-10.23081049188254,-12.590092951811123,-11.21995750450996,-12.4406235199281,-17.95974710321358,-20.368845188348093,-15.091065728835003,-11.533567445247908,-10.969721472625762,7.3446460225918475,39.27872067830996,48.211556561369896,36.25802091924531,35.98358911820959,33.78735407672946,4.731275471940862,-21.7923907624917,-24.00180584239493,-31.230896953514947,-49.67605015720963,-59.149184682239145,-73.64944407310676,-95.37797357344103,-105.5616282710674,-124.1111001698702,-143.0161758038692,-146.54654494370828,-205.7143215225843,-249.43386473021545,-2.6046047943903545,584.1985755805085,1210.5212930801429,1372.0070184031238,593.6514916707756,-694.2770880069247,-1190.1978333467162,-633.8157116536566,-144.89591131767583,-153.029279741925,-113.98715916788044,25.569475327744144,6.678181501916356,-20.530155124764534,30.088954601558925,26.36278487426325,3.326456374590208,15.394670388770233,2.5052489652055536,-22.95141447638624,-24.31454460906474,-26.19304802410601,-25.39515572066567,-4.854344120463871,19.282691679076827,46.388353414577026,89.06492620580781,132.70837456322707,158.86627697437785,170.18592527786717,172.3572002181417,163.77453168757154,141.25192603649654,98.82334233274577,36.27654545663916,-28.65825852443012,-77.7143483313761,-110.35365470206854,-129.4485283545781,-129.47895760496198,-109.38392798003292,-82.61077913772368,-64.25325769459512,-53.00746394002953,-38.980459138978816,-21.830560834771482,-7.293410088699051,-0.8158408933007095,-4.7069542322011095,-7.450066684717246,1.6080064778921308,9.181574609809935,3.7846123343171794,-2.2212431585878516,-0.678865339038758,1.6215062229439052,1.2865195331043342,-0.8690655024882936,-2.299058130766225,-1.0334824022094367,-4.434290937524326,-14.436632106269196,-18.050224795728923,-12.570135016088452,-8.003874190457175,-7.054914283031,-9.789001955904855,-15.116235228484836,-17.514519088871076,-18.120835771339948,-12.037746123061083,15.288950587792163,47.85436581814834,52.885178463500026,39.78343975047878,32.493323374465774,19.229661238766667,-6.086825116860808,-22.04421066050775,-31.12670225686142,-45.74662980036859,-50.995032958613535,-54.683409360192194,-77.7537504721339,-97.26267534964053,-108.29340946128738,-123.37397313252717,-124.36713711391891,-161.02220095376734,-235.67729372054006,-114.82695916092445,347.07730850789426,972.653430518395,1379.863974956596,979.0089786725162,-296.93010080082865,-1237.8442039846168,-941.7822371495909,-287.48435245209026,-163.035814002645,-147.19378371271603,34.9229182230208,55.81018461882341,-9.72493573641066,42.975174363135736,61.673044304882914,13.77725679294489,14.515743094341545,14.452848438821455,-16.44293607168372,-23.32463502371141,-23.217496466567592,-30.855234216945775,-16.567620151064567,11.773252582289135,40.47514016467259,81.6376809101793,129.66060595237457,164.3722628619294,180.17974179103322,182.760128637686,174.4774761953874,149.9102880730412,106.79356883981535,51.54863588583896,-10.42030647931793,-71.54725536981852,-114.42049270239424,-128.28782781253904,-123.43026675310765,-115.6943951838425,-106.31710023438913,-87.49606023748424,-63.631748623768885,-47.8451781149971,-36.729471635641644,-20.13919880038619,-7.646752855734412,-6.947545800590298,-5.5466023229809345,-1.1202093721774915,-2.0530742603107868,-0.06205755473646235,9.244452986575904,11.518991703241085,5.77130784937391,4.486199073057072,5.62879775073116,1.924529414924713,-4.757203129650049,-10.663497906202679,-11.03913396192562,-6.603016840384342,-8.763814235477088,-15.40745422298909,-13.088731785733106,-10.215197453009473,-9.925186879158584,12.646966928867236,44.93151108407467,42.28923431971175,22.67930003496605,23.674540095945044,15.181643086176829,-17.33245631684648,-31.523139754359093,-32.43486017287364,-49.14482259228859,-59.024964544809116,-64.01705515999961,-85.75721173881927,-94.05743286992504,-98.35813911050751,-126.82367772419074,-131.82075440312343,-148.22954686456342,-218.9843368887911,-119.82719608425947,334.05788321897734,965.2404438067101,1376.5921960125024,1002.8259564650459,-243.81121905174217,-1215.479377144548,-971.0906489884397,-310.0734212310295,-158.44065400495563,-152.56822429330606,17.541151671821268,49.40555514262526,-9.731093321791914,39.83377346026108,58.10280057964132,11.651699515431552,15.227605047566406,16.28258713203045,-17.671712352181547,-24.84273822190758,-23.155859230155777,-32.74328999912109,-19.74532246404278,9.783558442697569,40.02585374781382,82.06887823678235,126.43737832211582,156.97019544814944,175.76081814749833,180.984999188263,170.9122344397754,149.11502834768297,108.7609263415854,48.38972843254219,-15.278855791121822,-69.1034788670277,-107.59402315424792,-125.82295313329402,-127.32430359807329,-117.84162239199647,-99.2501379092889,-79.47302124374039,-63.60362078182082,-46.779538022563365,-30.7271433965906,-20.45125115634084,-11.847027588041566,-4.12694891401566,-1.9114172602159414,-0.8893762350930245,5.633345410239496,11.865846751119085,7.484655003259878,-2.7922103268013636,-4.2240433538787485,2.089493589601984,3.024594101532804,-1.5420527202360592,-4.869946427151637,-7.002412232430402,-7.583975733302001,-7.189753464488952,-10.080916771560666,-14.697843920678844,-16.166075829514284,-13.374441406798873,-10.51336558241455,-15.476565351276447,-18.958958943349216,1.9447507747526114,33.80580502678338,40.77375840439238,33.5417437256683,37.3656230693051,27.84370149891977,-8.364586055868141,-30.041639896377298,-28.54387436561141,-38.93900022363933,-54.34653108064551,-61.91010770477618,-83.19982836782802,-102.84269204100968,-107.71308285472581,-126.90729479688278,-138.2320031632385,-153.4586044404046,-237.0051360449523,-218.16521223954285,163.71297326273213,816.6594716007507,1353.680883014296,1229.9868341786928,156.28923231095212,-1021.3867190327084,-1100.8531424382738,-422.19341079302916,-118.37600282986605,-164.14967033491612,-56.125103987830386,37.56462659683356,-9.306697973071962,8.940401607006704,49.71104638620394,13.834991738053473,-1.6095733681511852,8.032894300119032,-14.441977898297454,-26.976485756119263,-20.566096349020192,-26.93371404055902,-25.15046112186243,-1.7356922272020334,27.17995700330378,63.186258489902585,106.66429698349295,141.99636161026632,163.12429867751405,173.6198231183418,172.88110202843728,159.04912808767176,129.04350393209282,75.71291011365183,4.50166341482552,-59.43994640739607,-99.45324055722075,-119.45228280927589,-124.60681710100967,-118.42552430119147,-105.45438553325576,-84.88214902323877,-61.99792838271781,-48.08667504850062,-38.127771097748166,-23.958102100937182,-14.738716542908307,-13.541763845074705,-9.7339277733739,-3.954541542238424,-3.1305490145595343,-3.6294938522382623,-1.9137407421636716,-0.743117311983962,0.06502281255348663,2.561883195735252,4.157155727306657,1.6071584289100898,-2.4040283439482106,-3.5981651521498286,-2.8944369862261414,-2.739325886237694,-4.499416011320871,-9.794625512417891,-15.602174035475116,-17.916466835823876,-19.32429903863507,-19.09893047028528,-15.133401653597383,-16.034144426259243,-17.53618276268592,3.556796583933556,39.49584530839574,54.23847536154039,47.59336135504305,42.89847160795585,29.734154612324886,-3.4253465200076114,-26.589907975023817,-27.723593545989317,-37.401120314999645,-56.13892454662957,-65.23038754396478,-80.2981400696745,-97.86778311167251,-102.91487869457973,-121.13632688055615,-139.42414124456212,-150.75143890605054,-224.72257572218777,-246.7509361333017,68.04776064086775,708.5950871724066,1301.393339510667,1307.5310590252548,369.65082390136,-865.3053458775819,-1152.5848000927529,-527.956535059379,-126.07056903720762,-160.18625864348598,-90.47792911465895,34.15983872205874,4.938065970313325,-2.2683043773137754,44.946155783355785,27.461381148400672,7.458082555942507,18.916975294162764,-0.707515703823919,-28.779940720858256,-32.33393842163205,-33.24174339361767,-28.52255553248553,-5.883263502911383,22.352213566712962,49.812403074921036,82.61813130320101,121.30875239124495,153.41369212585744,166.8718590907198,166.36764128750664,156.97866928737096,130.28085705220138,83.79267232765847,27.37768882764733,-30.602932243817055,-82.23693973031068,-116.57506155649418,-129.39231709284567,-125.34227387695238,-109.50568514526213,-87.24450050780105,-66.11248463682568,-49.09403491622739,-34.950715548147635,-24.830078140757657,-18.020335651403922,-11.334215188971339,-6.603988292777931,-4.740384457075983,-2.10267214414446,-0.7731342905220799,-2.8600954245787236,-1.6147071885648252,3.4103956507903224,3.316689683893891,-0.7615326301819128,-0.19250460166393246,3.6862125340198464,3.666494982001831,-0.7757175568568222,-5.306523284683603,-7.55977490972117,-7.634136732746789,-7.336039273995608,-9.135700033046131,-12.236472401845793,-15.523566886562282,-20.377184280152857,-22.007931972659417,-17.018549475231282,-14.17456525388459,-7.65080768461378,20.016552499957605,48.75850452804254,50.78209959717833,46.59771551466609,46.48219020602093,20.636958345564675,-15.836966583704159,-20.509228983722466,-18.455444882364183,-39.51440641385771,-54.181938272548166,-63.482989274549766,-90.07779484974219,-104.16840676380536,-106.97899711665055,-123.49340234479399,-125.55886907502764,-158.51712309784824,-245.25231441213117,-144.3834869493407,323.30725664998954,964.7218807553251,1373.8431767244308,997.2820523292567,-239.1768734494911,-1199.7823158931806,-954.8259872262257,-293.8912495046611,-143.89627470323617,-151.9088182817254,6.49083233750585,45.485074303272576,-3.8135627526953506,43.038623514392285,58.39405485296737,14.019331061814682,14.604696081763358,12.79924159489186,-16.886907771694872,-22.739476954018002,-22.679136549231846,-28.44489276876655,-17.055516746839594,-0.43123757799264695,24.263545470966022,74.29700976557413,122.34976667341454,147.54256008312626,169.32197488403486,189.98704839067818,188.05239243958442,161.67710139435226,121.20578295484583,65.70439658914458,0.6450377060956836,-56.4183355514692,-100.27498523897137,-130.49610398343586,-136.5843953891651,-122.48720106183319,-106.40349005645803,-89.78523873518935,-69.24005597013591,-52.46459969975126,-38.491456318554086,-23.43428741228775,-14.730952806881774,-10.47826873273057,-2.3930214489618606,3.064598390305207,3.3724106562318177,6.448400324148057,8.95621528518354,8.816232135173808,12.96775616488329,12.91806848874424,-0.5070487687189171,-11.797715706782899,-9.48370341484817,-4.57633394039939,-6.743299645732243,-13.101979204403774,-14.777094381172677,-8.679539154801226,-5.691935129167341,-11.178584102602633,-16.33489341002445,-20.980170791717377,-22.338001510845125,0.27226888149579853,38.7330973689382,50.88865756972883,36.16310738607406,29.02968987347961,20.261389266571918,-9.724900421737498,-30.748868473997703,-31.238995077078233,-41.22895887344509,-53.641803970743844,-57.16676760201268,-73.65357586466803,-86.86754517607511,-90.00199231889817,-114.97394872089309,-127.4086549546352,-135.09491168469253,-206.09838174967385,-173.5729587053851,194.1734203202635,803.3259837164468,1321.4604747371015,1189.6771012345735,71.12120000062461,-1109.909327004118,-1118.796966267675,-430.4232794014496,-177.16476936305202,-186.5067201353583,-2.7006203954977366,80.78323940254157,0.2152915356678733,28.211019991878377,73.51447673593027,29.900377245736834,18.735024503664746,23.9243236333787,-13.18796408298034,-30.659652729827883,-24.870701384785836,-29.930446447758115,-21.122397680992265,4.812323050763101,31.371231585491287,70.08894773014123,118.25844921390096,156.5739207955585,182.73902696839667,195.43565638097112,187.7141947457423,164.22308057053934,126.51809865539701,65.43782321930061,-6.56863683907916,-62.40408389785618,-102.86639288894905,-135.7225199188588,-144.23457707479736,-124.90320965509318,-101.67202993513409,-85.23076476801,-69.84292274313579,-55.54271298543915,-43.116507129147784,-29.976469300922,-18.139117405124257,-12.362956635822101,-10.886857676026047,-6.363511325765074,0.8382946880220352,4.7574776227386195,7.94512378056854,11.295826701900264,9.109534682618397,7.6568292813453755,13.538953670751376,16.575214046631014,12.01640662007064,3.4188881518362138,-11.992374577585831,-26.708429125760603,-28.36992058964438,-24.300628807009282,-21.15884379196345,-16.42552246452538,-16.91066559814996,-14.547746991922418,12.534297015698538,44.12104800456363,45.611445892727815,35.60771061036745,33.920474003974775,14.335571122631382,-19.217626811332035,-28.15466154189466,-27.21962097084731,-43.16526644987107,-56.103329328041156,-68.22987036332499,-89.66865564056516,-95.85010863737725,-106.18191929293815,-132.53340639162013,-135.67157013492067,-178.19948151698708,-258.9928677850192,-104.30905220748825,422.79138505205225,1074.4652745691387,1404.4136305754605,869.9943906951988,-419.560030744334,-1214.6864759334585,-823.2999972574589,-214.69576153702252,-137.19906239551918,-133.1895377691703,12.849086479891668,19.544876547487405,-20.0982368731051,33.34881624729993,37.356689255025344,-1.2835597530368172,9.23905316800819,8.132825215820024,-19.502152651655805,-24.059593001809787,-25.06237344456489,-30.955098160716314,-16.207526957796105,10.815103399764148,40.44738699134294,80.19948559516389,121.63066370493922,151.89982990311896,170.8071755360829,177.83556827413224,169.52811492891726,145.1027985860449,102.58558619873541,44.58090429747795,-14.052978221559787,-62.68125377835216,-101.65287464884518,-125.28775904882909,-127.73049685253392,-114.18820662540156,-90.07956033836865,-66.29983019752632,-57.52149882262094,-54.11274170907104,-39.93480106867406,-26.20626147638276,-22.344611769883883,-16.829751418956533,-7.82371778841069,-3.897189182592051,-3.1745075644285734,-0.9051098874977583,2.2023403892548075,4.121721161170116,3.497327834381368,2.1068166198210676,2.055791753720129,1.520495067404429,-0.8267196627489692,-4.60425244163828,-9.201748613452253,-12.875249903628745,-15.552747360940739,-15.839320289161222,-11.458434335395083,-10.152313371412657,-11.837317897993238,6.564590005092361,42.861493838137186,56.31635233136461,42.40920264287179,34.095372795551285,23.955179316428953,-5.448612492590684,-23.561725011037165,-23.1134655907024,-40.18198651658092,-64.42393049024572,-72.0603067817317,-85.58748234630394,-102.32115509280239,-110.53959086166407,-132.5709830489281,-145.58312203340992,-158.95071835100114,-237.85285746724887,-224.20473799345288,146.60024085433307,801.5468793872648,1348.4725776938008,1236.6016635322258,186.88515537832387,-977.2186992993863,-1077.3047276426573,-418.66235108299713,-113.40829080315363,-165.04131147495252,-67.75615390187265,31.381118019090195,-11.44394491067218,0.5914246627234974,43.146982937065104,14.059630206999236,-1.0595335939784896,8.469820609761666,-12.778869735981035,-27.48191183777844,-22.72940453881175,-25.975739227159295,-19.854025173192632,3.7862637877007685,28.122127567396976,57.74547080566052,95.44909386638872,129.01409223713347,155.06445014330404,171.47834148434615,170.39705881375906,152.67598728352604,122.07293805499991,74.1436342362571,12.18931588709176,-46.241110300006575,-90.33058909859518,-118.28298633805795,-125.90587524756963,-117.0570402161323,-102.34176057002277,-82.20336879949531,-59.323298899485664,-44.60210815722408,-34.20400397154535,-19.426408423819392,-9.718273721695269,-11.275883722435353,-12.778908103385913,-7.4312933232716105,0.931632948005678,7.836349209767235,8.767247526310655,2.6353509503111354,-5.083959022508893,-8.577810691118334,-6.022987206759737,-0.5334773147482785,1.2373049234939835,-4.278013526120164,-12.300383652801418,-14.286024654472131,-11.925258129420069,-15.026420687731903,-18.92204659065135,-14.028534041849284,-9.679218745313158,-5.3722675834849545,18.1725537975499,47.03594012461991,51.56425099934084,45.53283045401957,40.41612768110972,12.286443228609258,-24.023743960164932,-29.80820877924875,-28.82691530897882,-45.37083131612265,-52.43274655497008,-61.36699826529827,-91.21532854171616,-101.9682866388855,-103.92792632507785,-129.66106573366346,-140.54545991911473,-171.86921443762515,-236.19109926855919,-98.70881067000902,387.7423422205394,1023.1638722647215,1396.6492886748656,937.154602142135,-344.9789661994462,-1221.915137487307,-883.9791765385435,-251.30645324134363,-154.12899825731853,-153.54693648270444,12.099304334204206,40.03941815421295,-5.843386101838103,40.55566306081748,48.318400040473335,6.329353230228698,4.964073499452013,-1.1682248811936162,-20.084977449167784,-17.10264053300114,-23.062487645969995,-31.504294864877245,-13.280760675048436,7.796776997752403,32.112030055910395,80.36238866479817,125.96714810750908,151.72527090224818,176.24752279548494,194.13935891304584,189.24116666391765,168.16308213844871,125.01911813450141,47.03729083892911,-35.35045298902918,-81.56697417349586,-100.5647503456936,-119.83976809986903,-135.580185723824,-130.19292401107964,-105.5756492446655,-78.82578251349949,-61.16212292226223,-50.912081082188266,-40.26637451794797,-23.694112896232596,-4.8701013187459665,6.625311648698972,8.383677694702897,5.396574503614069,1.448083533463727,-0.5989387448920453,0.40103873083966946,2.9797779922800327,5.423850480367264,0.724843260433115,-13.813288202620978,-19.60927938490925,-6.405748975262114,0.901876435925022,-10.142096474257043,-13.659914457522298,-4.141650116638521,-7.104962802606977,-13.073119757210353,8.771719059119643,37.9412394942248,38.39229940791999,29.842595794592917,34.54775874765669,23.415998398073565,-10.962876260342878,-29.87100733429701,-33.54829795730063,-46.07366255302378,-52.06222471383081,-56.19499859094075,-80.27637706745959,-93.44221310587189,-96.50378566718315,-120.14319125150469,-124.51581219090417,-137.69111611353327,-210.96252654592698,-140.3092472122911,277.4566798780189,908.8352113614451,1375.0581536794823,1070.651242809574,-172.31732833240267,-1211.5177116436196,-1011.4396675473579,-338.20256071577813,-174.15358377616937,-163.62455394088238,25.301461930597156,66.9811170118881,0.8770258659139358,46.86779672111176,60.59125206925025,6.612296117475276,11.826937899474046,15.185160711392134,-23.958440143470824,-31.433577539089317,-21.861904067806,-27.010159574256427,-17.519516302936612,6.5444833318261395,34.718902429074234,78.51121437054503,126.54584107525892,158.52514230648708,175.61674190817254,182.68731732263143,177.31197800142792,154.59157414621032,112.13573014571963,54.86549483852954,-8.18000347532492,-67.48154892800002,-112.50458846825953,-135.22936906764878,-135.5307275685872,-121.93952736211662,-104.2021715217422,-85.25967771264001,-64.93106805375344,-45.43558670494729,-29.382164549807136,-18.92765102905755,-13.810777124686197,-8.604020548359173,-0.9091034013440016,3.7900108254681335,3.6629237382945856,4.4661683939859245,8.282531341397888,11.11039846846515,10.475241574564908,7.0443645411760345,2.2211778603044507,-2.0677581880911777,-4.722581493422338,-8.398039651273653,-14.908145400281072,-16.672783086871284,-8.752163313502752,-3.903284572691712,-5.9436903749103465,6.554395214769839,33.56114586003665,44.342605065986675,37.57038152500766,32.987686552590986,16.850457816240365,-17.316726830755417,-33.56794843630466,-29.30949182899976,-41.00385635770173,-57.3960788252165,-58.53331137193771,-71.36496951057671,-92.84207961493134,-105.68711034340694,-129.96617978697012,-142.0260505967414,-149.47971500013503,-230.94150179193062,-241.41777570458333,94.26166012191516,720.4123457801733,1288.6173215605331,1284.652764479187,319.9771176538701,-919.475636549769,-1145.6231507206312,-485.7437753356251,-117.46493938017957,-161.4891113842619,-70.03371778639763,42.70204233528473,-3.454760732395883,-1.4634374455425547,44.965413352708005,17.330904399496454,-0.2412156534101264,11.129175814398693,-10.271866065908643,-27.188263366059143,-23.221188712962032,-28.935600183845626,-25.97037468623941,-2.412242567030571,24.908552136275723,58.372550929117736,98.99456720694995,135.35892702664677,162.48047444968972,175.18789991323877,171.34175087512125,155.43930506437457,123.73691049889223,72.78029962048782,12.985444570477792,-44.571212811713416,-92.68821938914694,-121.57359898604739,-127.91620393137774,-118.42411382581585,-100.60213996588944,-81.36234237665136,-64.45309285283452,-47.28222046640868,-30.753339407724635,-20.255868392561197,-14.582332101182523,-9.318904023760972,-3.75804115664441,1.3531955921452763,3.991409816861683,4.975426547900476,8.453091559059859,10.040258681161358,5.040596252771598,3.215421671556621,8.725423142963038,11.887301101337528,12.009802858407399,8.336853904097845,-9.458578812187417,-27.961530808635686,-23.596478439167157,-13.309767522246004,-17.137137386439324,-10.15164715022712,17.97639993595898,32.69932404799235,27.748533202136976,31.182845462572836,31.125280260965216,0.4289606685123246,-31.120933721520334,-32.58872292760128,-34.18816063955231,-50.17773709335712,-57.37853222192208,-72.01256551843849,-101.4299844723544,-111.85469939690299,-121.40446567168098,-141.43653383926483,-145.88950317842267,-201.30336788065907,-272.6877365495934,-75.03341996262824,493.92497473687456,1151.1305231538602,1410.2877963449707,758.8784392198447,-535.6877367972382,-1190.8284183064134,-718.0588391987856,-167.992718069458,-144.88094751521905,-140.53773136835534,-1.156545114103011,1.3005824965667898,-25.816434715056452,29.37803850370641,32.129608118458265,-1.1828348333199576,6.45721116049409,2.7885864402608838,-18.668721819259684,-20.1881952473382,-20.435452117993762,-24.570833993441934,-12.948577247515152,10.317916483807736,39.753924148287055,78.74561417934598,119.81287691155963,149.467813638663,163.97257638079725,168.86392512175235,164.28197001727597,142.3242904621443,97.77114330254545,34.44054280723408,-30.564304872169277,-78.49808400029524,-108.11333821693545,-122.62787680583594,-118.7715787810308,-105.55262131959333,-95.25226673910785,-80.62437805869918,-56.70469400653762,-36.64457420141585,-26.43839506196904,-18.15429943377042,-8.603098497854148,-0.13712794642358261,7.226631432168315,11.55561790959797,7.437383094881058,-2.810688441383334,-6.531891798584258,0.2735482747300608,5.409863439697782,1.9740397821566766,-2.931156942022561,-4.927250566077323,-5.6645671100958666,-4.097297194665099,-1.4067064678181147,-3.2665931824490073,-9.826169727224428,-17.027856707220824,-22.644725618219844,-21.802756988358603,-15.83349952892054,-16.705779453520414,-14.468060610045123,14.72043985826885,47.919286042588,47.7235037960511,37.72038098186532,40.51231177444002,21.34725466540723,-17.842846863399807,-29.36721730483668,-28.667743794134093,-48.267057451208245,-60.63010584113379,-64.94334607993945,-86.16419072809023,-99.49230277012562,-108.7596510664221,-132.11251173738344,-132.3881389182844,-161.50706956792425,-252.94192500182834,-156.2997864106329,325.42597027846944,989.2867804781822,1391.5971770567617,983.3016810759013,-248.82610843231802,-1162.3341856604209,-892.1548543607978,-244.56600831970096,-118.05059676518604,-155.4999994692579,-17.112155993716073,29.012920956465976,-13.948097794688538,26.554826271205208,47.74643036724207,15.335480753193776,14.659536563883947,5.873303131179611,-28.790459933952963,-35.63940276024513,-32.09327139163922,-38.5451688284511,-25.265233836972406,9.821551664887703,47.07923574144396,81.40161796812188,114.44957166423836,149.07477311070681,176.51359459745154,184.19555921170178,178.68714451625857,160.61158877923944,113.69892598357812,45.929217855879926,-14.916106605749224,-62.32205846505265,-101.64953786292352,-127.66381146133202,-135.229229381817,-127.92760105129716,-112.29943923151185,-91.37871550028586,-65.41146618075395,-41.89092494893336,-28.824074110626814,-19.007360337620245,-6.908499710469798,-0.7661379169130598,0.9238784664547097,6.696292143523102,10.133653581006264,7.990633031982751,9.521595161187397,10.582853499282088,2.768885270053632,-2.710797789921388,1.9040951272807956,6.146406206163082,4.9360072610355505,0.4864070819601558,-8.894238570096597,-17.826572205472814,-17.25648435778426,-12.560823745076267,-14.21599324176649,-19.033336317701977,-12.344357397454187,12.118970108148954,35.68463974582201,38.983924387745866,34.48016148535464,33.53641382228834,18.54547037886367,-7.921287265437996,-20.129666519726893,-27.843527933979097,-44.837399223484596,-53.104603562838804,-60.41490385316472,-77.50349842132484,-81.73539799120203,-97.03733456296781,-135.31291247348412,-137.2399385553088,-152.42530807457726,-221.96386562050876,-116.76073291637594,325.42090655298,935.3946971747874,1356.4194920619427,1007.7971022080534,-235.137935389203,-1205.6050244471617,-954.0410714393416,-308.3828162718303,-175.92680139156704,-159.09485782011168,26.440259513790224,57.574843784533805,3.664507890773981,62.82969855263493,72.42686407826645,6.087564745646265,-2.077283057211279,0.3530739591860197,-22.14322908485545,-19.98351152323031,-23.85962162261181,-42.63861988724956,-23.89625326188346,14.655717059858162,39.13201111365092,75.3415371342278,126.92206029422937,160.36313266800067,174.1830243900203,184.78770340312718,184.4341058607189,160.3012465782126,114.063160687766,53.43137931642872,-9.382056601911072,-62.952917242743,-105.80528609470093,-131.92307562071613,-129.83566463540066,-112.6911665748019,-103.79140801442543,-93.92048512705699,-69.44502282211212,-48.633152141212,-41.15634528896808,-31.298717334655493,-18.299533835283185,-10.832171456198346,-2.119847329573254,9.810654470926671,14.099651032772467,8.561620886399773,3.7154951774253426,7.1517744273149555,10.483792828204239,3.9760895360760165,-2.067392157365026,1.2688250287410678,5.731256811089799,9.435910287462354,10.987633227745318,1.6374888785156472,-2.92096580081839,14.193037759207932,28.08928341439996,25.406960027463228,27.866650306369102,23.430385928261995,-8.469352161204263,-31.84012657889965,-30.343574335014267,-40.638403883894284,-59.69854879127844,-69.36666240583372,-87.48321682107195,-100.92774013815776,-101.48417269982816,-117.81977579292717,-124.02073328962739,-136.88151299688718,-215.9079562409292,-183.4887736938545,189.53902403860513,806.3257909818818,1332.4147173031056,1202.0319176694695,79.71268676930299,-1102.6201807885027,-1108.3106629469542,-409.90610398608794,-149.45967600042704,-176.92094200384335,-23.0998523879217,57.28550345319114,-6.567810458633296,26.196648705003255,67.37389498057584,21.619232916108455,6.6797733417392315,13.602271677022307,-11.917573129435663,-21.80831095170827,-16.201306715925448,-21.85698324806046,-17.108084568419557,1.6715399513130116,28.42285840733291,71.52473118683409,116.02429362940465,145.08995596550585,164.74628731529214,174.99339990406213,170.1595924384711,151.61074051304143,113.76177993279939,53.31551627867209,-11.669886635123436,-63.19282809349734,-100.66779011461672,-122.79753283311845,-125.23302720874736,-114.28671427587967,-97.50756941987581,-76.6510658773814,-56.550103092752764,-41.49598205803124,-31.27800690537517,-26.38591134458124,-23.60251831813178,-16.55308288934162,-6.510596535753411,1.013045649268264,4.418152934529122,5.080587206940283,6.350254043667764,8.576665093906847,7.251305241526055,3.926294355455094,3.0499744292030755,-0.7567235036882156,-8.024456473108597,-6.5579374086796065,0.06875381092608279,-2.36135244768842,0.8273352084724475,25.400423276515546,43.41474641505522,36.94597798615811,32.99271583402172,29.945325872280208,-0.9301008328607523,-32.85391701513802,-35.37574083016077,-39.94806715095919,-56.144802291696074,-63.12460522186186,-77.75151561281602,-97.26393567209428,-102.90892732952138,-119.81797857991677,-132.7045231181861,-140.79599755125577,-223.14934970359798,-253.65613392056133,49.799092368459526,659.1564549591908,1244.5336895949142,1305.6992024986464,413.4125010809955,-840.5184375140556,-1149.4713027778664,-514.0002365691407,-111.920793374376,-162.20366500645252,-97.91239145577727,25.984945648221597,-6.8586842189484685,-12.620951244664923,37.72052279084761,20.501191917858222,-0.6958064154460466,7.068667513079472,-10.617221450496816,-25.066047692168183,-19.484789701825214,-24.288301700271994,-23.222875792505054,-1.925499858753831,23.845200363807585,58.105906296088776,102.07010811893751,137.87594418824472,159.94527490786794,169.28617740884786,164.1148473473886,149.13017930125548,121.48101634832456,71.5417527695629,9.644967995439332,-45.654804790658424,-91.45729738216534,-123.87274453490548,-132.1659099391515,-121.07611108779119,-104.88892698518511,-87.17077586833264,-67.13335948723372,-48.32696584549448,-33.02245984734935,-20.846803395647292,-12.160689960628936,-6.674639731725289,-2.5209689846339955,0.0251767013965285,0.025209040188787668,0.9405614569477407,3.536665200396314,2.0447796731810435,-2.337788110984384,-3.067543371097951,-3.341520352094724,-6.838473871728807,-6.841401567283519,-1.182034292163328,-0.24890063832660658,-7.437355993569971,-2.7065852331856473,27.85438349239814,54.92876715557934,52.23763659863283,44.85211866382911,41.89154828296036,13.163565998118225,-22.865850153487486,-29.7856319822223,-35.66244818201924,-54.70198458197438,-63.579597835239156,-83.09401511758956,-113.9606037012261,-119.98404096961607,-130.2570504750831,-151.06895833886273,-155.82113994906564,-218.04956431059946,-273.1204936995813,-27.234247502038386,570.5136051348693,1205.9015849467535,1386.2654094904506,632.1924506832142,-659.4995499629335,-1178.9290508297834,-628.5851092167704,-134.84240762925486,-151.83587851754362,-124.75088429063152,15.907242982293212,2.475930291221516,-23.566506023189365,26.869515917197432,20.919527542092077,-6.448770395103075,5.645975502418953,-3.6012973965914314,-28.01846601479319,-29.173378627916883,-29.940334950830206,-30.620653459263348,-11.14382767146396,16.897514427135214,47.80743800445957,90.08020009631132,132.11125258199192,156.648095155088,167.42349574321577,172.78690084158202,166.08136390145657,138.02265429691943,89.21021210574287,26.804986430094456,-36.444239540453296,-86.12745466688051,-115.47483824766508,-126.58456062396061,-124.87456053215604,-111.94842463647393,-88.34589664932518,-64.46648391607883,-50.085138698997696,-39.2481029273796,-25.33972640280419,-11.425381679078807,0.3727475055681069,6.940016023999769,4.243953976564178,-1.115195718926632,-1.630026566808752,-0.48620815592826006,0.2761340999531825,2.880557465117123,5.0669998473085425,3.348881070027879,-1.9540147678330246,-6.737931328740762,-5.963081439661507,-1.778451917296623,-0.8834276943107113,-4.104075982843611,-7.901807809796183,-3.2217202855222853,19.47100465184259,44.23706722649477,45.26423384749732,32.476585183173626,23.040978020769295,6.039444317217022,-14.285628651445911,-23.964621848064482,-39.23463980707322,-55.814766078119334,-55.557393579456416,-68.5931850905441,-97.05012894080159,-107.94260029524737,-127.02943936736483,-147.81158303334334,-144.8043489408345,-195.58537952004664,-226.0069215062185,34.78449738758721,603.3476248560423,1197.6562765917854,1343.572068385676,528.565558445307,-786.0093680492969,-1224.8741267303708,-619.4446624117832,-168.0081851692252,-182.6053324313706,-86.91887762651822,57.50297571719844,8.13660610331609,-5.975692064946815,60.512102058765166,39.61372910283187,1.5995546041864657,12.553306717333747,0.6264780289523268,-24.684254191189616,-25.78670260490179,-23.162210077619797,-21.427976082619175,-9.40203806545572,14.249052575309584,51.51418632760434,98.72360419446682,143.87069332042313,171.22597652747365,176.93330548866038,176.55001209199773,171.31514090922514,140.31199087126794,80.89529510810863,17.143178499075322,-33.791135798699116,-80.3403533120185,-127.5426419680538,-149.35556393416448,-131.6489938780876,-104.74414054363486,-89.35236422832008,-73.10209363778185,-53.731410038461675,-39.22610475117407,-26.59663876300241,-15.990401863653823,-9.794314527305552,-2.2789502175271963,5.819916607207718,8.700137540881771,10.669585200786623,14.162365235238532,10.884034354920043,-0.12356336031349002,-7.838505610587134,-7.898689438833085,-6.772736563084418,-7.573941966387848,-6.575204118692831,-3.0985506523079245,-3.7920687525191514,-10.52447042240797,-6.804291215912622,19.62511468306118,44.15604660853792,41.198385378099246,29.592650442552,23.3831975862926,1.9571926546720206,-24.24839774938296,-27.037140898223726,-31.0100405180592,-53.01095604899936,-64.67008695377604,-71.08315503550546,-86.5850850231518,-98.90706726141514,-121.38484949824331,-140.16952314969168,-140.33598880794543,-194.39186948011795,-225.29796054959775,25.81935602417431,583.3660474015869,1186.5694880690937,1358.1500193460176,556.1376213932687,-778.5204640772733,-1245.173086881109,-639.194141539801,-174.97620146408917,-189.85557167495887,-90.6408780753695,66.40137659309897,18.0387721995128,-5.038697489280302,53.91022362290322,31.435511382062412,3.412464782216073,21.363294131030848,1.1153150749167429,-26.72070555118769,-23.398501196711475,-29.55309687553622,-31.404599889073268,-4.8361785934988255,24.24314252720808,55.397215525019,101.15112669452994,141.23382488907347,162.9512152325247,174.17921469853644,174.7951023925172,160.05272094890583,127.94267718070415,77.23423714870884,16.48112159475595,-40.759453791418515,-88.61928146255818,-120.97491242244672,-130.72807821310383,-122.12956075248545,-103.51806305567032,-79.84101068262117,-60.405047919616266,-51.91856767600896,-46.25073786319419,-32.69662391252671,-16.660068506476453,-12.604796568824455,-18.4715949370068,-16.751934289995337,-5.942431347296122,-0.178189519405759,0.5931123131054967,4.239163633784573,6.657991772053414,4.846751832861461,3.359507478164449,1.4314627666091422,-2.4961464151048514,-5.671420446681317,-8.953996142794924,-11.189344826498818,-8.938872262948841,-9.313308370161838,-10.610882379873944,8.402995571671479,39.955958157316644,47.30895017510781,36.62935280906879,35.8837342037405,24.714773123117205,-8.410360039970232,-24.495551833749477,-23.71902593925756,-39.352398616692774,-55.76289553711898,-65.98010219148631,-89.27974453115117,-101.3480234563039,-105.54428870049284,-131.90050326762025,-141.7189256272996,-165.97894687098733,-255.7283561882142,-189.8900326916877,250.6560515736055,904.6463804841694,1375.4622146399201,1110.261363671654,-65.61939804937492,-1117.3511411137583,-987.7796428671843,-312.6789387950908,-121.72534371231274,-167.4999579498133,-33.372757190512175,29.70353780444529,-20.809695466649345,14.24752237370998,44.09382952941476,6.151591752747763,2.69254833610772,11.242489038630298,-11.1504625675915,-19.779175062009813,-17.479903344673826,-23.40395936436715,-16.246198579945222,3.2306219674615733,26.98218945568806,66.11285116635997,110.11968515434211,136.4799826432897,148.34242434923206,158.47464210634013,163.28441023772587,148.87717130930452,108.15362718917874,48.679801159209134,-12.598146997833894,-63.40413436181804,-101.88511816117689,-126.09275634950541,-130.666512955363,-118.71763239819978,-99.95544253983036,-78.24821136840606,-56.7068415830954,-42.03187551510413,-32.66325069944625,-21.82764263650357,-11.997553388127066,-7.050995708471294,-2.833813941703937,1.719110419700698,2.7870557373837777,2.0354758519548923,3.174652115771025,5.7970121030266775,7.166614507965129,3.4605113097612445,-4.35400765108418,-8.914906144172601,-8.150888372502743,-6.866000522400093,-8.719491746906414,-13.96376974501068,-16.18028831561865,-12.350092883973486,-11.999666443542868,-7.883629491515326,20.788610273918785,51.89742863143597,50.21617236867519,38.5628673199492,38.579274516944594,19.083609544894184,-17.15626528266828,-28.23627366765052,-28.83225182507018,-45.71853473746228,-56.19062775400587,-63.2891743187811,-86.12377887305355,-103.19654595295421,-120.61149120165724,-144.72995475139405,-143.87032367817062,-179.3184501379294,-261.7945373704065,-136.70762179140823,363.5970534047051,1031.691396231483,1413.3272316041478,943.5285677004154,-318.46040999303557,-1171.9864491445514,-847.9390114633923,-225.41807829102373,-126.64245652877156,-152.85268949382538,-14.13404992692125,14.88893944814322,-34.67605174260319,7.083119355223726,31.947334252121784,4.049897740410194,2.466216894854064,-4.800566383090494,-29.886796060095115,-30.14970676450867,-24.547122313228265,-26.18420149780102,-12.624499461629739,8.80308685185248,31.20516726321287,69.06961983136372,116.13898518578222,152.0627131791565,171.90814882407025,180.61436605889142,177.9735910756383,156.50380985801772,112.06015232812469,50.53226903578201,-16.66690056504909,-74.75329563445767,-112.05192919591093,-128.78199646539258,-128.75396135663462,-114.48335641613,-95.40843933759392,-79.93630309820975,-65.47540110021797,-48.46560242394792,-29.43900081653941,-11.638932889229803,-2.8172561530233935,-3.566597261610628,-3.059045439213044,1.2484087785113935,3.0571789838185968,3.4285742996307995,3.5790021061998907,0.4572614849693597,-0.8476694315844959,4.108538296537874,7.3909648585796965,4.642230126156672,0.7497579198203361,-3.280524369821779,-6.536609785053029,-5.147267279086786,-3.3881442567344946,-4.39283875587965,-1.6255779038283222,-0.18561107245789366,-8.69812585630969,-7.186941137453232,18.92384662158093,40.215284627350684,39.509347319457795,40.62483080394637,38.209346210593864,4.778946498963734,-27.88102552486779,-26.15246581271589,-31.588118116047134,-59.64560210425347,-68.02662838622248,-71.10246958942662,-94.15237826512217,-107.16849650282157,-117.8336819431535,-132.74734321024638,-131.78925341635272,-182.48399618402536,-238.37558723558178,-30.023485809414098,511.3839886726487,1134.7978156129516,1398.014765373662,739.3414333350462,-597.0060540835331,-1254.3674389434714,-747.1944102161362,-195.0014432306469,-164.9651964442847,-112.21093779123086,44.932529108550824,17.56142560047374,-22.44818117431921,36.55693333966355,33.09593614189039,2.5305270188071773,17.300119630855573,0.0640413281344232,-36.35059174998097,-33.73962328144114,-26.459912623067474,-26.334330239183373,-8.161404825728505,15.948880051666656,41.93644222032016,86.48418715488933,135.2506654578582,163.12531997118873,175.25643178208804,182.9712779057106,177.84547880183962,151.84030675933087,108.22277016750795,49.5177883462292,-17.324409641329833,-77.50665262618926,-120.44626995981706,-139.1669322775108,-132.84525833358654,-114.6308492729998,-95.39203011657602,-75.67642787054851,-58.18721084636075,-43.1501664396075,-28.510329294529928,-19.822922564579024,-15.343503745190908,-7.593744115249525,-3.87014702801946,-5.309065328138466,0.4769765256954521,4.7746928505372885,-3.434137755084233,-4.506767930365887,8.687838597331476,12.127852548288464,2.8933965094522964,0.5228972289856202,3.71541735070552,0.426476419193099,-7.509324291437727,-13.812457525719847,-13.590023496043253,-6.518522409489282,-1.602109210930064,3.8146216545072003,23.48581668476288,44.15200400021173,43.84927592215495,37.19644217519108,35.68707007909836,15.3663683950806,-18.83790181696213,-29.008887639163863,-27.282335290355668,-46.67586662359213,-69.36611607960316,-82.80965822631113,-97.41400433230157,-100.96572180115163,-109.56356084684694,-135.09432662808885,-132.54530973968474,-149.4676625220721,-221.9488890831404,-122.80759762384353,324.42887177791215,955.3129632254951,1382.8953537700922,1011.8744796804752,-252.75752419638457,-1219.4878011285132,-952.7563695880115,-302.7246340124488,-173.8129653598669,-157.83914917438292,25.01110733278537,50.35688679979796,-5.1036478955880185,53.13213513705855,62.75749664826559,9.502903038637637,17.727430534474053,17.07598911975343,-21.838376646906127,-26.124267296289908,-20.445599821516403,-29.651673655058108,-18.133319367272165,8.20738281253184,36.70307496188299,78.36835778510401,120.05338984099123,150.87239211762937,176.43373842319616,185.2211171966685,172.47557777670443,151.3974932016907,114.23215263722389,51.13891325812723,-15.222666693318216,-67.06196671008796,-110.68629062067593,-139.1858487820547,-137.82505863805176,-118.46726236991708,-100.40492979291542,-83.50744641171099,-65.27260868772407,-50.13507172423945,-36.28287622697687,-21.1406712234633,-10.561200678964745,-6.759644061035971,-3.6481539030431733,1.3472766273494372,5.716156100238177,8.129965447928711,8.317501475230415,8.49590125771072,12.315979954572846,14.903348224810209,9.67924200648643,6.045347289095946,10.942904477869405,7.415183514689344,-11.903985325713975,-25.794435716247147,-24.76024333322993,-19.17028630898191,-12.642344190819376,-11.155650759599746,-16.436796383759777,-4.879859540304757,26.423053847165853,41.50132427585251,36.14389981264095,35.78318077569426,26.66158337187397,-6.873989492921549,-29.923438083050407,-28.025996844570614,-36.07827569043579,-54.591214297417274,-61.33808112580449,-74.81945353689389,-93.51411167652167,-96.22711299481522,-112.08100753473938,-133.9013933475109,-141.0338282771682,-206.984727304321,-249.1004982824433,14.733194646680829,605.9441559473576,1217.2514840185256,1364.4360086680754,558.4654016254594,-758.3342184576559,-1231.4086080075263,-637.0776400694824,-158.59765536725791,-173.4477307798224,-102.76547354759245,45.50081058333231,12.183884764780778,-6.806353946374561,49.45797201818054,30.874909997868787,3.134044113996934,18.359991186231625,1.426004591593327,-23.768143779083964,-22.08124206939774,-27.249715014096886,-29.76186379898978,-10.653290270125092,14.396335547403751,46.70162863525348,88.62753560743458,126.63629834230497,157.2723859456754,176.0085886915539,175.9320333399562,163.63827535852857,138.66791455690685,90.37659301772817,26.9927593203835,-31.957676365768894,-80.77554005765069,-117.9213451661295,-134.53057336620827,-129.63337952804784,-113.96234214598982,-93.04914229809464,-69.02849324093064,-50.841119272242906,-40.43009701274345,-28.17083479088001,-13.008094163781344,-2.387386651584663,1.4744374464377934,-1.5124489764954596,-7.694153537600119,-7.17664256120095,0.6999209493514353,6.633771422817471,7.541279699916339,5.91165162984359,4.288906527276167,4.879857831647884,5.71622131347654,5.436623812669232,5.188648042602582,-0.20976605656309744,-11.24643991066402,-16.533151671510467,-17.01308475330266,-21.742694998746444,-21.899005615876646,-14.492022472798332,-14.521445986424887,-12.486315146699617,11.83471870389903,36.71351431965643,37.26569306839991,32.68131883790359,32.689628181404245,13.740301733930051,-17.12044061234111,-27.68666910838775,-29.208043486476623,-44.70995798629484,-57.76333230157638,-66.30169715095828,-85.24718472672176,-96.42328254407826,-106.17064282743844,-132.23001031341272,-138.32972992979538,-163.255411354808,-253.145666554753,-190.53481884169696,243.31257594695876,897.4862725700976,1370.7764820071322,1115.2368173083867,-36.268392151875815,-1088.9769945916219,-996.2745228926342,-329.17194538255376,-113.18748784975026,-161.08215956514746,-41.22886451910105,32.01731372668699,-13.842178151660391,10.399495578885071,42.74041995754392,12.928832355138699,6.524605371420467,10.713455512748524,-14.626456669884586,-27.227406184084145,-24.559658988563356,-29.40809107129204,-25.517640425360426,-6.529203516251833,21.98707497702728,62.32620694143577,104.02166918649515,138.24950120436972,167.25933657208807,180.61831774192353,170.90802496516477,151.15633427895114,123.03167816034436,72.58341305189012,6.574385867014879,-52.35989483591226,-96.31165554402328,-125.85036744452347,-134.9163895584437,-123.18577424703764,-103.57290531320145,-85.02544397622906,-65.29868041772659,-45.29237551580351,-29.688534627068613,-17.26103548917193,-9.117526371942716,-8.131332708574021,-5.8907146341043095,1.2039521139681426,2.2484121915994564,-1.7998583117686309,-0.7260569115480493,1.4813376670094076,1.3972951963501643,3.8849901637076236,5.136395513563359,2.2161906257411914,0.2985903665914922,-2.2243728594389065,-6.630622618832458,-7.69005570599246,-7.849164315051752,-11.150740392161962,-14.92048387891138,-17.856450243324865,-17.046710485857933,-14.11623183390508,-18.59395294771749,-16.18376198681018,14.572724398607399,45.785638266027725,45.97892578337655,39.92527789372538,39.13792628432475,12.85597227314972,-23.903064145984505,-28.715897041848514,-24.526573501778113,-41.31484766312171,-53.985963194912166,-62.33021834805134,-85.19865461108652,-97.65982479153485,-105.35862390212922,-128.83559028070368,-134.1523448067407,-165.44266745216675,-255.44622929075325,-169.38571321409484,294.721394688078,956.0629249751298,1380.5448567549954,1017.0171645855344,-184.7182231317097,-1129.680277994683,-911.7429282984101,-260.4735562953887,-102.79886178723243,-145.62366395935913,-27.33543453512226,20.17346383860395,-16.648258572792052,22.99920597096966,45.981141858341154,13.02555391389812,4.680699832600116,-5.556806749712598,-30.351991724949652,-27.867485895820824,-22.902747849933853,-35.61186032907382,-34.66006270119569,-10.417841682561736,25.816395179462802,66.32299758511212,102.48802312456006,134.63060523402964,164.2072192385881,180.54652940381055,178.1387817489055,162.43490860056477,130.445810639433,75.00272537771235,8.364955378115173,-49.4057062610941,-94.74452033118496,-125.1245193457714,-130.41428199396725,-118.05999079269921,-105.72700160997516,-91.484621281462,-67.66142516975864,-43.939678075864954,-31.83863954606001,-26.961042593026367,-18.718032646927412,-5.161258445400804,6.644169635086724,9.91914290108651,6.219880688507853,3.3689527413957983,4.230449358184732,4.6383957461506125,3.509310518526693,2.4866039064144,-0.04526417785517367,-3.344857762712092,-4.386262886182749,-4.631890172330511,-5.548035925709328,-8.248636732871867,-15.065165117665824,-19.32779447637106,-15.3359227919604,-13.054761104440324,-14.430871831822033,-9.787789985033198,-6.210503968959832,-5.30835786272222,13.858968094567759,43.89532096359747,51.400073942769126,39.542256858833795,29.27598667466306,12.599493492894059,-12.468943175303188,-23.542422314654573,-24.384863575151233,-37.584132998004485,-54.90989581982943,-68.44402704025461,-85.39837498256298,-88.59386108154933,-86.52893612072145,-108.36453995321352,-117.49089902560712,-132.4202918107609,-217.9845146353859,-192.22510094638272,187.64589227884673,817.7339763056528,1331.3590296116918,1174.8319979828848,61.58511016772971,-1093.301167676637,-1103.4202838674305,-423.3776256098422,-159.41955752293882,-173.55451027328238,-11.453347703152147,73.52398286718524,6.315327683747817,28.826644195783118,62.00150640875248,15.283747869318212,6.457365076472875,19.631904624442257,-7.116729675856794,-23.808968836244258,-25.779221546175513,-34.66512832800489,-26.027897274041152,-4.887382781944748,18.323144658080928,61.555673013039666,109.75488724990329,138.7219462810939,161.62424026058025,183.56795856529007,189.3286739537972,176.7976998073418,143.41976894916388,82.06632080544985,11.911369618831625,-41.85731559207104,-86.21160202478305,-127.33994572852788,-141.3717293467945,-123.08747404557988,-104.46130601619117,-94.49953693930453,-73.53403373264908,-50.25724838547486,-43.72198134225959,-37.58018057573619,-18.40828618280191,-3.3307410889011457,0.19513943453388904,1.554853074135206,4.117469117490469,8.52980443826559,9.92655780810523,1.646620472339464,-3.2213780699148202,4.707408440134227,6.835990121245441,-1.8105765144510144,-2.7889452850187855,-1.1383028227535377,-10.667645745633774,-17.035049604857207,-12.590944314871155,-11.586211269577902,-13.825513268371509,-13.079158608949587,-10.153164744642313,6.705451176778609,34.21332925769802,43.183126326309214,38.064774223348024,37.70889173366658,17.499641535162898,-24.30524039551044,-39.567511566850584,-32.151507123679906,-41.965377566556896,-56.571554583641756,-66.22331589437087,-84.9553262658462,-94.73880863254367,-102.90817199810233,-125.72184121752146,-124.52537220890022,-144.88377371242322,-228.44825421278455,-152.11290724355536,276.44960357892387,906.0790698450265,1363.1733557942237,1061.5760097829575,-161.5209077403659,-1188.1063177479996,-995.9431740920211,-326.72356975660387,-157.3919978931415,-157.25825977488563,14.77398628076186,57.47588957305753,-2.9863356673186026,42.804368106769346,62.830353869656854,13.653696359749413,12.382104396886835,16.127786838327296,-12.671909648163465,-20.867306296069955,-21.08624680434712,-28.24557968493144,-16.93785400431235,4.276348018256467,29.01336533852502,69.01341349444188,111.30859887160798,144.15529963090168,168.98748575564596,177.73144858744337,170.35564708525655,154.12543263594512,118.81280287662213,59.44492119421324,-4.426628999580084,-57.88679899787578,-100.26409876925958,-126.05153599468679,-129.81120258893043,-116.67309929397541,-95.71712501800897,-78.59100571233233,-71.96250856262837,-64.02730311465845,-44.601012248482654,-25.615663632760576,-15.536876089325347,-5.76105377215292,3.5765842923375004,4.6626485653925265,4.1732022089018805,8.932422040611765,11.64445300421928,11.129198582281202,12.735707476758591,9.167586175870067,-3.9441021198804354,-14.397196394851418,-17.085486071329026,-18.86813186759568,-20.74805699934766,-21.124847891261293,-19.93698139434992,-16.32559099910116,-12.567769946541684,-2.8782865342669357,21.686003523155392,42.35670463015665,40.21755781719209,33.911736555936365,28.207584478672707,1.742930031600661,-25.18067421298601,-27.59672260519467,-35.27002584488242,-54.38116208050036,-58.75586319129288,-68.90756566819769,-91.76676953163633,-101.72924056309769,-117.964605609443,-131.61599777656568,-131.7021582959433,-200.73810450886074,-249.33911413823165,10.41488337530015,593.4718805048099,1191.6735020172919,1326.6870008238893,523.0225267401235,-761.231448338836,-1194.0109716456468,-590.5406309530531,-124.36946388339004,-150.3804429000014,-96.14466171440802,36.862385940557544,3.331848110467135,-11.997710573841765,46.28913988188825,31.9862222617872,2.6569108985924306,13.0312873015793,-1.272686591087175,-21.6112064734487,-17.11182392269956,-21.367008185531027,-30.896356955771356,-20.621550748154565,5.063948212034838,41.12162994208886,83.78096666103063,122.67960220373415,152.303138827502,168.15060716859938,168.67572398562817,160.01163463908,140.28364615584454,97.6344399002929,34.63452912004785,-27.95151005279721,-76.98503292258009,-111.68997753634603,-125.8961026782862,-117.48097974488275,-103.89622575430266,-97.07107253600033,-85.01903044263057,-60.842393007818444,-38.85105552250944,-28.35905115740679,-21.930083558563638,-14.014014922336344,-6.977618033163331,-0.5509903203217092,6.728820977866267,9.904265624320447,5.421871126932608,-0.16560623184209433,-1.2843444602975218,-1.4533713031072697,-2.7339099001752984,-3.701551469224553,-7.128487403878511,-14.321296963899007,-18.898592879553924,-14.267096572002105,-5.222224064671341,-4.887648249560726,-6.584919055500805,13.945128881799265,44.58310034979972,49.04164973681306,37.588110609081824,31.663157100528498,9.030650595548842,-25.611418793846212,-32.38819441262131,-29.57072824990025,-46.533606061927784,-57.66584751637447,-66.04027451084481,-90.47138104843981,-101.05193817686964,-107.18318194110968,-129.65819322294507,-134.29269561650494,-173.41191338341437,-258.7898804960611,-135.4194469997954,359.0812653263687,1011.3168538817674,1385.858384785229,929.7736386866038,-319.2666238368699,-1170.456822843466,-842.7639638041476,-217.12629980706603,-120.94846499695382,-149.93501234722285,-11.791883292634282,21.351945961986928,-18.696540122265958,25.949719094928312,41.07981542609322,3.4119508360177466,2.547200270429858,2.083799757470045,-19.410962461133344,-21.91121131023357,-21.7070931177752,-29.901408687096204,-19.837038949501306,5.408817213169407,33.991109940351095,72.30915746756286,114.22639532628708,145.38345332153514,164.32463882898227,174.1286573735094,174.1124929597471,157.15744644472986,111.5014325284659,42.27921793991746,-23.48066350085004,-69.52890315458936,-101.5391120565881,-122.41213707392566,-127.0948462677152,-117.37663722731807,-101.24430467169512,-83.0197565042194,-63.11291583924299,-44.054591222060836,-28.714674280987047,-15.54389285076094,-4.948780195531739,-0.4508794821545692,0.5225064036909721,1.4059354991974757,0.6231550719502508,0.20901190899169286,2.9925819978042263,6.783632825056081,10.83042866565689,12.312922994618658,6.159045377684324,-2.7433436376248075,-8.362700762702655,-13.143506957913184,-16.208270663100826,-15.568824589041894,-14.260492797245318,-13.776972511616176,-16.291132469216294,-13.373859121587483,15.34530729245385,52.46579377920275,55.50952602196557,38.83464303938127,34.93685580669448,17.626241443096664,-21.299995297973815,-36.09422687942996,-31.49227263636286,-43.76152802553605,-56.31363463256415,-64.30111348346423,-84.30081588314711,-93.3186508267725,-102.64711135808162,-132.39202219861076,-134.4336349729996,-152.60496041920567,-233.34079065288765,-142.91578204951668,313.62543362394206,950.3955236714069,1358.5223221022522,988.9682156489876,-230.54796748783127,-1176.6482385964944,-927.2766146505273,-264.65894520537915,-117.09481953250011,-138.70626520283022,7.504393909231013,43.42182528247502,-12.45212824414564,30.244519146015147,56.99316352421252,20.35059720437115,11.51510667316386,2.5451673027242325,-23.748362700509915,-26.75334541473111,-26.83964530985815,-33.64561077370324,-20.869804957356173,4.452989127933673,32.710730004361025,68.96482940626244,107.52285150234924,143.83727470927045,172.1719242586749,182.571437272159,177.52781977211072,157.92662426125625,115.99980807144465,56.6535447157752,-5.719389804164839,-59.677606294447806,-97.81772094244164,-122.01829431918813,-133.1227888298105,-123.18740893310846,-100.18743520870672,-84.59190408101816,-71.78472892825141,-47.58034240639622,-25.071345477476246,-17.50694631236932,-11.789950995082847,-0.8931097771508512,4.434749742698138,3.49660836196961,3.459215854913049,3.6758784536939544,3.7291727576470635,5.013933230961398,6.676136986337381,9.539042797392131,8.539724774771678,-2.4667730135035324,-11.41983271324227,-10.386692986632521,-13.565048527643919,-18.19056578694743,-8.379905631724181,-1.9132735554046185,-11.011106842345656,-2.9999104261609038,28.11734304949056,43.107601617170445,38.30973916796212,34.27984118218871,18.02957570272424,-10.437012819977344,-23.83010517445664,-34.69308788882964,-56.60503265071566,-57.91008226185335,-53.50744520201368,-82.38498710521839,-101.39595668094664,-95.49702374018645,-112.72692288143274,-125.04899600719337,-139.99782644323938,-209.87540981261654,-157.10089709852323,225.1846272259242,834.9113939168033,1342.069407493995,1157.5388887590561,-10.154950249325339,-1138.7581449537306,-1064.1418546164543,-388.85551226355415,-180.83172577217212,-185.0314053872816,-1.34813194486685,66.24394154670125,-1.1814004827170521,35.953449512301724,64.70391641096575,17.46244623419097,14.421045196156186,19.148597060031896,-15.133327754126896,-26.39663221011311,-22.125444793966054,-29.975753348573278,-20.854663746382236,7.030623423014124,37.23965762128797,74.22018128830327,114.39800935327695,148.66379502059453,173.42820059111898,182.32202534705868,175.24790907261956,156.96875317187988,121.95261149837519,65.30091999373641,0.5853682893689953,-54.59950857424106,-99.00989051439282,-132.29076933882865,-141.73884311975056,-127.00073494265496,-106.11688461541982,-88.37696886040322,-72.78276129977458,-59.56950857085995,-44.332024635172665,-25.131981817681883,-11.837897205294173,-8.692922247655346,-6.690235764818844,-0.5642997019548233,5.692432688589955,8.772384008155367,10.341377852186781,12.115619441706674,12.384296964763825,9.595351119693689,4.034955221410368,-2.0115861301986477,-3.8609327675533667,-4.585633113695259,-11.738752843677664,-15.271986783200099,-5.535302324840266,1.0807682305395172,1.6093825649533544,18.16518135504949,40.29220490500208,39.76494034470139,30.433571494699628,27.086540469489332,7.485952621756454,-24.244530692833337,-35.91514207883978,-39.03827585022508,-53.1901153660255,-59.78672814663677,-65.04258517337438,-84.71646648001358,-94.65898370930992,-105.45877881501085,-129.21649159805452,-125.72790970969336,-150.99358115399616,-232.22674378723733,-127.12379041221496,333.5497938051336,967.2948455100703,1372.3432159812573,962.6301486488902,-304.3999246798603,-1218.361315362312,-906.7471622002572,-255.0322968903136,-137.4702020698992,-139.6507386039504,17.117652952144226,35.44129101238423,-15.498817876706621,37.172630902829226,49.67021665115297,8.021944049908871,12.640577744565974,7.428229778932449,-23.049735154975345,-25.335938630373064,-24.655420741666497,-32.261402935920884,-19.86129932975101,2.860454307005522,30.384209983717966,73.90436458750104,120.09286649033517,153.14346753715623,170.8789438637371,173.95404345346998,167.44198383216093,149.53144884433254,109.4049678470814,49.658594332757524,-14.21466261588569,-70.65272544911616,-111.21805247554872,-128.89528546167588,-126.27193954908677,-113.66194434381295,-97.63042301688586,-79.8567616872632,-62.60751571494471,-46.89436762518323,-32.09128032676707,-19.732366871635172,-10.923066228898442,-5.840618858111956,-5.880952620251289,-6.970461258515055,-2.1939699182860615,4.534670840967365,5.996542930717755,5.450667939781475,6.683444997040251,7.219157111675147,6.937043726137454,6.2348392186719375,2.6666364618334377,-2.4711953429121714,-7.3809770675719015,-12.853267572594874,-13.718439312936152,-8.14120591973483,-7.180792756757877,-6.890289546253846,14.946295151109982,47.85604932615344,53.61480915220166,34.642910261178116,21.517320884927855,7.580038003604447,-19.26442918490378,-32.66003482331323,-29.58374489818805,-41.81451135615831,-62.03660804725129,-71.97796692364625,-84.35915549254793,-95.25915523472813,-109.15128168179388,-139.03144120762136,-145.31700482802822,-159.64516547435284,-248.13871365989013,-216.17028093089573,179.1292454889578,822.0520403952464,1337.751160373508,1181.7934155040189,90.09971438618479,-1034.2901316493271,-1038.9703120974586,-364.7647050048,-107.51818461464397,-164.14907246441166,-54.26288040502894,31.106267329654642,-15.33167803398625,4.27645793006727,42.13159599310025,11.655410003286384,0.5952262271734714,7.909329578300978,-13.9443888305834,-27.38753415933633,-24.21202298288185,-26.72370783544213,-21.36528799463238,-1.984673214083994,24.364682645654398,59.815647614366476,98.43008897158485,131.61987076195277,157.9833765315551,172.2166952183082,171.29281023718033,158.197814118858,127.61188173890946,73.68797448909677,8.985841911221545,-48.67518729016669,-94.31269260274793,-124.23260333880705,-131.2749873915109,-120.6761600489323,-104.94848900267074,-86.96462795896781,-66.83925468283026,-49.596102410415504,-36.26321773884565,-23.868763971683368,-13.485347288355769,-6.758606814225512,-1.2668306723455274,4.375125809817117,8.665000701332113,11.906364197590483,14.30592099022986,12.314159871175384,5.731894536210314,1.0996197795548,0.6661272314893836,-0.9704562080433838,-5.6796076266464635,-10.154869087534278,-13.779969263568983,-16.056326838896652,-15.199081473166958,-15.691255443159069,-19.224988427741856,-16.980919003622486,-11.95119475174593,-13.710241642400629,-4.317299297744326,28.1108791982971,49.12531792212958,40.726206064561815,33.75749087949049,31.2388061023329,5.630045747614496,-24.32759162233403,-30.48166501549069,-36.64597925342453,-52.31666311793258,-56.29728080190479,-66.83945157558992,-91.76786165829846,-101.06410284387354,-113.97654696687812,-136.01559271385176,-136.45220569677582,-185.59178013711602,-259.6636791031335,-78.01178314373942,474.0648595475374,1122.2576760617683,1374.145174215394,720.7517091901307,-558.0462860957372,-1189.3953950212476,-706.3230346147166,-158.24263429462087,-135.06026200601372,-128.2961918711162,9.678818123780246,9.454922911487799,-19.53212970734508,32.313979613296134,34.61609731445954,6.23962408547208,13.953706637695282,2.628882918546271,-23.75261914290873,-26.969471397329663,-29.560555015764983,-31.34377170725297,-16.007493299086086,5.898331270565546,37.29559616463561,80.9573142932835,120.40695424611403,153.08767115110314,178.81339809531556,186.66035076827424,181.6232479992148,167.5663126446347,127.24157311463824,58.87232407009092,-17.42144600642898,-87.5478660331908,-134.79426633109503,-144.7502474215008,-134.17701300389956,-124.5149757548933,-109.60652639905912,-85.17436802826901,-62.819691512309966,-44.13152973791934,-25.98400619168666,-15.991778192681132,-13.835777128530623,-8.217653768665198,-0.8822962416130871,1.0755233038098986,4.595053752632886,11.969112914093195,12.18545174546161,7.049251795978723,6.786703607204072,6.455113129459926,2.320591041204329,1.7852399294776369,1.9935465361060434,-1.1749328551462046,0.5472491956439631,2.948571724804875,-6.45698862840802,-17.657064202293878,-17.595622770389216,-14.690057812165714,-18.27621945454955,-22.964931292364103,-13.093030740551981,17.640096415536455,42.386118665098834,38.15564542765323,30.891210852683916,36.82583286095725,22.541126391991554,-13.219589425739173,-26.6626510399918,-24.988927507933298,-42.85430419511852,-61.02221416065879,-65.77976124141146,-78.19480992871078,-89.66217056817597,-102.14434826583333,-128.12248072765934,-129.72361088263685,-143.9366052529109,-220.99686063674045,-156.78278994439594,252.3380836730417,872.2386168328475,1348.646274872282,1118.2499216803683,-52.4968358703276,-1141.7523015168529,-1038.3889846168934,-354.6118594326782,-142.604158319829,-160.77472392183228,-3.669154728055858,54.731455022795515,-8.768362715040855,28.252060734507317,57.52952058466886,12.773936232509836,11.431114238761754,21.849758642738195,-8.015795575285036,-22.901578863298308,-20.783693139718046,-26.615236979138885,-24.26261214993246,-10.245556635171774,16.302131385483307,61.650822301200535,110.4730460198871,148.96911788784269,172.6290052910776,179.19785608952506,180.68307163127153,176.71548132881546,142.9097924830566,79.03784015619094,11.590064089591891,-47.848291285633856,-96.98459828925405,-126.5818983803186,-134.79264909133775,-129.2530743117515,-115.7395493469985,-97.23805919702843,-75.6878937496011,-54.75144692800647,-38.70244143042151,-26.805201442219055,-18.153446197933512,-11.687429438831167,-1.613371111794681,7.973389856250243,7.520242169467068,6.41702647292583,11.593931785121576,9.793104064726837,3.063582573238307,6.243449185184453,11.962886668866584,9.230011284611544,1.9848197357623087,-5.5796632594556055,-8.57393506749721,-8.128594232773615,-14.896420271197218,-22.41959558895406,-20.370046336031095,-17.129489960929327,-4.290632023611613,29.804829746137862,51.68458862216711,42.11906944519342,35.62196239607213,35.257764599906906,9.278238804547563,-23.15625094509582,-33.66228788374494,-45.56124728167741,-63.30538312270481,-66.31003379056088,-75.5652961635814,-94.25629521082868,-95.88473647735731,-106.81832460969284,-124.47694788390174,-120.0367844156813,-172.55333379567043,-238.3138557327027,-42.32377749383812,486.15896277471086,1105.0879680031062,1376.3170891356172,724.4233884658902,-610.1159092997672,-1259.4595178905718,-744.7928607491056,-197.33182844364464,-168.31137567204087,-100.90109460504453,66.3397164763896,32.70127244065918,-13.59704604603974,47.47385029655722,43.761322097064365,5.917690576474495,16.433014217142535,4.972309941284514,-26.31029101928687,-29.71987985422003,-30.26014972443178,-32.37434119310616,-17.742506724478062,6.252885037653897,42.74776476881369,92.03926017457573,133.70370636798168,163.15080853183827,182.98675578032328,184.41736861898727,171.0901410925763,148.98620307878087,104.68681876583341,37.625188309518876,-28.404936649626745,-80.97554738784086,-118.6737175528877,-133.92513261036495,-129.58615873153616,-118.56946301240632,-102.34949656601776,-79.4844795570074,-58.006228640577426,-43.20685769595579,-31.492929334503067,-20.530462026867532,-13.18764039922064,-7.397009892505604,3.29678647640662,12.225898009338238,9.102444461921761,3.6492825783935086,5.399443655135572,5.989832336047456,4.595078383255464,7.870860789633747,8.86171399871505,2.6158012981693197,-4.036862474514804,-8.949103060216611,-14.381868383049246,-19.743518802330374,-21.377725525623944,-16.644183289351034,-14.65356157719245,-17.43360134098217,-1.1643442149425205,33.470962666125885,46.08264404931528,34.9049009149327,32.320475485998266,24.278757106853323,-6.904542143997386,-25.50914988799915,-24.524524144192043,-39.48764811392344,-58.277344009895344,-63.51651416213867,-79.2470620953586,-94.08296863313481,-99.66397034699538,-125.62215564891957,-139.73485947091189,-149.8821388427723,-230.72993125571304,-216.54694674436536,153.21338754183344,783.9232791375466,1305.5786245614388,1200.1276045713657,164.3512054804537,-995.765445308401,-1081.7695518631876,-409.60716978388206,-108.76392116920569,-162.15254044655842,-58.79080942315065,38.02548693694834,-10.355617969258482,-0.10105977670815136,41.67879868501758,15.715110962924621,4.053865480941152,11.469309518235974,-12.444750603407337,-29.161274797368037,-27.310982771191657,-30.337659437882746,-23.70367541882394,-3.589812491020595,19.330804607455192,53.9138144411114,99.31621872203746,138.58468252683573,164.09385914318403,175.97810894433556,175.76811315631895,163.74912590209553,131.45199220179325,73.68079342153533,6.5885400822633375,-49.7460510672953,-94.11968539873556,-127.43357296236472,-138.88778677137208,-126.78281245673544,-105.37659349879272,-85.84205040457904,-69.32382831477702,-52.93694361444798,-35.897698759806765,-22.29313868562285,-13.502010270324668,-5.990435009797476,-1.3449624770139046,-2.1539511996874516,-2.4964306357683554,1.40921173830937,4.924834297688712,6.1045061154334,6.4223895476926955,4.967534641380221,3.1192685160689386,3.0420709127289456,0.723054449609279,-6.52698119512891,-14.671502428258542,-20.606113607637234,-21.123923127693214,-14.235235636471263,-10.267687221035345,-11.763800980042006,4.346773606187359,38.36871921820714,52.24446614076045,44.07003018167769,43.07431738594629,28.20661220177341,-18.045472187549418,-43.6712684149424,-35.05265232382132,-42.70726083627959,-61.44553848771655,-67.59260568109391,-84.95130676259336,-104.5656524884635,-111.8893120727193,-128.5693529250011,-136.13579344525343,-161.09491107032764,-249.1061612463036,-202.61104021967233,209.41256677074182,861.7874702998473,1356.2259405554457,1137.1128491227498,10.443906008348534,-1057.1249258515688,-991.4241868464405,-324.78363889364084,-102.5995363802989,-158.917178135406,-43.51976490647745,31.875496430977662,-20.27150561348018,-2.9933182949223527,31.130049223127823,3.856429594282746,-3.159349886997294,1.3336342663529663,-21.52698019001329,-31.05642629412828,-26.72601633412819,-29.950098395751812,-20.896829049759113,2.123820955579724,24.759687114155696,55.726561506305586,98.74645066201904,139.1215793580784,165.98990559647487,179.35776593626957,182.44533195575067,171.8405711581177,137.5060437824453,77.44206702504131,6.859144944383196,-53.30298714202938,-95.30728756673322,-122.96591293677031,-134.69718290141415,-127.74631677916926,-110.99935720797215,-91.91693136657727,-68.48427713754461,-45.203248000137414,-29.752996054434263,-18.737530545092007,-9.63450265334518,-4.394588778699525,2.847519140374523,11.618050844815492,9.998229983613419,2.6924271915831817,4.4696561057851145,10.629855521397424,11.991087614822407,10.686111271598524,3.8911415566307177,-9.735641740390934,-16.26810074053435,-11.642303472479963,-12.514068357894713,-20.71897310065315,-17.831197859906737,-8.380160333411938,-11.842642252892023,-9.644460022710893,21.884980582005763,50.15564760945358,47.359280056595715,42.328740694624294,39.47918441475217,7.951435071112929,-28.491737719565318,-35.10458025568171,-38.6560763019783,-50.279938247371,-53.268984846280674,-69.37947546081546,-97.19436492401002,-109.09745602203046,-126.13647744060485,-139.84018115080482,-142.37144938799705,-204.7802314053581,-224.85138733947383,58.825034903585305,641.1384917221575,1227.9023081700448,1318.5786064204608,441.1984628943171,-841.0171483190509,-1188.7173056847857,-563.4225526677424,-146.92832986772834,-168.99569111473127,-76.43342618477413,51.429310355114055,8.44532886386017,3.9784290751701263,57.310681588361575,36.692435783284274,15.213891477580773,17.727440497594525,-12.802228098268213,-30.828877644104367,-22.45890215596628,-31.50842822447447,-36.35553841862253,-17.203763240215306,8.544068105583364,49.97977835053794,107.26491393092084,148.96515316324198,167.95682756900666,180.91862170525408,189.44263366642457,181.92933127608308,151.28100569185025,100.25988406336722,36.947190278967916,-29.24468133062475,-86.50216885169503,-126.12891599165243,-143.33175478977188,-132.24573528822708,-104.39916688022709,-88.95682725297404,-85.70862866022833,-68.72778943804352,-43.02469372742707,-29.93127273390106,-22.472036723141127,-10.257921453543236,-2.3450047525689293,-2.227205200054499,-0.4418581767047378,6.924856527723772,10.252857057938453,3.057967099662683,-0.5280347609794696,7.137897516780129,7.37796504661711,-2.0414801129792988,-1.4205499263219625,3.3957577135080506,-1.561486022957677,-7.502311326271412,-10.441069332178191,-7.0000926559182926,16.182279145469153,39.23019564603198,34.174935207886335,25.566902449225168,27.88883344237655,8.356042474728094,-24.713619334305076,-36.55198115992613,-44.729089783973436,-58.1184965609328,-58.944451909566446,-69.01630700176248,-92.05116786713305,-102.99347231326786,-115.86637560832037,-120.0419001751886,-123.25115522391562,-194.34564319527846,-204.22430427590226,96.7076230601898,675.4142599860528,1244.7341411344887,1279.8547643519614,310.4092017250429,-966.7072974577143,-1186.0338611236916,-507.5907213901499,-155.75032790850392,-185.7554837789089,-42.91052205613076,74.34566609010085,3.205002179137601,13.16429652595616,68.9409334805322,28.7389147422634,9.0418570041222,23.40671022829132,-7.652637194306165,-27.572604149613145,-15.981168755914016,-22.887469776364853,-28.89725050792456,-8.780459576717849,22.98709073060312,64.6699669177694,113.50102339325791,154.58552158502758,179.65521463678783,184.14042205657398,172.68768117976356,156.09504219721026,128.33836722722066,75.67400055910767,5.1921671486385375,-57.62080421818259,-98.09428849224363,-123.36610236249285,-136.64681470260956,-128.44431478320683,-106.16772407215662,-91.171248392992,-82.51650388682381,-64.84907635036768,-40.82960182120031,-25.320200929953565,-21.316398776285453,-18.494814392058576,-11.282277811218727,-4.960388476149401,-0.25443968033804865,6.239383960779644,8.004313594964751,3.3182714234993167,3.9285934343426865,9.612967306976495,9.798200302698232,5.754579737546152,0.5931865984161586,-4.183135509162463,-1.4910201736588533,1.643136094617753,-3.111119472965437,6.174382926393074,34.47099840974909,44.384294034073655,33.071714393025054,30.601699945228454,19.521955765592395,-16.66014290369452,-38.532674885676904,-39.455402160500775,-52.213415113780414,-65.6209544301438,-71.24277259854615,-87.38523550148173,-101.08065438669107,-114.80607074838215,-135.17455628230005,-132.82493203630042,-166.48451447809902,-251.90269631349406,-140.51550404968918,328.7749136465454,961.8670909851783,1367.9532394253738,986.2747136658129,-247.0137593632083,-1171.3585830146644,-891.2458008396308,-238.69156113736062,-117.93551808006055,-147.40074941865407,-2.7934225096304743,29.544889236267352,-24.314248605444398,19.22053031402295,40.8523567074912,3.4396757252848946,3.8338394100646784,4.217925579123718,-22.09528076211108,-26.893335038805148,-22.46594801794647,-25.628038269930514,-14.22682755501167,6.7330378034505785,26.662761158426417,59.09315871338117,104.71936612450492,144.94305631690472,167.8995964241111,175.11716957132725,172.126327026649,157.71488139832678,120.91225232440911,55.73886550823126,-20.146825165835846,-79.28613017376279,-114.55654539430859,-132.34451342153633,-132.60701076379314,-118.13350224746702,-99.17152489199066,-79.95279877372118,-60.265868189125385,-43.58050300022455,-32.48128401857032,-24.52027604842236,-16.422403804742615,-9.327288270212236,-5.621297968754821,-2.81184402693124,0.7044262068784164,1.753460900185214,0.7142157668489446,0.4314026806346476,0.18730681057002663,-0.14960872698021177,-0.4286896136789977,-2.375560459611309,-5.340542335408848,-6.989814826839336,-5.0309793950692985,-1.5959523378905924,-4.15007562340293,-2.7516067983515438,21.80710350508234,48.91663150039629,48.09998797651882,39.93934243795451,38.176479674928885,13.205751922018358,-23.117967318476037,-32.271622776530876,-36.57962672612861,-55.81988978168451,-65.27512477143782,-75.36047378085985,-98.71736650829723,-112.16807570815817,-127.40989779250043,-143.5452113294921,-148.9245106687544,-213.62960693785186,-268.9990135988627,-36.35852989087661,540.2254377409454,1172.4132135903849,1377.0864177092967,657.4877386392666,-625.2536610307249,-1170.3789540339596,-638.3593070527013,-135.55517776726938,-148.71337050403343,-132.11909015467324,6.656988699286572,-0.4784907899730513,-22.558810876395093,30.541936804327257,22.128569475098708,-12.815096908470181,-1.8675966502061563,-4.472603141745379,-24.7538970160229,-27.798369634605585,-30.42395612670333,-29.617206721116045,-11.556397632506043,8.827127168241294,32.969180055384356,73.71367009346591,119.47122701847837,154.25264618735832,174.87865544376083,182.1534577375277,176.17611071224195,151.162730482653,100.34467574209319,33.176012933368916,-31.14380513480222,-83.31769088863577,-119.11584876456376,-132.56432674850345,-125.7777917395083,-108.54211800217396,-89.73056439999567,-74.38852221095267,-59.5241250232014,-40.58867835470005,-23.401361427727224,-14.001318835646735,-8.79476433119827,-4.056923629265409,1.1988670133661365,6.609795397272892,8.087332304994653,5.328033079548327,2.858510399060071,1.914399237150528,3.5268337189886623,5.071467339138155,-1.9012276023344956,-10.994066941934985,-8.02415231241394,-2.5521529727425207,-8.445952729744036,-13.851145884667124,-7.756483610932204,-2.0046895401379157,-4.793019419939787,-0.7044836066597902,23.407886125217118,47.403193870043296,48.68824591520119,45.00850461567697,47.023181648546725,24.29868542053863,-17.291554476274477,-34.55870083638936,-40.97470964263132,-60.481861603173186,-67.97495220898736,-71.82820053850912,-91.54974396891956,-98.70944917864261,-106.97842538329695,-129.6733946326051,-132.0926261390494,-177.93200566423687,-254.56233529563542,-87.27552995001423,438.2151688323145,1076.086286558014,1396.6724136096018,840.1958934692318,-471.84376864221286,-1242.9279576943836,-815.3112822367223,-215.26062192954822,-151.12791743393163,-131.97769429489165,22.223217112711012,27.013566473020504,-8.064403951206772,41.60785415127454,40.79569512124189,10.49195400901828,18.17894745544104,-1.2684509221084763,-32.52344934050569,-25.374036519989644,-22.536129751352984,-33.2934846071484,-18.22764518339231,12.895516158854093,38.22895363086557,71.10828307254476,119.38746245638885,163.435144650553,187.0104657822073,192.04524118473304,181.9753965439677,159.57203670714364,124.83875811886962,65.37905344138647,-15.280253346138949,-83.24022284151668,-119.48798436029841,-134.76603525041858,-136.8054550000393,-124.85443269614024,-103.78420493749256,-83.7753114469237,-68.24738046482854,-49.39619950184873,-29.109103756030084,-19.505003404592557,-12.445635844442954,1.9950031283785918,7.908804281583986,3.249275495558418,7.096166240054622,11.885044264872526,2.749946041779795,-3.8649178373185347,3.843981322712506,9.930861057649853,3.8238959144100555,-7.141294950414892,-13.103407207990735,-10.018382433816019,-3.94726242016661,-4.6069281493542285,-9.071284890193658,-8.374285241301639,-6.5709909781353675,-5.328005495050869,11.674262827504371,40.80869308003768,49.397960237158024,38.48631890782827,36.102547405968245,28.24636671848749,0.45510574403829906,-16.016699181925183,-24.469079891689468,-54.06623489398665,-72.62529782991018,-66.93517645238853,-79.7990466014914,-95.74245366248617,-99.19213299593441,-126.27034646183667,-144.2582085868646,-154.09419331214997,-220.29139817602862,-180.95006717949013,187.87899293228656,794.4362943072232,1314.2038181270063,1190.3964705342394,84.94778238449084,-1087.163582824392,-1100.3600351618934,-414.69235007112104,-155.17045744191282,-173.087278050255,-10.796973290994643,68.46136069638212,-5.226185091514232,20.672616746421042,63.9526194374815,22.266019769837158,9.699468495762272,17.709339796030896,-11.313902499180639,-27.381004224633276,-25.934467525252124,-34.537090645889535,-28.114452020245125,-1.3070265027638293,27.189224591969634,62.77766146281943,107.84288781204424,148.37669882525915,175.11366031240215,187.84703438672412,188.2000869516113,169.94795719358075,125.11671416480301,63.33535039595759,2.8938922787368444,-52.126233148146,-101.80122688801438,-133.0958954800357,-136.34269122799873,-122.59044786059113,-106.75118807980712,-89.55699136783323,-68.76543810036517,-51.65794765179575,-42.89565425979019,-34.491510841568434,-21.535903330093387,-11.514290291179016,-7.569930040371069,-3.2204317905086235,3.2905434001587643,8.596355880322907,11.459895219261275,11.250859228249096,9.908211234316632,11.323306074270734,13.62404065175042,12.029344475567319,4.400987303272542,-8.130949734318508,-17.26556763890494,-17.465835939792633,-16.850487003116182,-17.19098814127365,-11.565604984472262,-10.33173306733653,-16.265946394710635,-0.3556553382008687,37.53489316910274,53.38046095813036,43.12637818589039,38.94704790475963,28.182333951651458,-6.701981794319,-28.95392818253711,-27.949252540903643,-41.86754208236095,-62.07730295330225,-65.32844404696058,-77.68695114602268,-96.18967657286905,-103.4687311815579,-124.45406684797616,-137.34215190026939,-144.00422328302497,-223.25739408929704,-239.22042913310963,81.92013978890193,696.9640283662299,1267.0035151468235,1274.151219243105,324.1849655692377,-902.1704810694466,-1125.2184651647324,-469.55983178184124,-103.77339232420081,-155.250525831263,-78.73720098923107,28.764192573728238,-10.820278607084816,-5.291554438862211,42.415290331730944,17.872380223238338,-0.2094226837312636,10.679301320637878,-7.274242043716674,-24.019267974442265,-23.050909065876446,-30.138961676925312,-30.808745339885398,-13.876992654936586,9.13279180776184,42.221504823773735,86.07923718642513,126.87348463820301,156.4321673329572,172.28231479177293,174.75854099060476,166.2958439593111,141.3147195701913,92.36500391084752,28.11784174230823,-33.64920792607285,-83.48330715657337,-116.78287260457365,-129.59235074206057,-124.02789531949105,-105.77536664232196,-84.61248971098013,-72.48817772192915,-64.74715372487887,-47.619356595422914,-27.72478440440466,-17.97474637284121,-13.171143133376319,-7.61590608843305,-3.8530684348972315,0.5729813197728539,5.999476130422165,6.342165963529645,2.5520236724572705,0.1816211513584225,0.6793489782036524,3.6280644262942463,5.432164450713806,2.8064780668252,-0.17077014306330263,-2.258280022266174,-7.230619047184755,-10.756655693173311,-10.914679284464334,-14.59286205004861,-16.436217157191034,-11.490734887562596,-12.071284359140696,-8.529269279251345,21.991019148518593,51.77738010226657,46.23279170310212,33.3917673617277,33.75808958772048,16.059491292904163,-17.652100550764487,-30.778919977653878,-35.256140615137454,-52.021982234552496,-60.6607409116651,-65.80626878318708,-86.3005286429443,-99.97146811045374,-111.63008554621652,-135.44775394135104,-140.20597647047938,-174.50295951802048,-260.9288688516114,-161.08027424166477,310.74847728314074,965.9935020639068,1376.4400625616347,995.7549136883708,-209.15855498774647,-1130.0526403039532,-889.872812741256,-248.89170459547537,-111.89879980497619,-153.7649869479148,-23.070215130201944,24.665379435226384,-21.62047562948971,13.227989950483854,36.553577471483905,6.610910570152766,8.749561763658914,9.082885198533539,-19.26765251257286,-27.45130795623308,-23.972283114909864,-28.01782327774093,-19.298587011199196,0.2955903406470206,23.169823324203676,60.058731203343115,105.05568124892713,142.41329676279537,167.28240608979416,175.95320617070075,170.88877666926243,159.49164973825907,132.2990185470416,79.19928151630485,13.570799726886598,-51.037476023207006,-108.0792958124044,-138.78623521796752,-136.69877298318343,-123.39854543644097,-109.83660118005463,-90.62441501062376,-70.88202962000904,-54.21460709973863,-34.48873008407903,-16.532395835156507,-9.124215255979259,-6.399225558304995,-0.6886144033998605,5.434021514220033,8.861429957101922,10.23356632094972,8.726781692321175,4.0079584097238605,-0.2293853461274722,-0.3948699621577454,3.2613591729985796,7.1839097493106445,7.6148143685965834,5.1727159702197625,1.6203767008411756,-4.349130447963958,-10.368902660077339,-12.912788301581731,-16.38252142664375,-23.097565925246784,-27.712956625132414,-26.47462060014444,-19.215974006057436,-14.71258386218881,-19.315440889010862,-9.38024976853004,28.19846520032804,52.65418967506305,44.30161750652772,39.53275291769043,37.40686727264094,5.699449988418159,-25.73969980052555,-23.835318093324723,-25.797725218124278,-47.25964575131239,-58.298728030834454,-70.20996312986506,-91.6011454630505,-97.09828803637278,-108.00726125389795,-129.59732006556288,-134.58285031934605,-189.36820734422145,-255.79684384632918,-56.31708288072781,501.2518239870074,1132.4069679539193,1352.653263776056,673.9367737767814,-595.6061696169263,-1188.270951983558,-682.44446043232,-143.6369542461949,-130.25957852784978,-117.74965205763087,28.19468840280979,31.287712255975435,0.17947044679120872,40.731133925444674,28.163676964193264,-7.092574516360944,4.884945222445946,3.0042227636754024,-18.008207933442748,-23.655260797778496,-30.782644612301606,-34.460113761321686,-20.693403614666092,-2.2544627217145283,27.238381972259425,74.90032766741956,118.78284877386287,147.00170663799534,166.2372137913689,177.79626361490318,179.66586010316905,165.8383934779108,124.94996028029232,60.65174089391519,-7.014274059735257,-64.95863494574132,-108.95221478746879,-133.33713006579904,-135.94154381756067,-122.6128819731081,-103.68333196237373,-86.58835096814244,-67.98354061359018,-43.6592201460118,-22.540459261650227,-13.456011274444784,-10.828834157708886,-5.705336287239806,2.81916679410827,9.159133942846168,8.684659221776435,5.564093501463896,6.674267041320567,8.874221161584247,6.6599534791759645,5.2107294151290695,7.864939802117892,4.697825609879349,-6.331136284805263,-10.961475683050871,-8.44982223118128,-11.480277622497873,-14.736722107784349,-11.037041088450577,-12.039948984906651,-16.870156496449695,-14.086464422925069,-12.25809256182361,-8.827666563184028,16.443183464879404,43.28136415557846,40.40802186554593,32.9611863084498,38.034937504774994,19.03235617351978,-19.42766931127495,-30.941493150453862,-30.597036146391996,-44.94621613713801,-50.74588587566182,-57.29146440082772,-81.29031707447001,-90.69724592715903,-98.6293564063474,-122.53071666236406,-130.7070784988708,-172.46800533984063,-222.22069346651227,-37.59041325879997,462.60449609051136,1064.9736012507833,1360.3584394232964,758.8836902952219,-572.5441578127636,-1269.4007070792218,-770.9710969735203,-207.3006169904368,-184.04840676578914,-123.65532906414003,61.729350043993385,43.78991588113307,-0.06044739310030067,59.12337991377449,50.44149803926017,10.896217521567959,20.53915820752207,5.81727537021265,-19.354670834356703,-16.15835689982949,-25.733859677859375,-35.09245768601162,-15.069382541738994,9.020711542472469,37.213992450547984,83.42366752688264,127.75402293114989,156.9717784152711,174.83320778294976,182.3515554881693,179.3393201773194,159.27801903252936,118.31094972798667,65.92618491144415,6.2704433683035266,-58.8455045979922,-110.92710633704485,-133.53089686468715,-131.43665913875827,-119.01849847726314,-106.52677143962848,-93.01665430540402,-73.23324669669599,-52.34647341358033,-36.75643173465879,-23.869851646200352,-13.483469394357648,-6.141400822137413,1.893630541749797,7.609211513821911,7.9155341636124845,7.917951749752213,6.418203098862236,1.8684033246093321,2.9971751925071217,6.066496132613656,-1.4872590385208877,-9.710372372747017,-6.753781760879036,-5.222918521058951,-9.738997492680191,-7.867007063639475,-3.895024142669577,-2.6347383562504767,12.773366421489719,35.98405009529019,36.698454068507885,26.405927814114683,29.491477326568045,17.953831013692817,-20.34334084367461,-39.69818501995138,-37.061518543766965,-49.312142215353674,-60.11860335567709,-60.41707564189026,-79.14518453696512,-95.0969716054837,-98.08337186061412,-118.74232799910743,-126.07764227959304,-139.02572849458556,-213.6292550141114,-163.4856139424761,224.53714748714958,832.4474585630195,1316.88489580654,1118.2151073929485,-29.39534029529412,-1134.129627316467,-1053.162907168956,-365.496493139025,-143.13897670394928,-158.9071456529126,2.6651746334481317,63.09182253923417,-3.8734293234266595,35.046528708044896,68.95149954413598,22.615663903687526,15.451261707903612,19.860849944067652,-10.95869170464108,-20.687372388510123,-18.02920802488427,-28.732997912227486,-24.36136712224443,-4.823842127507806,20.28446412503444,62.42701647547841,108.91926720155467,140.88502885607772,161.74694392915814,173.5207990217766,173.14144380990115,159.02738507807248,124.37116209682705,68.04424758162499,3.679604893355041,-55.3245371284242,-102.49125767208865,-128.88480376351288,-129.91878543158242,-118.02881951848252,-105.66671716633772,-89.51301605736649,-68.37033750864958,-49.42239942701527,-33.56397757623023,-21.199797827998943,-15.613769041707123,-10.521061468644021,0.03763217949697051,10.976036536514375,17.083370409966744,14.972087824220537,6.723316987739214,4.877374692654712,10.044511511032951,8.487516734301629,0.40073065177877787,-7.83800722527949,-18.052612038302613,-25.03017785842762,-24.29371139051247,-21.949470324311186,-17.125845992899563,-11.872028064093556,-15.286391724557006,-10.13791072230201,20.535202217888035,45.958955663338514,42.6644915011331,34.39011450466818,25.59046223944254,-2.0772131209076186,-25.307835149332163,-24.985091301124516,-32.47195847976401,-52.35556608526322,-62.20975482850399,-77.10890061328361,-94.21926567484607,-96.11831975963733,-112.23613942770314,-130.2391693722604,-136.4411819659086,-206.87012456403005,-243.09926869339563,32.15874368544206,622.5307124140975,1213.4431858781722,1304.1763446448663,447.552036148222,-813.2632925979433,-1168.0312242502125,-546.6278783779779,-118.17181577999358,-153.2594238778399,-88.5313259148292,39.21721044921358,5.609510473846484,-4.214514121807765,45.75293869853704,25.7822924461963,3.027977073648378,15.189707393995363,-2.6337881298925456,-23.436866036468427,-20.534104327117678,-25.8648059241022,-28.897715471101556,-11.456665927620998,12.08691704489027,41.69139762428697,82.47565327527363,121.55374456294822,149.55564788085752,167.66208827353267,175.1628037448772,166.3968951901331,136.7479098259472,88.83352531306357,31.308426474041,-26.802657732418822,-77.5111011182369,-111.9817485690803,-125.47041239833422,-123.0048372507192,-109.82069313337222,-88.15911731528072,-69.5917684008733,-61.91975359947098,-51.97618405766343,-32.15134395822412,-15.283702458686399,-8.265564356987863,-5.872046928470358,-3.5876574020967382,1.3684532534234393,6.287617262811214,7.675458919091479,9.530177280081597,9.637110688133369,2.6014900312722773,-2.364036906346872,-0.7897950996148726,-3.120196759219816,-8.974144604689506,-11.995145777936486,-15.277981633754735,-16.297400134868738,-13.813652046050727,-17.697318881525277,-16.534085726687493,11.249338909845324,42.822252578822486,45.48034488111005,37.41979000717727,34.56691695977521,12.116837438221888,-21.610329637888377,-29.25853533871767,-29.829037246548182,-48.66314199202609,-59.5615581527047,-66.19959169831864,-89.00944929510362,-101.17230171324775,-109.79811547726803,-132.4085518910639,-136.94138666231237,-175.7749300110674,-257.69443444029275,-128.5509992506502,369.63059859262046,1016.204482504624,1371.7978711745802,898.1969347442479,-341.735326751421,-1159.50810255813,-811.4513565498744,-197.46720706964356,-115.47343867756739,-140.6465312007377,-4.277091374238381,12.95805526796697,-32.42582095073023,18.206086469524216,34.41904457474914,-0.5821375772189485,4.934805836991636,2.457303110188243,-23.62036904577889,-23.601633168313995,-21.047237553773286,-30.632907567627086,-20.572315112134703,6.455689116777208,35.2813112204592,69.82127448345663,106.39484911139812,136.5666212071685,158.53581614804915,170.41296354145942,170.9407505786907,158.46733186066848,124.78407971311773,64.71270766296685,-6.708059054795872,-64.88175159881817,-103.41066149599614,-127.85718167478569,-134.34191224181066,-121.11796835562676,-99.65680605694217,-79.20235919318263,-61.491307829748195,-47.33034883489498,-35.5681670103961,-24.20175355109808,-12.804805490414303,-2.2929276742704303,4.328230753352795,7.050545000575504,9.31648564534269,9.40827248875188,6.202928175955497,5.495913359102693,7.497396150307827,6.353134080810129,2.6921358901238106,-0.01381548177165648,-1.1168632641466907,-1.2650654270250588,-5.748848529519405,-17.43101818447107,-24.719638317406485,-19.124889436600846,-14.374665766959346,-18.164159501614378,-8.165713678197374,26.04603566978665,52.784391840398754,50.81344632166876,41.94048373622317,35.730858394327825,12.678495474191546,-15.651941608942844,-23.39064784142199,-33.1141920667979,-58.95291824128263,-69.52978860938038,-72.30241270149621,-91.07983864595137,-104.22096085428292,-115.23774568610905,-128.5214102263742,-125.83205489333736,-172.07289119985177,-232.77134108807965,-46.765626884746155,472.2710389645737,1086.5197784851207,1364.9165297123118,749.5816854391027,-563.0651102654988,-1246.3153040915408,-757.4020549464212,-186.24643871186646,-148.3979398250138,-110.15517421956108,44.30634863943652,28.165103331427694,-2.421478732190942,57.785321091738126,45.24460467291544,5.19763276760418,21.132583814609227,12.582265759282294,-17.49420465495879,-18.600360673280903,-19.323310417501105,-22.426237275202567,-12.218334011902233,-1.5076808397242694,24.721219059042767,77.10716545058241,124.47838294717313,155.10546048216128,176.86853714064142,177.66335024852083,157.4574084411116,136.77057039158709,108.47471743665787,51.47372582182301,-17.58527002365998,