ECG,-4.005466932708725,-4.99391137173605,-6.653225075132976,-4.720139012835528,-5.070589759356549,-6.27887579715763,8.226442052056338,32.03042736504342,42.24411864020952,37.13216087834456,21.854081962783944,-3.6604886189283263,-30.633119012995824,-47.466374878673285,-49.83438225689527,-49.06341157727989,-56.568824522561364,-58.53599095079318,-60.65519866627356,-77.40917190849814,-70.53932717069692,-64.35033047230709,-128.8167098207735,-130.66177857292595,121.98664558256218,591.543737391864,1029.0451283142431,898.5584151384995,-121.30920151621666,-1134.5947135936708,-1006.4626429787811,-248.26648693377723,20.67160022399196,-52.24665776365917,38.72562600019788,100.66253479446046,36.215056118521446,45.80108083496116,68.20716010437184,22.089160404753997,10.146781529631081,21.954883507108654,-0.8033442264845485,-10.20576669533013,3.2279390474900076,7.284517524560556,19.928043886344373,46.05780881893822,62.428234584706274,73.69262552096131,88.02288171314623,94.49486590028204,91.66762647799044,86.36164766704765,75.32140091216029,53.63272027104756,23.60646325304354,-8.755283032989976,-36.613028451019254,-57.2586103031249,-72.12006609592802,-78.46602876552055,-74.6558791617917,-68.14860304220187,-60.938376408167784,-46.408464882883386,-31.39851701775479,-27.21203492045616,-23.360932584491756,-9.930349801171662,0.42190361952285826,2.350448275250816,6.144139081403388,10.218649355271644,8.053272534041357,5.75055458866701,8.109710078240374,8.745645785469124,0.513352384249961,-12.793891390428433,-21.49984224545964,-24.42281674100428,-17.803371959569056,6.309985923745332,29.942734203978297,33.245149569090884,31.600488565668748,29.321884426530552,6.403321021134715,-26.695278160125447,-43.00712482151863,-44.690643590102844,-49.92590617151693,-58.780383845685336,-57.024101542414655,-58.800169572674115,-73.78152207707313,-66.75180809172502,-69.91430613943785,-131.43354088786023,-106.6300663536498,163.4571039483882,624.6699549746559,1026.4538131054826,821.2820381272809,-240.29003556883762,-1169.5458513702572,-931.2949295642657,-184.1842311696244,22.9040479892235,-53.23723698206051,48.39955123969686,100.3595259050137,35.37867096345066,41.71008485931334,53.46651607498748,14.581762245986015,11.013120855586358,18.935550928420845,-0.384541073920011,-7.489796006923001,-2.5337409616418505,1.1808578880837644,17.840194015778202,41.42434295699578,62.50666157082344,81.60717797208896,91.59577773271425,93.66649960503808,93.25651732670461,85.40513249075272,69.08839727484138,46.827536023825374,18.214824779676913,-12.286907618583447,-40.02367416951756,-62.53983823175793,-73.67572671671806,-73.62426808180116,-71.26179470388507,-68.28962722270897,-60.35222595465864,-49.14680553976534,-38.38418177624358,-27.661001053235147,-17.399213888176874,-8.769576817896237,0.5979485371344353,9.43615570656531,11.245332353448536,7.615960205887042,6.119232658172729,7.9527461270697275,10.18144866476869,6.870031180740401,-6.171202012391186,-19.416174552737562,-23.038829446978433,-17.281832690749106,-0.13456141275753186,21.632456767206143,33.13442563449691,37.91031431841036,36.57154560707739,14.5693206312114,-17.39292667077479,-35.7589766456045,-43.893650181748754,-55.0974580782584,-66.33403701461165,-64.93810771445858,-62.65169805149717,-75.8685848757373,-72.50536342594714,-67.51905851952357,-132.41821234084804,-159.5912553584024,57.42697727642354,513.9604283941663,982.3252256482492,967.5979450538516,70.37096269926033,-1002.3742945196695,-1044.0566334711057,-310.61439895213977,29.466520142540286,-63.52101137789428,-9.115018036390182,87.31385593228758,35.69651693204285,22.772554265386237,56.284050982140236,26.766878205443554,6.351303941010681,19.77284791094146,8.295891040313176,-4.598663680279621,2.5493065163183495,4.850466935704384,8.693895633540816,28.573725408364574,54.00511372459815,74.56966711398215,86.83398447743572,90.29715345847764,87.84549724250198,80.91517300783823,66.92391554540117,43.98071977731789,17.293980369908247,-7.862856220628645,-32.78532994302219,-53.61456996358319,-63.736538346240906,-67.96779786841944,-70.87072840931212,-68.00772200763177,-59.31406007865965,-48.862411007449694,-36.589811463221224,-22.735736477606178,-10.720791189325265,-2.931086636746141,3.1901683136956684,10.229402551072084,11.976478087524416,4.059968756428814,-3.531489299254959,-2.347277728017392,0.5106409654924366,-4.8753277581368835,-14.823323543086861,-17.769333876714516,-15.787762875012818,-14.615588660008152,-1.374516519029525,22.877039722060886,33.86641642072897,36.15686744779722,41.03510666222243,24.987845970940956,-10.98477177170117,-31.094849073908016,-33.91296578383083,-42.74618160010586,-59.66850468427057,-67.98317972634186,-66.8787858407837,-78.44259019779008,-84.8955346512922,-73.42848793604107,-119.52851495630053,-184.37848245509943,-45.89674602019046,369.60898979429305,880.6354397410718,1066.234493384962,412.961701202717,-738.9757923606159,-1129.369914093329,-499.21563721997904,12.072521041986775,-36.99948937093265,-54.701970074306054,62.67973954296362,42.37211131155078,5.999859718982471,45.27845017185436,34.939989457365016,5.689375325244217,16.193273951129967,9.230718422132728,-9.052100265794087,-3.6366370291807604,2.6017483694053087,9.270017137070383,30.065366682125926,50.516442950004574,67.97410730704209,87.09956693302811,96.17118071392092,92.32273909995308,84.069426513122,70.88372788623448,50.31353674088281,26.16205256082755,0.9515494796516517,-24.059704768053606,-45.74441902530926,-62.322166501232,-70.71959130690567,-67.12637361810319,-57.961786750795156,-52.10211010284745,-45.748029990717455,-37.653227788967165,-35.61849424696611,-33.390105270317804,-20.25137873323051,-6.669437380733061,-2.922922667124574,-1.040566625992021,3.448112663153438,6.247379255112102,7.375150105440742,8.33843961356855,6.386892209938354,-1.5957522932686032,-8.953890758041329,-6.30248594212939,-5.388886158462997,-15.109131341356267,-10.562438434432346,14.745941068721974,30.303013541960773,33.607938620024136,36.11396029478315,19.83548403070322,-13.818660458489509,-35.16978424488851,-40.211897240577265,-45.18894170663772,-54.68774407067307,-57.44392947874209,-56.442092801412116,-72.9322756919878,-82.17827520603808,-74.32383120593127,-126.85832255090136,-185.9498580308173,-28.77550928042811,404.30851833235397,918.6386374033533,1061.6808128833304,338.7392996399317,-807.5709223543763,-1115.9942780966671,-458.5074005880289,10.718298458670418,-48.143367285125414,-42.381725255275455,74.95338334296811,43.93292538811641,7.718661119152433,47.75869663958576,37.39613888928027,8.774005992014683,16.992066314468097,8.115083265818095,-10.027936208862668,-3.159986294306978,6.0483130940167165,13.684234121829697,33.69873831732531,54.771989742343514,70.92475772472147,87.44538343693482,98.51411582239251,96.29383922260274,82.52290904363478,64.21278799108485,45.37064527766978,23.437992129680747,-1.808567991178398,-24.990120277566895,-46.186745622297096,-66.32287856810699,-75.80239689567671,-71.3093395752774,-64.72339409059941,-58.77861821580144,-46.500671499785426,-32.88198888797097,-23.011151825110726,-10.808400883081081,2.2697365748188023,7.543096318702901,4.067418886485379,-3.593394363936337,-7.689572988249633,-4.4094808016623634,-1.6616135090508433,-2.0325356234712366,-1.9311292708146457,-8.042527717400008,-16.156235128429724,-11.795261618460614,-7.409777972726436,-10.119042139826766,4.74416907744494,29.78677432325226,34.69311375962633,34.183904813608464,38.042776016331445,17.78477851078972,-19.29424538871206,-38.46177612200128,-41.871464656684296,-48.4275294227875,-57.78134081328775,-58.14056715195251,-59.63507125568911,-78.8216805609907,-81.3870556628222,-72.16554993056576,-130.983273109383,-171.72917831908558,27.120521198369346,485.804600538058,972.451439892456,1002.5192285730996,162.212081261265,-928.6709746718416,-1061.0620895470017,-358.6475185270033,26.24857106608055,-54.59805468058373,-21.96221596165077,79.81961860464403,38.08837320473478,17.48082782476524,53.34783557029064,33.15332858770251,8.857579013632318,14.965536355112725,1.909058911134033,-12.405139087551925,-6.438564312249695,0.01722617978205676,12.173580425510178,35.22422160007831,55.34429804572987,73.03657276385096,90.03752535747101,97.86332640284968,95.17691673888189,84.40960953884665,67.14273639005205,47.73926195573318,25.68287960660556,-0.3903640251893141,-24.097804205804003,-44.39263987802501,-64.50074148702095,-75.54254560659227,-71.30790954677143,-61.55050049394818,-53.92803475060552,-49.72241264162992,-48.79516953579986,-42.47735672642939,-26.445808699501494,-11.896478685026025,-3.6725023707715714,3.331931828701393,6.050273250546784,3.3911957061691904,3.8658386875501947,6.495697618371015,4.309900063118151,0.47011437606655804,-3.8009306661344304,-10.769165800973589,-12.89785606791017,-10.890208494296344,-13.85376384631347,-7.914664128950379,16.596891167076304,35.92545283029584,40.62845938855271,40.58652034099557,23.796892258677627,-11.03156672327591,-34.762477913842005,-38.847041907493775,-43.33127924859907,-56.7092905919206,-62.85998775508995,-59.82653237221298,-72.86874533797159,-82.90883133868454,-69.97118880145464,-107.9672387470041,-170.00944949538896,-41.802312820179765,364.18562530129236,877.2561001940417,1069.6424963040758,423.35222119065907,-731.4936515072193,-1145.359267666243,-531.7519352791102,-3.6854797303921476,-32.31811265151823,-50.95257326972685,64.55903852736722,48.94192042153954,11.102508498337873,48.20946992885489,39.73105053443982,7.770862749490432,14.201937007953465,10.019961429514899,-4.354840653040491,-0.005682880812859281,4.575385170535769,11.530971628465473,30.696182203519115,47.86375699075097,63.88753108789908,82.7072539614395,93.2572803883388,93.01517331356354,84.68406014487863,70.03978020373708,54.156102779294415,33.746488752574315,6.1716321505817175,-20.043189948264114,-44.16024266485853,-66.63641359393897,-74.65657667042665,-68.0170429934678,-63.38828317068308,-64.11108236781305,-61.30054345164223,-51.89882079447511,-38.738997838255415,-25.874235580480416,-14.566941318713322,-4.605152865071677,1.393420791398853,4.228512950226902,7.669724413450037,9.866650743129721,9.794026464579995,9.555682871628175,6.884213514653126,2.825652616175243,0.7262525122304329,-5.629132004224029,-15.227078516726506,-16.356171053830096,-15.837714520659109,-20.217005825430014,-8.62424119382052,20.09768040570325,36.95074320173595,40.87062182537817,42.41040807881183,25.316382546392582,-10.645315534062064,-37.58255513305497,-44.92706293222581,-47.3092676058963,-58.36910429937843,-66.55400040084463,-63.86243739176252,-74.25782813587824,-84.50484401700729,-77.11129285868662,-119.10839461603739,-169.3749326990182,-14.963379078355842,408.0097145439539,910.4983459192556,1062.962550290149,373.29457333372113,-775.8548233062943,-1137.8998390515494,-503.82333563377705,-2.3424440525403583,-38.454410874074355,-40.457417669066096,69.85043986080066,40.69767650441366,7.370739079791999,46.87808846233159,32.48546914751755,4.490813899349597,18.366308038225355,12.50156912603072,-5.468080125813876,-1.5816846370359814,2.3499709912137146,9.246205876914857,31.90822952466427,56.04553552676403,76.36462439357997,88.09482439477458,84.0836352769542,78.79346749731104,79.81364996852193,72.832281049949,53.88877639152672,30.089665065514843,2.3340551451105114,-27.093713191602838,-51.561840007765056,-68.65589771176748,-78.41930956694652,-79.33407010875521,-72.0744831120039,-61.01083666590527,-49.493529139556685,-38.57160574709711,-29.260828772944354,-20.776529793664302,-10.950441513776868,-0.5413144112877504,7.764748555729186,11.189753074170921,9.252436785737123,8.704565483202554,13.383602604012985,13.21742386045982,3.2937335165370794,-4.130979662213287,-4.552936367232451,-9.392602950973158,-18.91663755595828,-19.966893513743308,-14.18109293398858,-12.322384892592119,-5.457958804332819,16.1105054306901,36.00245330149425,42.40473643672096,42.06471606501069,29.241347655884113,-2.133724043743525,-30.858347404065327,-38.6016745701512,-40.08163476953983,-53.27132518004264,-62.77604780620992,-59.57194363243877,-70.0436663145162,-78.53978512229538,-64.50177254890139,-105.63421909893945,-178.16916911189912,-60.97868908016761,333.6467534227786,847.463175442593,1100.0513474941456,538.7418429660291,-650.3267851136869,-1205.1554618376858,-637.1505334969266,-31.843737738720822,-21.238291630569826,-54.459644876874876,72.25299301933454,64.26939515378955,6.372748395252865,43.19350904833748,50.71278975391136,18.03278910437451,19.23888801744484,14.662750416009475,-4.262154334960525,-0.8970633019228913,10.41326610727134,18.061429929392318,27.37610113032991,35.73392788680152,54.99847350624036,85.6768027177267,102.0701782209483,101.09552832486496,98.78960774997907,90.77917559887719,68.15181661453035,38.786032564810185,8.54542094248121,-24.687435827147453,-53.1754031665089,-66.76379302345248,-72.09303046790563,-78.290263701751,-80.47975817830705,-73.60190772408976,-60.53956251799777,-45.74675754040397,-34.44198141346282,-26.532130737323616,-15.833006753834361,-4.757149197703718,0.5195410875456936,4.143502491851814,9.230979075296585,12.375440659036137,13.853222059366301,11.734252662651954,2.619749459944261,-4.058962392668116,-1.280394102939355,0.5901601822927098,-2.678091321170113,-4.438002275359226,-6.161111366597989,-3.4199970324223967,15.413980419596182,36.57963525461376,39.6150837638479,33.39805696924037,25.99096310328993,3.370641133491871,-33.704472869487404,-57.085475261825664,-56.563670793141476,-59.902884681644686,-71.97083627055899,-66.29397605463178,-62.79296418458297,-74.80385951128471,-62.79849942898281,-69.43977193176639,-125.5369803981726,-61.51561989848922,259.80055349912504,763.465738120648,1136.0039535896037,751.9998949581812,-463.58672358176483,-1290.785076060958,-893.9859068471085,-194.15493163589304,-52.080570686435806,-48.77798205154644,95.36347337208485,102.0248839237889,40.69855140844018,77.02444763104069,74.4550900228728,20.358370590547732,19.79309870869389,22.84764189280176,-2.9046234118601477,-10.17177288325331,-2.87673270079733,8.444660901656924,31.36666935172329,51.03137007930299,68.99042468645318,98.47969764317642,120.206515928967,120.20989241343617,116.31761644952911,112.32753342183025,90.13843602270586,51.660639864696286,14.548454067149112,-19.492772712978763,-53.731333141946244,-80.16920650574374,-93.20365101695458,-95.20312106140918,-89.72394578568452,-80.05261109490722,-67.15673799998812,-52.278686733570794,-38.77863567428154,-25.888801347340703,-14.061718265664283,-8.306567869510172,-4.325252620551808,5.007802291883417,13.595524211192894,16.651053460145874,17.09467729268208,11.495366696577367,1.1525700345562173,-2.0352900611127396,0.6600237512338847,-1.7324438657772152,-7.943702188024077,-9.855687950375566,-1.4293445311526174,15.706275342987972,28.500355833477016,31.940286741160723,31.254002274753844,20.616336301697288,-4.241729484665546,-32.45442792035593,-51.334694895649484,-55.764545463358644,-58.16286040411683,-66.56483260936034,-67.35503638054426,-71.68250069279799,-84.60413725343109,-75.76585677538378,-86.66444584918024,-132.9388160783212,-47.99413203185,284.5240170267157,788.2371068553322,1166.1291108316345,784.7347098179798,-449.53985972359646,-1299.9129142182414,-913.1638895074071,-223.39739289501634,-83.95786168083288,-58.791957276690496,101.48813113164607,98.99469433568096,34.47111840760068,78.0234730920424,69.81177155452409,9.086057074612114,12.82081872997507,16.27382525926323,-10.071486620775962,-8.96078823060855,1.3561358779055865,3.8221369390752997,24.30710485321623,56.05831950909401,83.53335500343991,108.91235905079785,127.58854780934482,133.24120980466375,127.6709190600877,114.71964002388538,93.17394421377176,57.230014549422954,11.223131665676046,-30.173307606236765,-59.87385285993085,-80.45514779954885,-94.28694873139963,-97.05882578672609,-84.81568181072367,-70.49298395114828,-67.62724421078678,-64.49803146514196,-51.16782742889469,-39.068658749296674,-29.677846749910614,-15.055106603056096,-3.0228675635267486,1.0863537541571482,4.694328964466608,7.717415761827958,7.258223890886519,5.868965843763494,4.086869554765794,5.176204565573702,8.170002540744747,3.0595740312917874,0.4436334166358731,18.15185348342232,37.00239849514055,37.35052364398577,32.79864034213995,23.881626551196522,-1.9701296851907006,-30.590856972171682,-43.57843380624263,-45.119625023251004,-52.10231971806299,-66.36571782241612,-65.72292591117106,-60.70994613449295,-74.32025184257405,-69.95986853295761,-70.01147732447478,-144.85862511277656,-157.04721257569685,100.73252726201758,603.0978377153597,1091.407401901322,994.3560326076661,-50.53919968550346,-1139.5904583545032,-1069.3272514589676,-311.57189210872093,-19.78614187640307,-76.31294482293525,30.695114301060634,103.96435809410211,39.65147268109498,51.01132742993565,77.5385297677522,24.03676205587358,-0.6790865147412148,10.545733578698144,-3.320317774329273,-9.43510638696144,-0.10910647856555045,0.12067156205012353,12.385048782367363,43.85062254593617,72.82543295032667,97.6568869845894,117.7055005489741,120.56146090863709,112.2938495724209,105.33268361404988,88.37525615059991,51.02965138571538,8.3145636729003,-27.25895002379495,-58.91117869332412,-83.32153179881045,-92.94440154764762,-92.15844689318651,-87.95210840592351,-79.07343548801683,-63.95075022577775,-47.823140417216564,-35.29436435557174,-23.636682571568183,-12.035442067178902,-5.885414239374512,-4.303883137990315,-0.4395729531429797,5.173495315833351,7.394750823984843,4.55679629207704,-2.2698134924613846,-6.712060033906969,-3.1617431865857846,-0.42666420865190346,-3.256305905088718,5.844629157911777,29.422542003358842,41.825850321713986,40.018035221441586,39.93528034314498,29.779309306828523,-2.952394500997201,-37.44993474533884,-51.527413080296895,-51.55256494108701,-59.754623748844025,-73.09177659944177,-73.91082892592776,-81.76635102962578,-94.93224204635989,-85.38658065868925,-122.39321990879549,-215.6163602776355,-142.7106594436045,249.0330881464981,836.1465637766188,1219.6840048633833,771.2086568002428,-452.2026339627538,-1181.450752228033,-731.0019886566566,-103.93648430755712,-51.57752782811488,-83.17651664944857,44.179970569878016,39.93018677781958,-15.54553384893389,30.82454980931749,39.553748620062564,0.8728590870897204,7.316358068461401,8.705998751908956,-10.500724170633797,-3.0868600169271065,6.481960784061771,1.5294289118625777,12.552673171685363,41.26632939311795,70.98652433436345,96.40508444161154,112.20587929120268,114.99223637094744,106.80541533145367,92.44122387032039,74.9896232428547,48.0106724569125,7.814998269448656,-33.31771447699792,-64.71299713560197,-87.57800372489254,-99.44250401525773,-95.22929286954529,-82.5092858243213,-71.47442060901051,-59.60084636649785,-44.317146153491564,-31.71975596742967,-22.062047437116398,-11.294293218876923,-3.9753293952488917,-1.9501404718714,0.820223867360589,3.303867460252043,2.2533499472115004,-0.3787857075936678,-5.512157154784077,-9.877139644319502,-9.586455351696067,-12.69680514710937,-10.837103024895553,14.33018142537098,38.788874852946584,37.926792954315985,35.652200406837665,34.94124972127436,8.036149370580574,-28.6675744334042,-42.95076194697068,-43.26172062417596,-51.777166604860874,-68.37590166374227,-74.42776957027732,-77.98500068621048,-96.93266207953349,-97.94144696380101,-103.17359550018874,-190.04480570607083,-227.500988164035,21.65005191654714,558.4850737825029,1122.5355788846916,1143.771564875699,189.37693197254268,-959.6069168225234,-1038.8952305252938,-338.1617181433518,-28.56457282757529,-112.62308696423342,-40.99436178065922,45.678043886926105,-7.074649076327603,-0.5087503090014813,38.40192245575841,3.8551067827922534,-9.770649121743384,9.676234865247142,-6.295309782130262,-21.23922805704207,-11.799207542388315,-8.577954256860222,1.245951951148676,33.67867793271725,68.0370670906831,94.49921174905246,117.44741877567104,129.47725239197334,125.33514342380627,115.39140032450024,101.15588194113329,68.49150486214654,23.2209379285043,-13.963249695458902,-47.371304721030135,-82.47377269042798,-97.46489409828534,-88.47335617485905,-81.1932831500744,-79.60568988825605,-69.00380363202652,-52.784268796529915,-41.11058250016752,-34.275179663612285,-27.549303244214066,-13.491814591241702,4.375577312863733,8.811554640772727,0.13288392654231274,-2.5793851579473994,2.0306383569973185,0.5975814032231597,-6.759089301440415,-12.770004387295492,-14.660911011891766,-9.444135717444137,-3.87803438203726,-8.650283822247097,-6.5655922050475795,18.67644741751071,38.061862389598296,33.66004165693092,31.713336294998463,30.22532311511963,2.361359759436425,-33.25314084496853,-45.8209047466387,-46.84541275844958,-57.79915921154688,-68.52976332986964,-65.74670303125566,-77.48031428333735,-104.7807628278571,-98.01823853940122,-109.60705825108266,-197.21585901839555,-175.78880254336644,151.58677188875333,726.08985314847,1238.018406559196,1042.2422880559093,-127.7198845626323,-1173.1903797103446,-985.566731138907,-260.2592720757586,-66.11791100423065,-125.6653728757083,0.8468146170936421,57.64044859802904,-3.3062556920016988,21.696860026387185,49.5399533632111,14.727709722212536,9.28204576040666,10.205225525101316,-16.02822176299342,-18.680511502268793,-4.531857417732487,0.2608273268942014,16.584895393822478,44.73596597859774,70.68007561973177,99.85828557010848,126.47050614448221,137.56075879859367,135.7029070694654,124.11298775636743,102.1547251684142,71.42499721492973,28.986640677098325,-21.471182567401815,-60.98354980684244,-83.42507880787139,-101.06262487665124,-110.24044230547825,-96.94620226056578,-71.8076794930381,-55.45686418063805,-47.57027748583788,-40.320442255153566,-34.37542519992719,-26.357781392745807,-10.839799027621972,2.418260513031953,1.8518026276070039,-3.439317484145061,0.08570601935565847,7.713128333178516,8.425598786978927,1.9477852857198723,-5.500362087135919,-10.780977123615141,-12.909718250095498,-8.479977575329844,-1.5157710186949807,-2.449680245449482,0.48131637315985687,23.01986959692359,41.776269754025876,39.489051220404534,36.43263348083126,28.02828186328611,-3.2308522461595945,-33.24272543004242,-44.71620160070348,-51.60041880049497,-61.165571467785135,-71.93811496707173,-75.64902859360573,-79.9897647872429,-99.18691950129084,-98.73351717120453,-99.71754925934164,-175.94138777088747,-188.3401714615028,92.53695585225427,647.0166183696707,1200.0898259395935,1153.8509969083489,90.01676205782042,-1096.5169474748411,-1106.7633581465516,-359.8139480915861,-65.28728934575705,-129.0505166747375,-13.45463980020348,69.8141645904382,2.5189834241701377,19.040204881592743,63.03988717365266,24.67655980137325,6.582648378421418,15.077988893974144,-5.079123201221777,-14.542323469428604,-6.430187229156912,-5.550931665565857,5.887697482644832,33.15004177362099,65.41402986679257,102.11861169805405,129.92267360344627,137.36465336991728,132.77703493314021,122.42130331999877,105.11358290004343,77.57829727005031,35.78239636371699,-12.629790447658934,-52.89513871703148,-81.8627100385256,-98.83147427119724,-97.20618421444699,-84.30628267532292,-75.46527712078324,-66.22267576204266,-48.646336786187,-34.05102203446544,-28.777568277068042,-22.28974814635597,-10.609757191354458,-0.7259142629508908,2.3332803804699083,0.16759981565087045,0.32046255352446096,4.934393852178298,5.193972299400112,-0.60146417327039,-2.5805580688413876,-0.036421126882817845,-3.1149434509404745,-12.64929988060404,-17.10167078509867,-12.269397923270862,-9.545411267876926,-13.07702567169957,-6.7777253178525605,15.244348937442872,33.96014481714332,39.76198066265532,40.06170447752318,30.932725406703202,6.063036719921483,-23.234863809977536,-41.05105916281619,-43.73714680821705,-48.923802621041645,-67.74627794654495,-77.44443308478495,-83.39784179849926,-111.13478126241417,-118.95810622454272,-115.65898615590964,-183.27726566918636,-197.85192403008253,70.2241532935596,598.8041980842205,1132.1140926517835,1152.9726280182304,222.14573940879646,-957.3726815635374,-1095.6862764227913,-379.700454943131,-18.968113817619262,-111.74124110763844,-61.381837905096646,48.998057324750135,9.927152051665544,1.141263628593272,43.5590024260537,23.91410310338466,3.5159335124581244,9.866667134812936,-6.021802594823175,-17.158797942151317,-8.39176286321078,-5.88451355549604,3.543401275076981,30.319440461563318,58.82444441407321,87.97942449149292,115.16320585594332,128.79565493593213,131.6971588272081,127.52982866411296,109.9318525202111,77.49488221331818,35.05186051272421,-9.34892488026552,-46.32935131860823,-75.00421831492699,-95.13746002402296,-98.31743925778495,-87.07024269925319,-74.88120861487681,-63.57378045348655,-52.22878481551504,-45.18068032340894,-35.3785105321533,-18.38082484424354,-8.630285763942972,-9.22620493220596,-4.825981402989235,4.618598779153279,7.696039957905548,6.488568398829479,5.798446433027763,2.3701758840967617,-2.0229240810229463,-1.4674426783272825,1.633128252028671,1.8770049453280624,-0.8862022633947007,-4.645214149366904,-6.527906467136152,-6.047707529546564,-6.648025167591069,-4.940166201215181,-0.8880155401778733,-11.785941857234397,-30.202160783502833,-15.849235490999932,23.485858143407892,39.804686139926474,37.983188194155744,38.84523028645155,19.83459175906286,-14.375241597219707,-28.843934544921765,-33.186259857468855,-45.61264980973078,-59.97943422413884,-75.59224420020871,-83.65109939477381,-87.74883805042256,-105.41033224581028,-110.63607320871516,-122.30620704522127,-192.18934432160748,-172.35180791101916,148.3740653340037,715.6627967314065,1204.938711004348,1057.540672900042,7.670549719466493,-1048.2857179472187,-995.1916403967688,-284.646991693396,-20.847709747043297,-115.29601462567709,-41.05703651238703,47.73756731529974,1.5141015982118446,3.3343460447675923,38.575259536761024,14.8964744997612,3.6048516520754816,14.17081671685418,-0.27936576696930837,-10.00287180478873,-6.086782852125416,-8.116468299642216,0.6263373888110202,22.998696342464488,48.95960867564577,86.23725846991907,120.16415477417308,129.56377140643446,127.74472383899547,123.85550603668094,107.6556754950698,78.8390300047943,38.71658181013596,-10.389100303406057,-51.08222081787647,-76.2106472843715,-94.78244117345199,-103.55862276742798,-96.67139279374841,-82.19056676349942,-65.82911260097839,-47.96488821459294,-33.39678570779232,-25.614431276489917,-21.77705217467245,-16.026991115105982,-6.750700837823921,0.3491065474180388,3.016566748637185,4.318488958728025,2.8081129928721573,-1.2466380378736055,-2.015337783512294,0.7935748203565112,3.4995193611250004,4.665786709787779,3.7056971059111605,2.9107532899733615,4.087851150394826,5.602060475243326,6.739018384401611,2.086465512042027,-12.007449319277868,-20.81991789107064,-15.049755968985272,-10.486505645178891,-15.513728137711887,-19.593381286405382,-18.865700026430808,-18.576262163979532,-19.392433288390915,-9.56193702257221,21.24276484047007,51.38211142923738,54.10411854100499,42.95300657974038,31.394909489594028,7.41962039303718,-20.833303327226705,-35.98792329900937,-44.25541097570142,-53.72519188335992,-65.19527878831934,-72.46897720409812,-75.04893025023601,-91.09723276733001,-102.37907208939419,-96.56339700101572,-141.88746761184674,-184.9970657056353,2.674848886989878,484.7683621879313,1034.717388588413,1169.9224082268656,407.2236186277913,-797.256624725223,-1165.523145828336,-526.4577919413252,-32.46647979420464,-74.87387917024358,-71.23790634153528,53.73414499805453,36.346744012991294,3.3333163766825713,41.715393320256375,32.69800675901568,5.636831803806096,9.448094080743147,-8.08114665643176,-28.972307340422084,-20.033781767794025,-13.578015219132485,-9.688365411962709,12.959086484459696,41.426389940618236,69.7753641073136,101.69935410821296,124.45675046852598,131.89875308631127,130.47001853732004,120.82984560833565,100.39435580051793,67.41643785870643,23.346199478323523,-20.346320461414244,-55.252810672999146,-85.93678492914987,-108.87902372610353,-110.02116632648169,-93.40639326311577,-77.20573939478429,-64.49589931611865,-48.745970266849596,-32.69403236560942,-20.67031059577929,-11.417624050397599,-4.961480537708738,-0.6418740298329126,3.5167539861252877,3.3431017353097623,-2.035550021564246,-2.753857595674157,2.6632131884214534,4.959625926095737,4.572202382654834,4.96746828231468,2.4551612877890836,0.6901868230082808,4.4272068630021435,5.509732632183921,1.264796977515842,-1.8888351877836254,-4.737658884985363,-5.751495708296581,-2.8504750670754824,-6.908604680085652,-16.576450661514407,-17.122345263247688,-16.074000231595598,-21.197018859580865,-20.21725007925729,-17.786510228212716,-16.42963389492262,8.356265000696773,43.808623720558806,51.76924489149878,49.728396042065484,53.4561193724676,29.275544938526917,-12.815791281983797,-29.01857903232925,-32.58723152364096,-47.39009569126644,-62.360425517677015,-69.36230671178343,-70.38950082432495,-81.75914365964599,-102.83757367049743,-99.21208290656298,-113.2849321575928,-179.97640969426888,-121.8340878253114,228.10542036396805,774.8365738905842,1191.45288696408,905.4978317370077,-242.58429139364813,-1188.4347534382246,-943.2116812568239,-211.58667854739213,-16.735392431490247,-91.64815710235597,12.763501223522454,74.11575859245173,22.98174746026915,40.383224528601886,59.04179937138526,14.188288013395107,-3.709985015974926,0.03101348563586015,-14.651887859592042,-18.632258440822064,-12.813737646214967,-11.329594533459096,1.4172652145618407,25.33272120231738,56.28263353792009,95.3057182484548,120.64267693714363,123.17661584893392,126.11460144610044,133.31413277151995,123.10745700452819,88.83089883515458,42.19940742760315,-1.0204847638178283,-32.749720232572045,-61.35295817050425,-88.7332819727602,-100.14375117165996,-97.2763173440348,-93.4667652462799,-82.78985605408153,-61.39307475005832,-42.06962768469744,-29.152932246191774,-19.721889484538828,-13.340249443796509,-6.5175325028547135,-0.8817395327978552,1.5150300123969345,7.702003811266993,13.979318581154171,12.06315179009807,11.701810572509167,16.20099137953263,13.15762050810792,3.9803792492786307,-1.5989811208266032,-2.151499157340619,0.7264574063819289,-0.1796936090319523,-7.204339197139324,-8.241225892025795,-4.006229043190546,-6.106148700419363,-9.933724392228974,-13.514755446084475,-21.15057777362906,-21.05553770340612,-12.039308980061936,-5.424225306560486,11.358847472946385,39.07763458170044,49.49647233521141,43.07075865360035,32.02171629476563,7.204122295398139,-18.569610065283594,-29.871585428788748,-42.48708330239246,-55.99637092113467,-64.2660865433078,-75.9037384336366,-80.82573959375148,-86.52449528723201,-102.31635293680532,-99.48109913795777,-113.7552211984127,-154.43407303539732,-42.868437147287324,342.51262561381554,891.0602366719826,1245.508058940178,779.3453981566769,-496.8621703755154,-1296.9247662691544,-857.4049548751129,-181.79574017404832,-83.8499177272181,-88.92508486595257,57.91348263261602,68.5374927363057,23.454094480373932,65.74979497163147,57.86972330538403,10.341693250420711,11.088973858606742,1.0673409872152835,-21.60103503767531,-15.388802063414325,-14.287384062483724,-16.566353951843222,5.628805606596806,36.01706194219834,73.40064577783144,118.48208807546521,142.796042116391,145.47022475448983,144.26646899711528,134.9618990602076,112.95310623117783,77.81422264375874,29.45224658569229,-16.870685942763465,-51.46539155296224,-81.18401067036802,-101.8130741797339,-105.76839737092477,-100.03328336465253,-88.07371285066235,-69.8493222628627,-55.37703293557671,-48.53487252429825,-40.51948747567355,-28.23580242131165,-16.127682026984303,-5.271823064466261,5.420994169976719,13.202079916253101,14.153198118453052,11.411737632675752,13.480017562041077,21.07717290399531,24.39616021989917,17.356938799096042,6.341493073593426,0.9344601407658812,1.8361006022079356,1.4819558903886243,-4.869144797556173,-12.637500536109068,-17.27840736112589,-21.013970028446273,-23.035021213047226,-21.531230446693666,-19.707006077507874,-10.539584389694967,10.922677275536294,26.456894303732557,33.284671172223895,45.32819445738975,39.333750707450136,-1.313824476938505,-36.98197370476995,-43.437009291742626,-41.570211739772404,-48.77315858206616,-64.66719099135207,-78.08349589071337,-91.02018222590766,-105.6248838177653,-97.37214843341805,-101.37948751784093,-152.34585951578572,-95.67499931681785,225.48850643352878,746.2861615587602,1189.4453041325437,961.9775785390773,-201.5831813056142,-1247.4846857765592,-1058.0090586181004,-293.06187428245244,-50.82831218014772,-93.03013770501119,33.72289382618479,91.30218439239562,27.938087678742477,46.51349321717396,68.05938556902254,28.34532381294508,18.170176956449204,15.118528485899452,-12.122822062733306,-16.771004284305842,-8.904267504176023,-9.24468927906322,4.77791716625962,30.73553444055641,57.57993631254753,92.19110245693814,124.71152755614895,138.86519563024694,136.69883588222632,125.9631588555582,109.4226441087614,83.4608386945554,42.64507174149502,-6.421556211369199,-48.25147103164686,-77.65547702865194,-97.35656120984571,-103.04669119525772,-93.3866198143642,-80.7588689991386,-72.22793761734481,-61.79306590528377,-48.242213472267494,-35.071460921014776,-22.081401376245854,-12.42969242536605,-7.863805728099457,-1.3566620105540252,7.809819929910898,12.455070527712698,13.837967962131959,15.602265209713828,15.075170039489622,13.47413934700327,13.08128097250633,9.091906082458618,1.6377395909959391,-3.6961729775278513,-9.073577909249792,-13.500734862955605,-10.000940384112509,-8.316808414798688,-17.076286993700602,-16.125648939121355,3.559532854579512,21.253398852815838,31.44298342997181,35.43923832367587,16.983521111830903,-16.966705215303794,-38.83743246723347,-46.13304894672466,-51.475654612478834,-65.24737908982925,-82.03842855461653,-83.63987489547415,-87.37038347091229,-100.8690275074542,-93.8004740747698,-114.46567286580095,-173.42590285837153,-74.63419917800819,306.32303827220375,839.0406498785463,1183.0336126256511,763.0318207196403,-443.8436779784398,-1236.4304574835926,-814.7854118789992,-116.95733257380736,-24.229021750138628,-89.94337178278317,34.961833352134164,62.57140987514321,4.293864673651218,37.807713352323404,53.243291351752895,13.215514911973262,10.572000269402807,12.366859995448818,-9.788744682308044,-13.111755692178946,-5.937895103255459,-4.333817888357945,7.550252476612897,29.52805266832106,58.34919516539537,92.42164116386569,115.70301752843676,122.46841444859211,120.11692787060731,110.30825458346641,92.50292581777857,64.0482390603202,23.563803576881206,-18.661090815261748,-52.99072124110468,-78.25769280228727,-91.09845571734989,-90.50504003617073,-83.05597211614017,-72.64377147610327,-60.046596391630786,-47.0685299332407,-32.96428905406819,-17.628718635576977,-5.234924540346174,1.2561817480764255,2.5270345610677367,2.3228054596312315,6.794869944814547,16.083177420156286,19.594609884677546,10.21261118990547,-3.100212260287808,-8.096906437767469,-6.6070313369931135,-8.042920126772781,-13.167221837220245,-15.93358840085121,-17.17972699835964,-18.8456119205697,-9.767955331693438,12.493707660493994,27.70526365784618,32.82490995830737,39.204478052843825,28.94315371923337,-5.086009586975408,-30.300370984477965,-38.095259467162506,-46.67356598303698,-58.34841345436024,-69.90114257710927,-74.45450592932684,-77.70342043562125,-94.65895724182344,-98.06580605780916,-103.06455508760959,-169.49855201331758,-169.56839060840667,104.49523587006246,621.3715148345698,1109.6334180820838,1039.7783743674772,60.61625495999391,-1022.2336849853574,-1022.9840918843312,-300.2375178082409,-4.59069537154862,-98.63526416848492,-26.50841100986601,65.8571722788819,13.995959599362934,12.420769669585816,48.01677262024232,17.61531589815818,1.461699680900331,14.2777873574259,-2.2699062031704558,-17.811622873009583,-12.397699769665309,-8.805443056252248,3.0974517363393588,29.904875189267408,55.33611071869477,78.45390272540774,102.03223985230102,116.74945015138688,119.07259554548772,114.88651565735293,103.62692376398904,77.71733740479908,39.332024607486446,-1.1798961137953814,-39.729917202948315,-71.77090264547033,-89.10490220837548,-93.11796743987745,-88.84048013264183,-76.78190958790411,-62.11402084659635,-49.69634261846926,-37.57369101457212,-26.879955498123405,-18.217107914462108,-6.739428128748942,5.922926218204601,12.441637250779335,9.476491212563861,0.07548300156086185,-5.323559817258628,-1.5565416110158186,2.00377756717325,-1.1512346866927707,-7.217013899547354,-11.315951053005309,-10.901513107733964,-10.533777387419907,-9.65911548963051,6.328290944260571,30.978921740101853,40.98016022334792,42.92234556696238,42.88588522196548,21.346635609204185,-12.727651477536421,-31.912226663115373,-39.07479785671576,-46.11280128235772,-56.13849940249426,-63.087527785631245,-65.46934904767824,-86.9483912587745,-108.44832760109398,-95.45999242948926,-123.47973482815354,-187.76961569167042,-66.77519150124735,344.11896144369405,881.3210298984188,1144.0784798392394,573.4250137119404,-629.3179067948927,-1187.8553707708488,-624.1600868936478,-34.730025935955496,-38.97905739764461,-77.99002973934478,48.403548870286876,49.70112248364797,5.417728808524242,43.73883621954465,45.021624645312045,12.129872240366808,15.066875538609018,8.487652141688116,-11.048051017896793,-6.5224178460341635,0.8082901415517796,0.8991452251053005,12.642525898254853,36.784133803396955,66.45113837099319,92.19498190377034,103.96831448375548,105.93375855338597,104.22935679879244,96.69580086195523,79.18718822774423,49.11810312462647,12.740680143987007,-19.730004663616487,-47.36485653010806,-69.51251553058422,-80.66947149269254,-80.59527685744142,-70.84084990787055,-56.83440945601619,-52.2346985524267,-54.031966738180124,-42.837305674571546,-22.654104951494777,-11.958657080610049,-7.574716361108761,-0.5289339569250018,5.478892247685158,8.18121760971767,7.894527659568476,5.084494580343226,3.9495333941651425,2.8005803875145254,0.40204682998289965,2.4356634108909,-0.31387612517802754,-11.163941130194736,-0.3933886145601022,31.14637093351609,40.37837048312613,33.702716927215576,40.43058176565372,32.37043183112455,-6.205205293327088,-37.015045970972274,-46.440116818967404,-52.15910961476325,-60.009865094252746,-63.590291794076194,-59.844507167610246,-66.74193666481055,-78.30212397877743,-66.91680173093806,-88.1026767798966,-149.07099990899087,-65.72137097531225,276.37519572005084,783.233785510911,1135.107462353456,712.7463796529325,-507.7022473015799,-1270.262399563993,-803.3536164146959,-102.84889495275883,-9.740173213814145,-50.09426918168817,75.80760338992289,81.8407756042303,19.0169222837186,49.6564249134333,51.04691237134706,7.687843902980504,10.143322452223188,8.54295191518185,-19.262377976641858,-19.506031791455715,-6.843946419502155,-5.419671351410408,10.697527394460732,45.70489972553345,76.93506641225152,100.49846851764991,119.04574323821606,121.69697981541516,108.5269321515931,99.21759351094477,94.11795214418882,70.65836139598966,28.76748266906395,-11.052652370091035,-44.95222437011797,-76.54153740522052,-95.92436518655342,-96.6782766626841,-87.30466289164265,-75.42969131288962,-61.98815448686622,-50.23233049009593,-42.802284203692125,-32.98988316370459,-15.59153618367744,-0.9360250497557487,1.5118565753611524,1.0302184204085592,5.250469499769789,5.20847168389484,-0.7878624302687829,-0.23230892150594862,7.616862393776735,9.796542533218298,3.044828400524053,-0.33091822803690785,10.538368514582181,27.448521588185717,34.83837854048719,35.70094760529525,36.47157556658649,23.54887730528528,-10.430698938593325,-43.027860218520146,-50.0646650330519,-45.270051860154766,-57.768612780172475,-68.64780881346756,-57.52526584765711,-64.04871157373184,-78.68745485228159,-61.32848390746139,-83.75650142079414,-129.52220143104077,6.155578858557192,388.0750162876582,879.3909263872895,1114.2295421299896,488.33996164296457,-780.3509539033073,-1321.303870002991,-695.1717700110415,-83.28722363230679,-49.353235618012164,-17.464359612625543,119.86293853824084,89.47734112301404,46.83075883827119,85.46063944854481,59.2777354645111,15.333039904452303,22.127113958998024,10.345512803547459,-9.52584140598553,-2.1653601981897506,-1.916497908126333,-1.862766596398476,22.641475006998327,50.808155890825354,73.26757177413137,96.12413367186886,111.23037846160736,117.78248683440742,120.48208441226326,111.51674369972973,85.84700844892673,52.49926433258885,21.036033021469176,-9.964258699522368,-45.46800964184352,-81.01601454537327,-105.27352193106317,-110.13180043294433,-96.53694176335195,-77.58997976422572,-66.44758793738896,-58.904194139726954,-45.24915596837918,-29.91100954879594,-19.349060536164558,-8.563576579318863,3.3438019075174665,7.385627847080178,4.858098140678742,4.764714848541324,4.101459345602996,2.086698253943217,7.144579328742883,11.022810159719175,6.69336400743269,12.583475012514354,29.146556124317932,36.42440778629461,40.27885852453606,40.983278114169906,16.10054864475356,-22.62875264894891,-43.731945913819715,-47.140739856749676,-48.380239994946265,-53.35773710579273,-55.62990621950175,-60.70471436453796,-78.31767733821346,-71.73899107697017,-52.140345280439384,-106.9904853834933,-147.64680397343875,37.732856785366124,460.34306388745904,938.2533975222069,1012.8139594148233,170.7867628541846,-1011.861032637344,-1189.5123022568698,-419.4927060806402,34.647006901731295,-29.897807994393418,10.575107704125955,113.34093053146859,58.683747724744585,35.62741536360339,72.97665110758444,45.25444431572667,18.09496863153624,23.826283998827673,4.115087623669485,-13.011440750930461,-4.375923448032305,1.7836110680693764,10.809800301050974,31.71594091621868,55.9248284135571,83.10712691716883,103.45478207401877,107.73004643731421,104.78672311367967,97.08333927012922,82.24360691197109,63.82764020245541,37.46508299116525,1.0223360415085327,-34.69405271290702,-63.79905666308409,-83.05451990555109,-84.47310234973247,-74.29835488177932,-68.88867323513448,-68.58282477540091,-63.44479703873384,-50.80136327675451,-33.9768885413797,-19.45372183279367,-11.775677523089396,-6.349871459972007,0.3504574993516396,4.092093114539788,4.938259118190629,4.9308248758962385,1.705799750545344,-0.0831616302567415,1.3880483737998848,-2.7028882087428876,-0.1750732031440081,24.9378060203358,46.397003875396905,45.324829717980045,42.00532482714022,31.319199379628053,-3.804128038749605,-37.234366815495086,-47.45943037455639,-48.502852839682795,-54.85600363458804,-64.27573896739972,-62.46824788568477,-61.80841828759151,-79.46125859548442,-78.00268007419645,-80.28324435928678,-155.51364796304492,-165.66493125784768,93.2278009503544,582.5871583608799,1039.935580998479,927.7083477178921,-78.7490837470996,-1094.5785479591384,-971.8285939022998,-210.53883862441972,41.73864225486936,-70.36857401542795,8.087429913650126,89.49422295223185,29.399566126911246,28.266891858314928,58.538895479996576,25.54444862499121,6.48389569023912,9.380638192386801,-7.389543278881113,-13.137278012778294,-4.830933843542071,-1.592008543746891,12.089246413802165,34.844853715153405,53.91662759476897,76.45013688639636,97.37370911046376,102.53313712967125,97.37955609044786,88.551332387732,71.9067185322046,50.29786672085721,27.34214290547549,-2.68133684897922,-35.05847166894851,-58.6078668952691,-77.77733305850434,-89.85076862947855,-79.28978923409258,-59.44456203031767,-53.41331485931488,-48.90639650631039,-34.06867930694941,-22.58486493308926,-16.237901452316173,-6.79151258535375,0.22982005295876107,1.6456390224154767,1.2745868021725961,-1.6119528145771493,-3.6959311762997302,-1.3692222462163848,-4.855394550608967,-17.154860108399333,-15.171827175342344,11.093804124272108,32.73402678127619,35.95013936543586,40.21684228068282,37.10681524811703,4.988430866701172,-30.13265592001649,-38.81231536821922,-38.33064259249058,-51.36121869855678,-66.86408171673106,-65.64309409182354,-66.49408467709694,-81.63110183302064,-74.98280136904916,-83.55896654072629,-167.70651763582757,-171.92438055736204,103.9928323456914,610.8562457687799,1060.745957608083,900.5180193385116,-129.64728394845199,-1089.0591727613023,-911.8533591122206,-177.73786902717802,30.857011679689084,-80.76284506044041,2.1838598933880746,72.73390117517627,13.926155771084144,21.79493807094271,51.80388005767395,17.321526977550665,3.1403875447117997,12.692748401933375,-1.0876954766098108,-8.538591691637631,-2.8412093630322977,-1.2584755022152674,11.817778537045118,37.20101143507159,58.72950638322035,78.83270389287321,96.94942263344188,101.63027581993393,95.24677735536062,87.20634224623379,74.72649566449297,53.41215377343578,25.176013699132014,-11.414017952337954,-50.637778812392824,-73.19110965247116,-75.36162087968486,-72.59258248116369,-68.31753952661639,-59.21489827471184,-52.549549979296465,-46.67698868475178,-30.80655393497355,-14.342008583661176,-11.90124895245932,-13.515975932097398,-9.320562186358032,-6.701403520935063,-4.588737488982778,-0.5287893054857733,-5.0982714828268385,-11.981642577926193,-8.497170423991687,-7.296101778092551,-5.698617529678787,16.05331886667852,36.67369824689794,35.93690016370141,36.36096726926731,35.03090099309902,8.987645895163855,-22.548728823821364,-37.65181680766233,-45.93154551902937,-58.08819514991922,-67.5575814725388,-60.96349868282006,-59.33603405672889,-79.27850857856176,-75.88748056716427,-78.32210735582316,-159.03766262357448,-165.29332018841473,114.3354590509334,626.6675123346478,1068.2743490023636,878.3860943206251,-182.3171298831102,-1134.909940156464,-924.3858144974627,-178.50786409378517,27.936204451619083,-69.39628722475248,22.677811741000987,84.96352877018109,25.020774808801633,34.21922581191099,55.16461215016119,17.647809324606825,6.450278792918958,11.193822748827273,-6.487047665329859,-13.07483999781435,-8.757671003475696,-4.383372249751332,14.98716424454394,39.79953282719627,60.4679136798801,85.64107869131298,106.11083569022301,109.01580406359909,102.8158210682378,95.89985141549121,79.105610961678,45.64252096803859,11.285272228800823,-10.160774665231745,-31.511876074920913,-62.21406562885632,-85.51820828560255,-87.65701967891222,-77.64454085624992,-66.57259433787081,-51.71743386044591,-33.91545787786648,-26.545550099023256,-28.54898650809512,-22.78018418692534,-9.97116971087869,-2.651130329716654,-0.40459421377817684,0.8101546516697304,1.6332590726384257,0.5548688664354025,-3.523611155067943,0.0651561455105405,8.799240335292174,-0.42461811606715294,-9.097510787975642,16.557933828013574,42.28809642026547,36.72942422201561,32.141202807704445,30.13376947513624,-1.6893517302224978,-41.134204567900085,-51.33485531151942,-49.45321357498598,-62.28966931862203,-73.18132513773935,-67.54726615734498,-70.86416428476377,-73.31575446532918,-55.7596963626936,-88.6656720072568,-148.92144719249066,-37.844439322280664,320.9919027323268,817.9483356571816,1109.6333846951757,567.3292112266897,-686.4769497704392,-1303.4331649611177,-718.4688981658461,-69.02863230603532,-26.666431574904607,-29.507917245644286,106.9137622226869,86.40882698961882,27.167003195712,66.62023733066428,61.882203638320604,18.71118577028598,19.396438497697126,14.752944229874243,-5.180886074882192,-6.398947802058614,-3.1172256561167195,5.738833730839659,28.80594203177776,49.87242013950356,71.54170992278226,100.76276134694177,121.25378919174638,122.83327063258389,109.43803050198466,90.12421715354388,75.75594435573902,57.87452177555007,16.577863503675673,-36.75357444939425,-69.67111559341852,-79.49137869631895,-87.12221083892844,-92.83363750665151,-83.34272697400948,-66.95330595006833,-59.67646204129866,-53.97791022613438,-37.3219326618322,-18.996088531376813,-9.706629970441199,-3.850920941424599,2.1943759160647893,7.195192602916582,13.064396706929664,12.57803631401367,4.341613319747838,8.111469048209699,18.351591094575245,8.812770891448258,0.1967243646648511,17.526077981050253,32.44753192792924,33.670557801388455,37.77369217912,24.947836119051434,-15.006647044655601,-46.493291458348544,-53.52634597551315,-55.042028190803705,-61.7826947068826,-62.83809756136823,-59.42479191113014,-71.64901622956886,-74.12297902842377,-55.446307834010874,-91.04485503867879,-130.89200937535372,22.11529825906544,408.27767148078436,885.1671874480605,1046.8139506780283,318.7514922095096,-909.4141358458223,-1263.7023875157226,-552.8214998031318,-16.593676118910018,-33.2495857628509,7.0987637973270665,126.94890650817011,77.2584183104763,38.977859737374224,74.54532471961423,48.483259026901536,16.777685324259984,25.42048627103877,11.28387905368264,-6.142809553438951,-1.704419383948971,-3.8468731123629887,-0.6808248370644776,23.204989194395864,48.633809164742786,70.8923455064142,93.81433698208701,109.21005286273791,112.73121225350486,105.66366717138753,88.46029603740894,63.75321406029125,36.44697958645418,7.6322296673340055,-25.08561654946994,-56.42811070182832,-77.29670225563945,-88.60706956684419,-90.8646786317699,-79.27936229188738,-62.84472080265702,-54.34386582523918,-46.23738735853653,-30.54880636424063,-18.21292263904357,-14.435830990935443,-8.631843807782918,1.0154361976398043,5.686294753975142,4.411434190313491,1.6167517975762262,1.1800297574851992,5.62617656873325,7.369211612349918,3.680616501732417,11.319957644173323,30.213180534089805,38.63772836822693,39.155784417672535,39.41268255594009,20.60888702979802,-17.737290257899176,-44.3401068224585,-46.72466149713914,-47.614291739454075,-62.489088012588674,-68.77299364792748,-62.92611844005658,-74.41353238314713,-74.62100306093666,-58.021657345694464,-113.12015115766273,-166.55906804484528,8.001339951470868,437.600532531858,921.8028835302417,1004.6483735772025,198.73871138760498,-950.9081790634316,-1141.0385001140742,-397.5982392045182,46.391165101294675,-32.60814060354166,-6.953703594979359,101.71610385500793,54.608468626770275,26.31552829778306,60.62485649004136,32.501597597317,2.1709998795933068,11.829177356704303,1.7107131789652517,-11.901625093620524,-4.038999257599942,1.3790070046418332,8.385832050761724,28.369843266934822,51.33088413682559,73.10835339962017,91.75433429524035,101.24772508351754,99.51174473592798,88.9117409738991,74.69339454313489,57.63713962477653,34.063951315873,3.3258581094651496,-33.65143203430185,-69.15496400578125,-88.54565472440731,-88.61064181803138,-78.3321999406949,-66.7261452706008,-59.922122010019514,-53.52515163943163,-38.53235292298724,-20.58400293619978,-9.290466551949738,-2.9402859199228075,1.224722565815906,4.476844552398109,8.87396511696305,11.07027726447583,7.8807721148742464,1.153804332623464,-4.94757045605872,-4.70529913642234,-2.235811572469295,-4.209256862119705,3.4660021194708763,25.617688531205864,37.11784928217456,34.251111102818896,34.04015212769301,23.319019667773528,-10.176304707285338,-40.270066936838006,-47.69934376865196,-50.349403958761,-62.31160448028292,-66.35024239714087,-64.47183360698246,-81.46407951623017,-87.0912504809626,-76.69827503636981,-132.5837842641222,-183.57634560399254,-5.339603002583431,439.31636354184116,947.4065646361607,1058.6658383652968,282.78938040104725,-876.5369317013127,-1130.0632941941046,-430.4491578512127,20.355108583504652,-57.22632452309129,-41.588834285362054,78.83142261134293,43.37838111543978,11.753117602201879,52.25988317693052,35.10600325232352,4.757522585511072,14.848321187250871,7.9637388378147875,-8.60278254910929,-5.111585130943366,-0.39198203752748917,8.920682829250957,33.37673487270551,57.998019334086344,76.62551393761704,89.8831793188613,93.20966740375464,90.50568362400034,85.40440924288916,73.30825128486923,54.287630355142674,30.063626735776282,-0.5749826410537033,-29.570005167094042,-49.0515408954636,-66.7098603524866,-83.14808864760201,-83.3879394846998,-67.97282032505491,-52.25120991913121,-40.82274867860104,-32.8689351499648,-28.051041732037223,-20.423963782939552,-8.488367485900445,1.9145960091400198,7.268571447910057,5.536931013150788,-1.4581767701603852,-7.169467687660397,-9.047728485797814,-6.1636639390391075,-1.6441547587789263,-3.7597977759232375,-1.9221114847334242,19.188376486742946,40.03426210841129,40.9366769965458,34.93463758764,24.182167346986592,-4.266927611180531,-35.91964534847601,-46.911362153430744,-46.54573955739827,-56.515046052091634,-64.84524572604339,-60.63474866312386,-71.14097226490584,-82.05192887460856,-68.69889021121172,-110.62987252794444,-192.72391902616636,-88.78878239670448,304.2117121312449,825.4021987669406,1078.590990743645,518.6006098757715,-646.1401462251208,-1167.7405199194905,-594.7252581582809,-8.5660410462873,-11.945379507815765,-54.22888679349967,61.75501191162089,54.55767394991278,7.173669174008538,45.46353905118177,45.468399684787705,9.1514990509027,12.622039814776905,9.667692620973721,-11.99718124615966,-11.969521240268236,-1.5636484392437033,5.9910609531470485,22.07114791260347,46.258803525479365,70.74964217501818,88.61835422679047,97.72062453538041,102.65003058239374,102.10506980424847,91.42487806165173,71.46091148362031,43.126624763592865,6.4804526913600125,-33.226090328906984,-64.35102713332181,-78.42291675912746,-80.08548852720382,-77.44982759626885,-72.21149481960924,-64.2324454670878,-51.11717047171894,-33.823857930956535,-22.414916907611584,-17.28644228589402,-9.29377536592038,-0.6949847978722214,6.364983193494787,13.828391131962482,12.308103447967264,1.183831872000896,-6.27036802811185,-8.151740221760821,-3.1075592403968537,7.1242092425368515,3.9974489568368563,-1.935622407831384,18.908133478335056,42.70919053632993,39.175949064867595,31.626676335370423,27.48477536522207,0.4338799424785762,-37.713877884009506,-53.09284727603908,-54.23216815125751,-64.89860882205689,-71.54739478280115,-67.92854814140162,-77.31418769114956,-77.32277287882242,-62.93444386382914,-109.75799243591574,-154.489277179261,10.228718875951586,428.57941227923,930.5282463381735,1059.170605008559,278.74058494286396,-921.1500100276015,-1200.882561896944,-484.36194538036113,3.06791599176303,-40.07440573768764,-6.79021324744631,106.1779639575376,57.91530257190116,24.077409232546522,63.81059041405612,45.261804630070515,14.372950144616116,16.449905286786766,0.19840697414041308,-13.327762850206287,-0.6323784990347416,6.224184502909267,9.97806924879633,28.1548535810868,51.59994165430376,77.40509821045889,106.13406410322357,123.44024832188504,120.7951251547849,106.32575817899932,85.0466793678564,54.369738661768494,21.830076916358088,-2.529281979424904,-25.57165093025926,-54.609340773507945,-78.9407833052118,-86.74702113115781,-83.28784998133621,-79.30308900283518,-70.06872033976697,-49.28968489968392,-34.16015653254009,-35.17336499208826,-29.722773873421186,-9.43790066850875,1.7897926894203788,-0.5743301276069559,1.3573416635623285,7.356290991511936,8.443397261654624,10.08367679033984,15.513083716570279,14.763742906586561,7.7111820384457905,8.867508175512327,17.63007186902806,22.716888338276767,31.08463764798235,42.09408578594801,26.9416530042046,-19.194078856314675,-55.6099749386409,-58.98434255562957,-58.466206233127046,-71.85380962720734,-70.15335758236303,-58.71833707088969,-67.55019862182623,-61.528461634051666,-52.68100621788467,-110.26898314638943,-116.24025092935221,112.56729683761262,552.11469457039,1003.9580112230196,953.8368153798718,-32.38286400236649,-1155.3627434042985,-1144.1914593165106,-355.41600118041174,3.4050363666973738,-42.210492317942055,48.45941965653011,120.31328298980208,54.19227190536943,58.45135040660593,86.12491592039923,38.95139090083174,13.848718785317622,17.364509999401456,-1.0063432810467,-6.50184439708472,-0.059016184781272685,-4.5251372067559394,7.5860402170464205,40.07866145945161,67.05695159956869,87.36562829974248,107.1412938725881,120.87923467195805,123.06900067284695,113.99095591519591,96.24779112613439,69.17069789162778,32.673774195192564,-10.054861635264055,-54.40983668048464,-87.25195983312408,-96.81442542385314,-92.39574832766867,-86.95082094380155,-78.45476753621217,-66.2989857168728,-54.75640868398939,-41.48414735433683,-27.770542423270527,-20.5375658111697,-15.012649896919076,-1.913688403448841,12.776224641495933,15.512527281732552,5.240258610920957,-2.947482341459148,1.7066301553210526,7.445803010725169,5.932490935484159,13.674317996496072,33.392052686650786,43.380689579385404,41.59509186095785,36.17013484936402,14.916866638715238,-21.218229701422835,-43.55301073162619,-46.34281494875542,-57.10788812393007,-74.31732940749711,-70.17624204379314,-66.34861811135963,-79.0024028580278,-64.01049880042237,-61.645374063768514,-131.16054787022836,-113.74227422020572,158.73814741054403,621.8806395394837,1021.7343049848009,811.1657412084944,-265.25546002576385,-1208.9627983527394,-962.524082029604,-190.06797892642146,31.698595800008228,-45.6172885051667,53.48349194695261,105.17604318938653,41.71686217460961,54.10185225745668,69.91708951810918,26.75545573551578,15.130700716187945,15.951062827274917,-5.172969424816494,-6.72290804978269,1.1991660378514108,-0.08976418456406066,13.219418360161455,38.0338821461465,60.81640026557065,85.4171577167973,102.77218466930387,104.55023467645101,98.03126761960178,86.72941717763266,70.29605917460724,47.97372279815656,16.617306581106764,-19.51141989605895,-49.51610607270445,-67.2780059018321,-74.70566885114084,-76.19474847020501,-69.8320878796813,-55.63097690638146,-45.70187496750062,-42.705847114582554,-35.02083853099123,-26.87397641065001,-28.014389200325226,-25.768161325510242,-11.452688193654406,0.2625133441613663,2.6416642345822297,5.174151236128589,7.091293751337174,1.7756695826306288,-1.7735024313855767,2.3133821240019543,1.6142566692956617,0.21915154249171565,17.197716363260753,38.04718562463647,39.72229782829834,35.07179732671981,27.22207155226093,-5.01780795427822,-42.92422404219542,-49.23631193400189,-46.637644898824426,-66.67942929748631,-75.52325825702607,-63.46545793603357,-76.16613307697547,-86.93346466526988,-73.9849044072048,-126.5228732559851,-187.54797664601443,-23.197332720786648,412.77049566003825,921.8946318924507,1060.4783209649036,320.8589134134885,-848.0216234925657,-1144.7932752522104,-450.8571140363148,28.744923966892568,-42.23496030983259,-38.617154425802944,80.35348011639645,46.86494642287221,13.280644729960795,52.39811350141844,32.59831303172682,1.29286365615733,12.205171753877021,0.9727629239343285,-17.110892275556576,-6.380801546256264,0.3528026814223111,3.540217630107076,25.23034618766799,50.27494017904545,71.29723330759275,94.46764661005378,107.50779055304342,103.08243831476864,94.07031785684885,85.33655027052359,66.59971295029081,37.249358327782375,6.502682932375997,-28.93043420015335,-70.81315165849138,-97.10821621037422,-94.2453283602755,-81.83672625196789,-74.61623246236188,-63.3848180212076,-46.27673145671345,-32.906251011568074,-21.858560210277798,-9.367827047275625,-2.542534023942302,-2.5471990699659095,0.00676979585926496,4.9797632260310145,5.014690457478784,1.1563189980951432,-3.874624869425464,-8.102088966964459,-6.268509720668945,-4.07934920448446,-6.885026810788647,3.507055622378342,30.57509899458985,43.67706389431848,36.97721169441567,32.81819840326637,23.18968865741457,-9.624287473422102,-42.18235570285813,-49.132215632789865,-52.38473530737491,-67.83508446216385,-69.10240767082162,-65.80012608008366,-85.86527711421925,-87.95765718479724,-86.55288425827958,-161.38044192049776,-186.47667620993434,62.2744862515932,567.2767359444551,1053.6146562377187,980.0694753455427,9.875974861847794,-1031.0260614712813,-985.6933199734618,-254.21043879154178,24.28976125796607,-81.6680564056857,-13.692357623023355,75.28950725613623,19.614717177384417,12.058391357252642,44.77027112167964,19.433572354055762,6.198006934809808,15.09225941124738,-1.4037442653900223,-12.135095154139728,-5.0993144679356615,-0.30580173697164703,12.820186076540491,35.58887390271161,58.35832056977338,82.59744066174241,98.0759942064632,98.02071431145829,95.07996268380356,91.31053241577179,76.82530221316688,52.69132746400622,24.50492633785168,-7.352248025158721,-37.36908318692813,-56.501136955339376,-70.13383884871791,-86.6964318616125,-92.77674255883265,-77.234108881465,-57.39769454297121,-46.869203071922065,-37.441944910471996,-25.90061397615151,-16.521944084592292,-7.474327908374754,1.5948958812120875,7.792075296027752,11.180090318827155,11.629873424084698,8.773676159550927,4.891709073182727,2.6853803541321595,1.0176753824399718,-3.6403540776276557,-7.057445273402356,-5.216622408597788,-8.764541885735794,-14.642121925785037,1.1473618360419406,28.983969402784325,36.42992628661009,32.076677792548395,32.834107888217424,16.843775104378597,-21.732508593819794,-45.75830400779179,-46.35441997808337,-58.751571862825564,-79.34267798984443,-76.30468751794274,-76.88421937518292,-94.4310309580005,-87.85079657520426,-109.04972380420364,-189.30080609005776,-131.01628220092255,226.39116551747253,769.2416978026159,1138.7068617398957,761.5389434496977,-388.38387831931647,-1164.0797511882554,-776.3188435590911,-99.82980556922617,-5.7894451000753975,-85.35077313850896,27.45028625154353,64.21066999252824,9.078709497582352,35.104861106921035,48.36291711525149,4.787438328117458,-0.3196707748183094,10.576403829820421,-4.771266294079717,-11.236239689516733,-4.023230870271541,3.3969754855447896,19.96363740545216,41.81699109334251,63.36746960525716,87.353885762202,102.37712950607752,101.64247595111289,97.28202370208396,91.07555303461575,70.86493974993152,37.987933037839355,5.62499252254934,-21.767088299560033,-46.773829909512365,-67.9654261691702,-81.03099355890475,-83.40678978709069,-76.17236502425476,-64.05106770276626,-51.95030968855422,-41.94870086132452,-32.78068248833699,-21.81387192116791,-9.79095641286991,-0.3780042371285681,5.064928335416461,7.917092613559163,11.134645702571058,15.80354603010602,16.155800731757026,10.42880833500265,8.786791265383258,11.490115996487964,5.242709280565405,-6.14618454805839,-10.747993781615431,-17.589736546466096,-28.44348312357404,-25.31286001812706,-16.19532225839935,-18.422641879968207,-9.869702985208594,21.731802936368204,43.779354009161466,43.2321164901381,36.47649523762878,18.483980455325906,-16.37584156084493,-42.64687225017651,-47.51217140207892,-55.645181023953086,-71.45354018052262,-70.38485728210341,-71.02619207318565,-87.9123913917225,-78.09025295888063,-79.5866567872325,-146.34978844671176,-115.72241335709288,183.99766479512172,686.849485940444,1119.1788269819037,905.4395484563319,-213.95367931359831,-1209.8292217458547,-990.9222379238859,-220.6736297025892,0.8837199815221339,-80.01585980709432,23.975737679046745,83.46777785800423,22.38262370878358,42.44076968145475,69.1175335306094,26.429781160987766,15.885040657092564,25.557009953310555,4.876455997091536,-2.23060470629168,4.29953581334918,-5.70038670550638,-4.292716173541269,23.473871557215595,53.3865613230141,78.36342186768417,101.86523644046616,115.28662258099766,112.39239335318894,96.28106774634776,75.1546303796839,55.50071663962909,31.546882931609524,-2.2284955883840345,-34.2019878236944,-55.053438344497195,-69.77290037950576,-78.15385115586022,-77.20974975114768,-73.38429965929534,-68.58559950099792,-58.93909356405557,-46.3984380464317,-30.622871044683947,-12.172213172798152,-2.8858672311507227,-4.116334303430342,0.10893237010009038,10.32946413312583,11.50804327704861,6.122991821635366,7.641626051881644,12.6812974041254,9.39141261964956,-1.7377553126097904,-11.22613008896786,-13.585570117466276,-12.418720292618357,-12.878129024716253,-11.635500769525567,-7.5268398349087065,-8.30673910294548,-6.874710167752896,15.097616504152846,45.646415123819516,52.64913453119638,34.57718390405515,12.569452778231707,-11.729704138156427,-40.41665410439673,-53.005182965884636,-51.562262177614095,-66.60134521808654,-84.79168893668303,-85.67151339409243,-92.79511904405001,-89.11856037676391,-71.02265843273489,-110.90690740647882,-127.93582865513169,83.31641956514679,535.716118770807,1035.3258451717531,1098.7853872299238,208.81897571000323,-1027.4396885455872,-1237.4231540580072,-484.50257916049435,-31.7217755460019,-67.17369674794176,5.062172792973016,104.78496671913601,39.975212057582645,29.955711172255022,76.15769945357236,41.46001788167476,14.62867304212109,24.318515675925482,1.2110492900173764,-14.75213727074538,-2.807152846383807,-2.766437209121168,3.654428219822158,32.07156506922862,55.80455140775284,74.91800624322022,99.14266794002512,114.6788525522201,115.34362614232856,108.79765175812196,97.06655241266031,77.98937696740569,50.1192446540312,13.705713157744224,-25.551979540280435,-60.261316535586886,-84.3634300359055,-89.97624234090391,-79.71572469669917,-72.77544538571556,-74.94824792742702,-70.19056882903273,-55.060559927446235,-40.26970208883051,-26.647470184854043,-13.82240262599504,-5.37237561119715,2.471803914716615,11.174802340416592,17.277342290724746,21.35315966512572,18.167010961044987,4.87155542001567,-2.6564076505166607,1.3836524011392974,-1.2479402855066297,-14.622675406068547,-20.63626209833341,-15.451904334318893,-14.692896882018575,-17.7182394200072,-4.172068409744071,21.85573413850395,34.6023975494291,35.49122979069831,35.18599334299114,17.986346036744916,-17.980440942548093,-41.6403761175978,-44.15021457957203,-53.42507957618426,-70.63455650401286,-66.22946373654959,-61.37511518487758,-83.02212906547088,-82.91512165168595,-78.06523876626929,-136.5922579905228,-122.76361496408495,144.507568852288,614.5570106249493,1055.9195287033613,947.0933214593886,-78.78517273550361,-1153.6059041323997,-1066.238867220484,-274.9038967966784,28.33118694072334,-58.78635078441146,22.709539106248577,103.00704806762305,47.508903704355944,50.13739787559406,66.0147491637326,13.331559902097736,-2.7859658286563374,13.068825964412959,-4.662663229498811,-16.063038919107235,-7.966745423456835,-5.453596034236934,7.382410147090994,32.364785732982156,56.19227061702656,84.98505704093776,107.46035595904574,108.95760136615759,104.71861350609603,101.6147341453688,88.31300062746118,65.31008492346399,35.51306567610333,-1.9646715174965896,-37.98443467551371,-64.25821829677523,-79.96790340813358,-84.34852208786569,-82.0129471127992,-77.38099648368772,-67.9470721538298,-57.81344480847748,-50.830295071173595,-39.09736140348682,-23.632496408367523,-14.351700634624642,-7.477064960311544,1.9442812819559627,7.4205998024941735,8.519094007437495,10.700285762837417,12.1830917164583,10.90230273384439,7.982679729641946,2.7109819219943994,-2.6958170537494777,-6.492693731980296,-11.970123502789763,-14.918506547021739,-12.028633066143614,-13.774002402336057,-14.105435097695773,5.98234671789109,30.30895152574338,36.81785668288418,39.67019526710898,38.63698160990821,8.789825839469962,-34.440433557088774,-50.8097991752417,-46.61008220575427,-54.41276930552318,-65.91875724080984,-67.20232056929581,-83.19867301665425,-97.1764852404357,-83.00200193862531,-116.18727644954247,-173.66879702871506,-36.29299015019549,375.39309522708936,896.6929139220275,1142.0873437677244,548.8823178753412,-679.1013071225219,-1237.2521265805128,-644.6239493048539,-33.797714425148,-35.146253791277665,-69.73867915532114,61.054116264995905,57.02401419825065,8.819042127705236,49.016846767491494,49.47013966731449,14.553234486397265,18.20525944621541,14.333695862658914,-1.1697239550127314,2.4782160622740808,3.5324259538634664,5.301620811296253,25.923008951057383,47.87183955633507,63.17268482321606,79.15719231365158,91.86129480755474,96.85297878652767,92.08725641966186,77.79247164256127,59.853344935145216,37.324864324745555,5.823360271454913,-28.030510435169955,-55.019632858525384,-72.63920975576968,-80.89793465591771,-81.1276931635384,-76.05211302026068,-67.25231708788348,-55.14523899192774,-41.034358923582545,-28.28620322279233,-19.150410277692536,-11.723442045053314,-4.4789468639730075,0.9322144661686451,4.479596521525135,7.906113208882785,10.098301729167863,9.239629412645748,6.541509983334468,4.1719609259461725,3.6899743574145605,3.662213826583514,-1.6540047833354983,-10.87986191253099,-14.89867728024305,-16.176430510654548,-17.637069352558107,-5.056930730027774,19.645812397636348,33.152651458797635,36.2533671922835,38.454525511864,23.837576695606394,-11.160382316745679,-38.061353586130934,-42.83487639453517,-47.501690168435005,-63.1558017507973,-66.42047164293288,-63.838638717192325,-81.50216330158379,-87.88444414288708,-95.15069280561818,-165.36979981431884,-170.61798480849072,93.3983198839963,595.7993422431332,1074.8919180103894,1002.3426527397264,19.63481609559878,-1060.6277689640144,-1038.7237426510565,-283.6882747601523,27.154239717494114,-71.71113250602308,-5.0006705999667815,85.36410833004203,24.9734140318258,13.803904294560375,49.2847955958641,20.807569133679067,1.0542664477596233,12.968735366449277,1.4663991134886043,-11.376922298523992,-6.213408520689218,-1.9266850108271107,7.094009635923504,27.184782985847132,49.63472390765151,70.20654634275327,85.39283642412255,94.48411387821513,97.81524307797014,91.1199438360743,76.41126412671316,56.69350424850022,28.19807119873684,-4.293979639024245,-31.408945634844937,-54.68915289768739,-74.19737560590045,-82.07317787052892,-78.27798782387684,-70.87222697864782,-62.370992985408876,-50.35064119682914,-37.51446134577312,-28.60833766673788,-20.366393847778777,-9.482875397034977,-0.7232153718406025,5.37989580531605,11.299219207617153,11.039212958613952,5.1276884126058215,5.293902714319518,10.095910630646863,8.467072757515567,2.953911763852462,-0.9801309459772298,-8.993908412139685,-18.33740033083961,-15.845521184833022,-9.275883506131391,-13.331162889653362,-9.956372975370426,14.71472041495677,34.80802436745397,39.81634180001833,44.634112144985025,33.97391962032348,-5.817669984752909,-38.77901652976668,-40.708988616855926,-40.72206522795875,-54.09075026842677,-58.00324958315568,-64.20007073680353,-92.95813667334275,-96.46349908150225,-83.85161077937852,-143.30366217067447,-172.73329226394762,51.96926826953069,534.327791692985,1032.0981525932195,1037.905640429103,132.11773575261276,-1002.7573403098622,-1112.8481047246087,-373.4679935830728,17.450732570511374,-61.11843241918199,-15.795435237190603,87.71140953980607,40.03795009289887,19.01840681728267,54.559218543243155,35.01442917817011,15.53903492766478,21.69993116682403,4.755239876686756,-9.93862240123899,-4.9676455780310915,-1.8065839799578676,7.415278346666415,24.507580432583623,39.50855458813519,62.22745063892584,89.65758431389352,102.15106387331534,97.11609338288416,84.13735287703693,69.63229193308186,52.997789939229584,28.97540267379187,0.18971716116260806,-26.213429864456856,-51.162593030436526,-73.09182363724925,-82.57633711081726,-78.8555924944176,-70.00356795421409,-59.4302350301338,-48.801123676704876,-41.16225524589862,-32.81046179685861,-18.957777033584854,-5.901701813721566,-0.6063923577267225,1.1917416331582658,4.439114574801911,8.186615623953411,11.393102534500494,13.021800461235816,12.613394302166725,9.822082593006698,2.3022941552411282,-4.227295926268569,-3.03057199513208,-4.566225877885977,-11.957562573316938,-12.588878682607648,-13.554498355474077,-17.407958995084492,1.2909132509192105,33.51749204981438,43.21896709430246,39.084825515030445,34.69872192966224,9.815406878373755,-26.582042397718407,-41.014733829221186,-46.324629197207464,-68.96202803151944,-83.02069813906735,-73.14852357200449,-82.18213347034944,-99.14514130404366,-81.18621175314797,-101.31225397269313,-163.15510659143064,-54.48729613605386,332.61164367494143,855.1570744869533,1137.4329753196475,599.5539340400089,-625.5836184792078,-1251.5023134122275,-696.2992769881528,-45.98647136299165,-14.041229719490865,-57.94833865080453,69.2259302435134,73.34220260959982,21.025687195614267,52.845037292368595,48.722202100453885,10.01085033192469,13.13204859547793,9.474242968785125,-6.049652351407024,1.0463260318532548,1.8057383846609945,-3.584015158864137,13.489540764334162,37.83570751733239,56.83083245773305,76.84022698543455,90.37487577434456,94.09654056853866,94.04039934481203,86.88269713531284,68.82598999419669,43.1929882719855,15.192050767185352,-10.20655802235349,-34.763536892443106,-62.327827327013594,-82.35194966207096,-81.47585276171864,-68.49719082259116,-61.15769613276274,-58.43415003808809,-49.04638366764796,-33.28319050143737,-19.839746657121957,-12.200817060091936,-5.49185779188387,5.41498884532062,15.209431831822378,15.190827996046558,10.427947166362024,10.470877821051486,10.096470706219645,3.2458936108204304,-1.9869558959294018,-5.185338015854107,-16.585455134461277,-25.637889075043272,-19.31817865994573,-16.349381311452248,-20.931419801329664,-3.202259283940033,30.2994645128531,43.34812483782525,39.33699350635672,31.800374917741895,8.11081019041169,-26.320160328276632,-44.504798124067854,-48.468902893516905,-61.047973487247845,-70.54279560461529,-59.25077744163115,-63.30547927493481,-83.95394477497528,-67.4919632276185,-68.11043851632952,-125.24558765082142,-55.984280740078304,285.42706505349634,801.3331454876319,1139.642341115071,685.657955804034,-555.7920381802603,-1326.445577654676,-860.7938671827619,-143.6133848612171,-16.55593274928475,-32.39588167463887,93.45762560277481,92.97812764512264,34.056825620571395,69.93747566876999,68.78694171350794,20.017019608345752,19.191720581837927,20.317157985447317,-2.1011863671711266,-5.547181116053207,1.7751460130422316,5.850911297033466,17.447104357188525,37.284816328961554,63.160526003532915,87.20793925144307,99.5227305916225,105.51996923788352,107.47794113008598,97.99726555940435,78.48771730048408,54.59751743824705,27.086188612235457,-3.930763553829909,-36.68457638899205,-65.29039877005462,-81.51258293450815,-84.55902393453778,-82.60497980297183,-82.37594297359232,-80.00776523293048,-66.92158229455345,-46.25746827500208,-29.06886679895856,-14.923861048512528,-0.5570363207703082,5.31602493902394,3.114639919608102,7.972421831118888,17.329439583668695,17.242471740345266,13.848740854450094,11.103422731882237,-3.940370542553854,-19.99963653056424,-13.760876170177465,-2.929036404407954,-6.407944990117329,0.0013440076189308314,23.392577633078673,36.66229782911361,38.15114459650301,36.2471385140168,14.141538220846448,-26.984240823319706,-52.91637357599514,-52.84051522501754,-55.077174012098716,-65.65394701678315,-60.97226857378601,-61.587987963367326,-82.76208580702216,-73.18233459054272,-64.02543041845391,-120.08902987899624,-94.70390989376793,179.7750706117381,650.8319975774573,1071.2811273355642,869.1680855753168,-244.79908034052937,-1248.860250212531,-1026.9208768511899,-236.23049580264228,11.991552551782512,-45.044592557828665,65.19407566566056,113.43181094970728,42.64109751382501,56.25761206684,75.4938175241796,32.50591048828161,23.86328167428722,28.917217612885153,3.7202519220936807,-7.391344872463121,-2.985653717905576,-1.036954750942492,15.272356443640803,39.970005892320586,60.12288293213352,83.07193497613376,103.17314116645748,108.60990648835303,100.95662066948817,83.83632776359885,62.81666656795279,42.96148114686101,19.044553899504358,-9.994797946832861,-35.63244621876793,-58.21022137445604,-79.9960858952102,-89.89225281404767,-82.71023411426543,-70.27733022826988,-60.5643746281478,-51.20809126470903,-40.7620783714398,-29.026485769658304,-15.493002549189498,-2.8441975452488037,5.283880785649789,9.244573572686246,11.850427179514048,13.500084295984713,14.437151055370393,15.23001277972066,9.320491278104036,-4.883728951998727,-12.448024843705863,-10.394496921445779,-11.264985362717313,-7.6137220539166215,9.352285382305048,24.1199152919428,30.569629551882826,31.173113591967244,12.513208250082247,-21.46250465912749,-41.448399008682856,-43.891517640904695,-53.82593627936313,-68.75984174262028,-63.79760453391131,-60.103274893574095,-77.80024431489846,-73.16335217293799,-73.78163973542135,-145.60247769281648,-144.79112614034318,117.67747934088669,597.4782855284982,1043.9028501230493,913.5637732763078,-119.1684398505574,-1139.423788417798,-992.6184945934954,-212.77947266331407,41.79904611270566,-66.51852074080524,15.178995940765986,91.668771497168,30.74350143924435,35.41601615003792,64.47231295862929,26.136790627946468,11.458903838328425,24.16924443605309,8.005643679352577,-6.252607529446193,-3.2821816601857465,-0.10301348433545598,10.727234436003421,30.423562545811457,52.20654285644872,74.81999681084962,90.26021179702539,95.42109765711598,93.99272897298692,84.59326772262588,67.78793497589524,45.327516841548245,17.039571717647327,-11.888644719284459,-37.14400473352667,-59.37933350180356,-74.30116135668955,-76.17900407841783,-69.03682894827499,-62.588758509384476,-59.4036029864254,-51.71147243595103,-35.031828888335525,-17.84219221630594,-8.673683204951264,-3.697620861084861,4.157846729820587,11.112056095564494,7.253985212941938,-3.711122083546936,-7.4366971667542785,-5.785626112551634,-9.09466241121894,-10.349146093064569,-6.790324297581311,-10.628541813341043,-10.645076653380197,11.641586006804644,35.40108433072763,40.45690286547753,41.168092220835135,37.01029725408432,8.126423506728244,-31.82367497029896,-48.47735669945875,-46.24881315148255,-56.617858295575786,-68.52574923049178,-59.43165357286783,-63.72240996691197,-81.11102028262246,-71.53959837928869,-102.68796190078167,-182.59512683176257,-97.15339598501939,275.96825657369527,804.4155821668255,1115.8587910516803,619.8588836298499,-578.4742958010582,-1206.6748360409492,-665.7106055197921,-25.590837800816004,-4.216263588914835,-61.46479163870623,57.137355756277756,58.4091074521832,6.291743130904917,43.34475957954622,45.18909896970998,7.466599970942424,12.80170257318348,12.517611991463767,-8.180324961320693,-6.57325581194604,0.9264162437994372,4.117053062813071,22.50262741599943,47.99403403356753,69.25743731357231,87.35280798108978,94.40493001581038,89.97318766608637,85.20624520155586,78.04504978972534,60.71714368680394,37.01848482381448,10.544795295260839,-19.10457426739443,-45.337029199734715,-62.84250423266364,-74.51342816271418,-79.42872425683788,-73.95680712955286,-62.2123842359232,-49.349124688572466,-35.162495757912254,-22.498128611901393,-18.380750775202273,-20.820322741655986,-18.13973570615826,-7.738198970602092,-0.5408539093323803,-1.382399490351638,-1.9940278698038725,0.5837972554962807,-1.2558268923677005,-4.299671915668817,0.6655543127835504,0.9689472637713088,-9.846838616155102,-3.7688384008095226,23.49976744013526,38.69731794395313,40.882609140889585,43.37006342165571,23.83670756217216,-19.412919389814775,-44.5290930639467,-41.96641938203595,-47.38501383714937,-66.15668551090599,-68.28772422100558,-67.12333536171111,-82.71069331128834,-74.70089031675404,-73.47761466025263,-152.51200558828052,-165.60549971359782,98.98749102562442,598.4378795378593,1053.1172160233978,922.9837469800623,-92.97415380285443,-1102.4247091723812,-975.9633072036054,-216.82268223311937,38.169084666069345,-70.09140723277133,5.390692425276043,80.88901137242536,19.919357303458266,24.70673438986522,61.49584965949902,30.209286861268858,11.84543966395108,18.386618291734962,2.7940713523298752,-7.889980500697199,-3.568062753735002,-0.26631910126710245,10.303700408458074,28.483777970792683,50.08797036539437,75.41646617976767,91.94937717628244,94.58569664461406,90.41447088443954,79.76394784445401,64.92492719152195,48.54816751626352,23.770916486813263,-8.040161946852272,-34.37080341128188,-51.90260198895478,-64.25982969826738,-68.80215133304944,-63.67326635157201,-57.05547376624658,-54.77567223187087,-49.28654916112756,-35.13866713513167,-19.077598990418515,-7.7487433062730915,-5.069630597723371,-11.069826452380628,-13.347471707297288,-4.26914741824927,4.159822432979258,1.9838165614599692,-5.7039865978274555,-9.77673401056931,-8.741921825482507,-9.455799254013849,-6.140101686503089,14.422797092553981,35.52226479188758,37.752925366142726,37.5362804324195,37.16222317360398,11.52515057344829,-26.738612276824604,-41.6500919391075,-42.30042310926211,-54.64843822752106,-62.727420697107114,-58.968963550736525,-74.84674225063713,-87.91710808356147,-71.16588388360427,-108.42059234831164,-181.53471423324663,-67.58979966782974,329.9182371500209,852.4730414696851,1088.3395688014155,480.73778987094386,-710.5541542298103,-1196.3183966434806,-581.8612075347976,0.3788670938474983,-13.657232205336122,-46.54988806526439,72.76215431645026,61.007528531405406,15.681625225672008,51.323889261376074,42.396617734105035,6.8318090815484,16.429277499408993,14.079046268298034,-7.268214470884158,-6.863703806248821,-1.9916732437780738,1.9370585885515332,21.5572132763206,45.37257492996295,63.920712979540724,81.08437188608971,92.19257785945109,93.26613708919491,86.81768499149439,74.45427033793267,57.62082847583774,36.49954695170279,10.267858759748291,-17.05275808315515,-39.579456871090784,-56.06131168739536,-66.16902160359702,-68.24636768610762,-63.91020589045532,-54.43394632180939,-39.59315781722664,-28.53634927363625,-29.824062760361734,-31.842290568472535,-23.220887861278776,-12.946864388599717,-7.329487013362218,-2.2599652328839213,0.6680049436246378,0.9082710420330358,0.2946871331727685,-3.7211057168832173,-4.185935607914166,1.6388883117264132,-3.1787618962928583,-10.720765609016453,7.521054866093011,35.82528974122723,45.29183976722785,45.368211919615646,36.536734257076105,2.4720019468957233,-35.95130143479622,-46.65230205748014,-43.94722597054788,-57.585233616596234,-70.39327266753133,-61.46480763367586,-65.78198564058181,-81.68793749862942,-69.64331177063994,-95.71544604206557,-168.50606373267908,-79.32820069379716,290.74840767656275,808.23005423104,1102.644276211316,591.5630168225839,-613.4190967914869,-1239.090385756454,-686.9283454417081,-31.69291324444511,-0.23691456559591728,-54.51641327401653,65.3728748498285,68.37342771724927,16.97411296669215,55.00700990431622,58.11925390291238,17.907683981436236,17.483767809653507,13.329298585166914,-9.088536379147445,-9.182543898015506,-2.4362260633574095,1.0842254699135943,20.760596859533784,49.22732223221783,72.06412920173398,88.70024929587147,96.11429707368059,94.35327476587797,89.69856477883329,82.5927262475651,69.12173281875675,46.81793366699192,15.486440094141841,-17.9630077422342,-44.5646155089664,-65.30921656787343,-80.43408384752183,-80.31172171460975,-66.11426215684055,-52.992398781111184,-45.478117185641445,-37.369383604221326,-27.196383648655857,-18.151259582894937,-13.075701976893995,-8.153088436431585,2.0762375072903936,8.506544311568376,4.647606034845161,3.9420211777792087,5.427834336642906,-5.7965704626863985,-14.101107081567012,-6.16280714655505,-5.857351158932893,-11.491838639195016,6.60034773560858,32.71135898597593,40.02974139116103,42.015744900100636,36.01177465119803,-0.009460447964851681,-39.66274724591251,-46.36789107801273,-46.59476914264522,-67.97520891003826,-74.59652182149598,-61.427472132899055,-76.86379150338477,-86.70274793099536,-57.6411891841807,-83.71229314251818,-131.14424037022349,16.945484051129085,421.6908473482348,926.2574918052226,1087.18449604332,325.1281746967861,-931.7193899394294,-1287.369371648209,-565.1644463612977,-20.192117034835107,-33.10239620543991,9.083977810285276,130.00934802989423,76.49974135475797,32.11167286481169,68.43452997504838,48.75007978762838,20.971463906059157,29.177475908098863,13.276251415623673,-6.1877557821084945,-5.391256549546313,-6.549655228622022,7.962270053502834,36.909091570941115,48.203621880040416,58.90532057529829,88.65715477372225,112.5990433249396,115.78480026355074,106.36172757839998,88.58382207617592,66.38643575819108,43.987693968525754,18.80649767419215,-13.108671092610907,-49.33246612920855,-75.23557204458243,-77.4905037973571,-67.72543566297551,-64.27263298214336,-62.69524837667677,-54.87302534123435,-47.38734124320093,-43.3789264836837,-36.1094071569528,-22.263020800275616,-7.747071739812975,-0.9980737056524642,1.2507807708392598,8.872736940063518,16.127697322675083,12.959053416388466,7.97952014397303,7.276919160417011,0.07803852059615402,-9.22307434857374,-0.35894807334143763,21.39142059462884,33.617813145776935,35.400873381622006,32.859109194132074,14.982134498210213,-20.818819413505746,-48.75245343695045,-53.66659595094696,-58.75977776879891,-70.10568354407955,-64.17122148495524,-61.44398240279605,-75.1303506418997,-63.24417132530105,-66.76133248275164,-125.76048463330032,-79.11738134405246,214.06027092906407,694.4375870867317,1091.5344615087345,787.9337766463727,-397.6651916853442,-1299.9719586792341,-943.8115939591712,-175.55570499916763,6.020291479396732,-36.83105428783715,83.36018292800917,109.00665851141481,45.616687203358374,67.7670201192632,68.64935813702324,21.542990936111305,19.723643493376102,17.30776845612022,-9.570271213522954,-9.019229729534576,0.8274954844556319,0.926068668322042,15.682899569694563,39.813172457185466,63.29190128505452,90.68472001272411,107.34407913478194,106.0981724237859,102.85790918454865,99.21678881325514,83.81676327411714,57.39012535140641,25.831310705920878,-7.601405522322025,-38.2625140298995,-63.105324097617064,-79.43355228094609,-83.47627959455289,-78.3009284200784,-69.96464426685712,-59.231472371187664,-46.5244569304647,-32.635289155354904,-20.018236694201153,-17.430360646444242,-22.233215982628913,-16.15540342810308,0.05828475536679356,8.000535837386032,9.31115047400359,11.795788426444592,5.941668202883412,-3.263866135015409,1.4768017652388412,4.494743474885427,-8.226674210295007,-5.629651405866937,21.660589905369836,36.53696997621803,35.27158494142946,38.23744546308093,23.14114766152923,-22.24515728591914,-51.336481714489615,-45.71711372401364,-50.63663230103698,-70.36402984041015,-66.6137418314663,-66.74641032827563,-88.11421381996782,-75.9679660908713,-78.85917547419109,-157.34021658257322,-127.85027855682972,182.29230935615558,683.6496879566328,1086.738424819945,824.153031364288,-299.2212372427761,-1204.74967680493,-893.7582302280398,-138.11162788725133,22.87113223737029,-71.78898935928939,38.09376687901312,87.48129253631484,18.993873326945078,37.27167984630843,61.30222357896258,20.903406223216912,11.495223300003012,18.672657191031398,-0.9588677921230717,-8.426924574757,-0.5081710638618286,3.3975681680048986,15.85199764686407,38.51222606048065,62.46615721254949,85.54978155952145,99.82344694636762,99.40670771719753,88.9767843793575,76.460276918311,63.32342232446691,41.85466162579846,12.813190383309044,-12.325714315150435,-34.36600027427341,-58.43847239373496,-75.30454516922528,-76.8794062489655,-67.5948251698617,-57.5727612962439,-55.73007854636738,-55.29315590774554,-40.82800711597996,-19.345961902964454,-8.75639038678801,-6.230355876688307,-2.993823622657235,-0.2812364855904761,3.265240154637583,8.518957674036095,11.174010793158583,9.96045646024129,2.266380775185592,-7.965385739130808,-5.922842725743903,-0.9011319849618005,-11.30704764189668,-12.398541560739728,14.469484190124664,35.70526079848809,37.11731984260596,38.10362016327113,26.654906230192523,-10.726577635960624,-40.618630192187034,-41.814431925248925,-46.51014941285423,-69.12725849283272,-76.73608379014284,-75.89417643639024,-93.39700108651212,-91.24540481880308,-89.24798685194882,-161.11634911324109,-171.02168143687103,94.43263175107285,600.841281179294,1076.5789837949224,982.3757382122803,-19.41337133923375,-1073.6625773085168,-1004.79622067434,-250.061402063243,26.03665785161587,-82.52091944312772,-8.445790622702802,77.39616039863274,17.899320408074466,20.043466703238252,59.24423536296334,27.804559166145424,12.366935739697574,23.334402716397722,-0.28894116017741267,-17.455099201113747,-5.7419398302991125,0.22840236102587852,6.907293946694075,29.396012153638495,54.301986894825134,73.51646518237332,87.48081300805873,95.79805403944007,96.88222729549678,87.07751372842485,70.30344093182005,52.13548896045249,28.45780596703162,0.7165002949342569,-24.990860326508237,-53.89615873324365,-82.09556809593967,-88.69374115315125,-73.5657762429311,-60.46610374201919,-57.48658032423235,-52.40751109828169,-38.716166420305626,-22.39933224732534,-10.622993885621508,-4.210743046752299,-0.7547845292000801,1.1620661608834641,4.117199325433724,10.015828437052065,15.19543457180805,14.966699827586341,9.651573093957603,3.0130557090775927,-3.066014015039343,-10.294903476340382,-16.116495321203395,-16.4570837108611,-19.608434055584333,-26.21737673506027,-13.543814054656135,18.45659478350327,37.08912400968882,37.462246976065984,37.48383917037582,25.386660806108125,-11.362834715248967,-43.13096840780823,-47.47075883545418,-52.673378847707966,-71.79831840819493,-74.24796413494273,-73.21286069355031,-92.37410550315924,-89.31031745061058,-94.41036780023882,-171.50813337884745,-156.78025623902843,153.437968954215,689.2161094421347,1135.7485795355701,932.7050724709918,-148.84859618456213,-1128.917713013656,-948.1775180531597,-211.25932170337867,5.248631835261492,-90.70991221661552,-2.7103572994782184,64.08107224526593,7.36160825207558,19.945781707256693,53.06266634696717,22.973137050982828,9.936372884076526,15.03445424286354,-2.364689299409183,-10.638129197931727,-4.309167458646869,-0.6912951706043149,11.361278339432175,31.508344899647533,51.31054090839437,75.12238898714769,96.88931286684613,103.2450797365747,95.5416809937896,84.17553193329398,72.56398107482892,56.26034363431689,32.80789083653006,2.162270219623882,-33.62723288130233,-62.61327422914308,-73.95534935327603,-72.37442177214415,-66.15257144462451,-60.68829277298445,-60.32153509306793,-57.4101947103061,-43.51399190029133,-28.805805113494408,-20.788152468775557,-11.600090319283908,-1.8923294413684317,1.3620026742617526,3.7122038121548258,8.672450637952828,8.150484175767062,2.424559586896507,0.30494731133901176,0.566695251283571,-0.894484356896708,-1.3362161973133055,-2.8192683299295567,-8.448932476121255,-13.412151222561828,-17.703005832993327,-21.413359423510038,-17.54011942615037,-12.914411487615425,-13.060425550547123,0.9298068043293091,29.099249540785998,44.32915537983356,45.14004945568308,40.488456678304374,16.100958482033725,-24.268677706560297,-48.98242141233934,-56.77784972967298,-69.81619324962881,-77.33453451922493,-75.5427850736416,-94.77751443077408,-108.44699795533215,-91.55531378675352,-126.8396802547586,-177.33516436034498,-12.266864300560911,439.29412494354085,977.3531433432729,1154.1069176712615,443.07976602436787,-785.3723724902434,-1216.09939723943,-572.2598088580194,-27.164125774337712,-53.347003775944074,-59.074563016896455,63.64398373758391,43.52487247181666,10.570045571941785,55.82908322363057,43.42611080015028,6.830229711881767,16.42832559645831,14.238482533420658,-4.056339128623946,-4.4784329337708195,-0.05218330318934328,9.198300708002726,28.0900248821595,45.19037223281774,64.56022661569345,87.62565657310536,102.3633364021921,104.19224919150847,92.2666636977147,72.6021269027246,57.435894659665536,42.23617516936274,15.160435719148936,-18.122103952720572,-44.45622063054074,-61.60667260511612,-74.79413477750514,-81.94810016770214,-77.1320784866474,-67.71676467707647,-61.27432671947643,-49.67322204947796,-32.49480428527705,-20.017566669453586,-10.153307399088082,-2.1404417329828043,-2.558586211789116,-2.8080588358027327,4.892504153697048,10.836292469278089,12.368773111963726,14.669911285708594,15.93204622249686,15.280493922744965,8.854170182416949,-8.497318052083486,-24.45889438003414,-26.28323939304167,-20.048053360745552,-14.707039536578616,-14.663035038313005,-13.585209863680188,2.917834808405348,22.938228630504124,25.998812149943454,27.93282364482814,36.81717734796858,23.311363246854484,-14.787642628459997,-41.133957191926456,-48.51245339608495,-62.57443182304043,-76.58399897517563,-69.2182553660107,-73.95762155162728,-98.25562829324647,-86.38565417449827,-86.36484996372565,-145.54812924498435,-78.03875397880238,269.33445015141876,791.5553219122424,1179.8421319732984,842.2929586051177,-371.25236246421616,-1298.2393633765473,-963.5843535283999,-205.3132331968926,-26.109802922532694,-68.86829731218045,54.889857610793534,86.86381011656982,32.23531203962304,64.0450017223556,70.1636478169053,24.32776134531648,25.08809779778872,25.04524198120866,-4.721746456801867,-11.17111991906969,-7.243486536902656,-9.423727515942431,6.121574645310218,31.877345434971588,54.71822175163258,81.75579737180449,106.79912894117922,119.19545382949697,118.69357292378785,106.88087650152002,90.39257825718948,74.40516946063457,49.69683295657971,7.624661076602978,-40.749483790531784,-74.68709655748522,-85.93548118884647,-81.95872199363284,-74.74707086327534,-74.1715957975689,-78.33578359538272,-72.22006900454645,-55.86771860071507,-46.871297657191334,-38.98677142435347,-14.779713582041573,6.546002176119451,4.42183401537098,1.3654214977246646,14.759799085852674,25.293194691200544,19.678875925298975,8.998625783517602,4.182435556057699,1.560595448705456,-5.780162953714424,-8.186929568979041,0.593673677998547,-1.1645655157245045,-15.420678899361842,-8.30940190734134,17.162926674376468,27.972449630458485,31.066377105039948,36.945326270121456,17.462561141803384,-28.23659260729823,-52.13074607861583,-45.15712163209227,-52.55260512313873,-73.70556317730575,-74.4534357562188,-78.55313575321165,-89.16548879479612,-72.94370617848264,-90.21887842346125,-132.1170062635619,-2.2335042476378817,378.28530791155464,881.2383672092556,1149.3021983610852,565.5775621207923,-718.7687172297065,-1336.7757679793685,-746.071984861503,-104.82821821342722,-53.82923417993541,-26.165844852185742,113.42023716902173,74.34470480147131,21.331576863854213,75.95967917282266,67.98577641235492,20.984906145470347,21.12804870556007,9.816920306215287,-9.794547283220181,-3.3993208594555933,-0.9886820281402962,1.5108973335577218,20.71535185132918,41.10647248863978,67.31471306240837,100.56614464311578,118.78545258062867,121.16257520158317,114.88592290710972,96.15190280581592,72.53564703615007,49.081342964851764,15.910059631571267,-23.9799528904454,-56.434798143552385,-78.86555397715571,-91.84210294316662,-91.16717974170332,-80.34668119007246,-71.26321450282475,-68.32338650422578,-62.70625517073941,-48.340014414067625,-32.00550918200288,-18.525022228359624,-6.263274024361852,1.5312884106760798,5.069254647829283,10.813791487664663,14.969174335697394,13.061330466015841,10.306897031853833,4.979131974113585,-2.4807482091167543,-0.8326539940093323,3.587846586931791,1.0796884635487132,7.8656510865530915,25.0211110069722,29.606119382605307,27.32086858377431,29.69207216554836,12.156119425708223,-29.87313498435755,-53.605896797918504,-49.60809960982266,-56.91385644642736,-70.03452812989691,-61.563378787593976,-68.34016708487893,-92.20915942165185,-80.77590448348352,-97.37095931781502,-167.11444136150254,-84.87458215706802,274.18237098405496,783.7776753963076,1109.3172677730226,670.3859907045058,-520.319165154255,-1230.4584694772348,-739.9428577243451,-58.821536551148306,-1.4562910425828974,-62.224241196367046,68.07410874833967,83.11154788542032,15.458236331318176,41.17238468596526,52.41146862080181,17.900330124785874,15.596272143604352,11.961360879567195,-7.919610338149347,-8.714877289970723,-6.132411968043005,-6.584634501902623,8.29440343988869,30.12101111572383,52.75427042548051,78.58438668680962,94.91871570204701,96.32475019510395,90.66613604298425,79.58825063555646,61.72770987765064,37.841125566834585,9.22489770740501,-19.43557428236113,-44.48838898107228,-65.22256130183465,-77.66112855292226,-79.58767528982972,-74.92424194605637,-65.55925018791675,-52.53737562877819,-40.660839579419935,-30.715635691877814,-19.80814204338717,-9.25476145062649,-0.7966057401733408,5.386627124452303,7.539176598591254,6.126042729093619,3.595657545771836,1.79256815727895,2.527149622335049,0.9184939934741472,-7.487893180022807,-12.022694893192018,-8.742335627041683,-9.153713567163082,-5.757417871202701,13.289730911500023,29.11547191061728,31.58433006676237,35.819927203560944,31.126123765949924,-2.72784249581146,-38.41317294638829,-44.29841169803589,-46.20999090081747,-65.56512153756245,-71.99923876917741,-70.70890310795367,-91.65678461496293,-94.37767375855333,-90.5833049595288,-160.92102082594636,-182.75954598466035,68.06222782737808,576.3866098365489,1078.5293639482325,1041.1322074351656,90.08970644283858,-994.5318061801595,-1014.8080927015566,-295.58268995169624,6.001193652205373,-99.40543387863075,-42.508977464650144,52.818769960957496,8.711749587759591,7.101126662475792,45.160679165715216,21.85861991736683,7.930969451553176,19.44631364548878,4.568202459179729,-8.137598016354374,-1.186673778333434,2.4651237851608805,9.161247342430912,26.475892556405093,46.460878771577015,68.7613438920767,89.5154593944456,97.92962931809282,92.5781851607527,81.55119146981444,67.30757392972774,45.04152841357288,19.900061128015356,-0.462875695699106,-23.914808193745678,-51.606176074388124,-68.53329498778216,-73.74333943252103,-76.49167735727838,-73.24448567172378,-61.69961671293283,-49.11449820020844,-37.22620922003513,-24.491014891575034,-13.664390217509812,-5.349376655977473,1.9955417642710263,6.222737249936291,5.495023237972711,3.4553997528605933,4.505349801940149,5.512697884447261,-0.7107196953942445,-9.589076416546884,-8.814271499619728,-4.510324551602448,-8.876922446632506,-5.6355731360313435,18.24861300570374,36.575686642996146,35.45142864915646,36.240066878068696,34.530844631972236,4.503566688530988,-34.49091810167327,-46.29412000551915,-47.84845309229753,-62.52556877502788,-65.061032666573,-59.83504808041883,-81.68447814451007,-91.22965994332455,-84.36246120091693,-148.47210634424374,-190.36613003454374,23.07506133092116,507.9100115679962,1026.5168161168708,1072.7856283270864,203.7913432765312,-933.6494993949905,-1079.988444722034,-376.7290020104715,-6.852465656611976,-87.90025226407357,-32.34528085985548,75.24238003170797,29.305389823669376,19.73279900071013,56.37535525757111,22.186561970477968,1.1874320070351594,19.02326095926474,6.7250456813926,-7.563307434716334,-6.5902545356711,-14.78283957989666,-4.921010500012823,29.172798170565517,52.62651705823574,67.14880694705278,84.6327395613566,94.58577249353935,94.5039969925389,89.7716029653938,78.02029947499348,55.30680028366207,26.325729901053094,1.9034194960518755,-19.144203678293692,-46.054276531404675,-71.13306729787212,-81.0365215780298,-80.27946764900972,-77.27178476211023,-68.10156182882243,-48.881934672088704,-30.356081884348633,-24.640245313010738,-21.90871798947364,-7.857324206723041,6.566116516041582,8.186946252171051,5.009170189102569,2.7824724709121824,-0.8472867653719955,-1.6873472717955877,0.7749967798742876,2.96201804251346,5.676742922423808,1.9320433036575482,-7.186585553020497,2.134152254044804,26.963473851779398,34.71778446444664,29.59579651467086,31.97067113394816,23.166631869208082,-10.49864718481362,-40.25438285231985,-45.22428353775584,-47.64902114221838,-65.29556238514998,-74.79899904541466,-72.9016550448279,-80.51965056240014,-73.95158554395894,-73.62401354965415,-138.34226467888058,-140.9379883808633,109.9703412445619,597.8421925144488,1087.5909597060813,1006.7365959342618,-42.377786778095015,-1158.6791134882608,-1089.9622829481507,-304.76286280585174,-4.579133902196297,-72.16998713433364,31.8697602761291,102.81345899837997,29.747104841841356,37.64983310359155,71.09768018427563,31.980885845557346,16.257083282882647,22.138485334933208,0.9882396192923819,-8.683222702277778,-3.5608205261872437,-2.785103803178746,8.250055483549616,28.97587913269619,53.36530465041126,80.41214760646973,99.82397950373073,112.47025101937305,115.11612409829772,96.97276348652132,74.7777622757364,60.13087894438389,36.90578200443583,7.803421637748988,-16.239684059689584,-43.800197374926235,-68.33884366921974,-75.80088253785112,-78.85938292248136,-84.59024748552916,-80.35698855666587,-65.86883395393806,-46.35921914099001,-23.998112271939057,-12.739114892260055,-14.887946712165544,-10.065498801829142,3.045115503512651,8.287359252516378,8.56022615131058,8.304276577309404,1.367277569507067,-1.6104310934360235,6.165647606480682,6.413565349334236,4.398094618991593,22.53912685552686,38.117285773454704,27.732208871076264,20.71403502104652,22.884886426791162,-5.176261438780434,-48.91219871878534,-55.915708796952565,-47.6376428879583,-65.38424760645546,-72.25515584265072,-57.762873650659714,-72.86140758105914,-83.79448441947066,-65.55534725256307,-104.31148221550828,-132.00154085476208,51.23276233330387,460.75601299517405,960.7097839619851,1114.7538264883929,309.5224849104666,-965.8173568235553,-1269.011225280994,-537.0570165712943,-58.92142044855349,-84.01877115696952,7.956565287220357,136.14532996488845,66.13414950508498,33.661908460064154,75.46997330678818,44.61069414743197,18.545048200163293,29.504238775670053,5.966583746270516,-10.02917102661938,2.9282627347444077,-2.743126422672935,-3.683250610163878,26.256858638988806,56.178755888421264,79.88829217217439,104.73788958075149,113.33415627717697,106.60711116859898,103.46010008452728,97.43168345206684,73.94846420741737,42.53701419288517,14.883487691783332,-15.276648979008678,-48.05560635498289,-70.18919761531413,-80.67946340375005,-86.33640515374708,-83.3545808049721,-73.42865728633294,-65.81701015365032,-53.62796606618591,-31.236882218818742,-15.326501516660002,-11.814602330296474,-6.146122981838932,1.7968872074986812,3.0469161083816125,1.1339768908622592,-0.7761619008715837,-0.4205443881252062,6.847468796814205,12.103641631244033,10.566823449197408,15.215744689482412,22.831100576435354,22.160137376529363,23.659182849848932,24.94074670403045,3.5669105303748605,-30.77957429148008,-45.813463315003915,-45.89433293605488,-59.93604825160252,-75.27901070475602,-67.89481934679233,-70.64285106441865,-85.02277033166101,-68.54217691472535,-87.99439192845409,-163.62303602724185,-89.39750947811386,264.5550859281832,800.2117646458838,1185.6365488812485,758.0292014249196,-522.0473543940296,-1328.1727407771723,-855.0996722482683,-151.36878230531477,-56.89443498404512,-62.31243552329546,89.88439894193561,88.45717822627223,27.642957391147213,68.8718545319905,64.58190502274142,18.726842213490464,25.214060164377102,18.96184248734031,-9.58500538955106,-6.637074197194047,0.29059468438663494,-0.7409811394386807,16.883258588975462,43.369850190297555,68.27267103168631,95.1212173190055,110.8222052059946,107.02815844692779,94.73867092489802,83.30208165776554,69.23112025005426,45.18630580033972,14.013876805270998,-15.88173644317311,-43.61120946533894,-68.3521977884347,-82.13031021447489,-81.83034652282777,-74.97484038955531,-68.04551893294932,-57.83433226731686,-41.57916515336292,-28.059070054510265,-23.88154912360423,-21.264245600474418,-14.705491128124919,-7.961937735675146,-0.8111714485648207,6.1156488276220955,8.196666911422504,8.900310913704239,8.240166749021936,0.975481999349963,2.6847636131167327,23.623225345937346,36.23734614515445,28.67392381030863,25.694748938955954,23.63513669278443,-3.8608263025010743,-39.1809800707714,-48.61057209679252,-50.02350727004159,-69.26086048831192,-77.74910325798822,-67.33801479230516,-76.90456637404499,-82.45744971851923,-73.31135333589631,-137.3119327011495,-206.58340807140547,-44.256326393707354,405.0350659568003,954.7047245856083,1125.5778858181802,361.4034368206913,-854.5132396021105,-1160.8358841055438,-461.30229784099015,6.293120782318891,-66.72637383113826,-47.71044618520362,74.93793590537369,38.190025735218654,11.565265256379991,56.99299509812104,36.812281250052415,6.061625946427927,17.966396515897294,7.2760025877960635,-9.667914274334453,-1.3477230411188756,1.887346797167499,5.480147103265088,24.553676814706364,43.40206574289294,66.08109884723474,92.4657863674075,97.07175568763266,84.80521746325519,79.17591388378105,72.880573852796,53.685343256656246,28.4568594158257,1.8734313624570507,-24.78667471712009,-46.37262902089315,-62.99815129259156,-76.38385722631676,-82.32414674045167,-77.64125983292718,-64.65588411598642,-48.11446906116503,-31.531767513633625,-17.4216188230455,-9.279329836006958,-5.725273765369035,-1.1543242998155776,1.1542196199180754,-3.7477359712427987,-5.699007346884741,2.6513029929034815,6.813162913046096,0.5480749239631448,6.277877565518008,30.219873551686625,42.7811921480111,35.3940521806521,30.661163453611646,24.107315784467332,-4.791082427313471,-37.17452150916567,-44.95463182366581,-46.90557945603726,-65.82357428349891,-74.90180247108282,-66.65620082701923,-78.5463925600659,-89.11722540786491,-84.32008713280953,-152.06681405536176,-238.97250019643596,-96.28533014567887,362.97613899177975,944.5076728691417,1161.2301221535977,464.6750112567421,-724.805327328153,-1097.2116650385185,-466.38738832784964,-1.3486623420285504,-77.66222267653481,-84.20335494503935,45.457925373987514,27.490029013147,-8.100684949396243,35.50622093798383,32.70112419447076,2.694130492516967,5.466416231401361,0.3810261647856894,-11.212088444330469,-6.885297309809143,-1.5400705001163093,7.734640656238183,27.038163462354,47.41978075281119,69.95340366542683,89.57341562419448,95.25644884243789,91.49769661104602,83.9627523902657,73.00996283036264,58.63938571187325,33.33592175010657,-2.9968325686333075,-33.0007190412659,-50.347395039311536,-66.0306374394377,-79.84096757456598,-80.31087546416546,-68.70673231276638,-56.382803826088846,-44.933819970171186,-30.296530659157515,-17.9552255552645,-12.681304733757699,-7.42214494011764,1.179706413607457,5.9807004284181815,2.7019481456671937,-3.8300371076054986,-5.574917788828053,-4.772129071498862,-7.383310645470346,2.0615058765247163,33.01495744895787,54.54263238287056,48.65485582884313,38.367150555536256,27.656476888390273,-0.8568416661221097,-34.15628719840762,-48.12546966821968,-52.645333012079995,-65.29745415400731,-69.98201609024176,-64.2663670388082,-79.80493320222328,-94.13996708928435,-91.73848422538197,-155.74970046144648,-235.19139781077726,-84.441852037859,387.60193538209813,982.1812530450915,1186.560716476225,443.9475046074132,-775.2012889796043,-1122.8891032833385,-462.3591954798893,-3.3488808123064615,-81.54564999186235,-75.05242545026523,44.38051078199631,13.267380567052356,-6.390252300224503,45.44271808118066,27.483011445196624,-2.6866020812520848,13.000626107459492,5.814920306525329,-9.78192278886211,0.38569571928470925,4.1389543646566445,6.524574169197699,29.1892128591246,55.465952271276876,78.28769014349561,98.1440268318932,101.66692064567381,93.77084403377575,89.12963231189681,77.60998088055567,48.61488329468087,18.047143203914594,-1.1873750618987269,-21.06916081671975,-49.86683720303243,-72.95802479757454,-78.44954086569146,-73.76485722641164,-65.9997123154913,-54.391242577131294,-44.52977491954543,-40.24583777350205,-31.568757493569276,-16.307724811393783,-8.08186354280187,-7.578269018961738,-1.596934071832674,6.37627081946826,2.284503552124738,-5.9653164316516065,-0.15953175212592186,8.91304913904909,1.960834695735583,-0.09257818070369428,25.240523208844156,48.23448297129417,43.897771953090455,35.41654494079283,31.889593318168853,9.095893664142295,-30.081808650707195,-49.44583392803621,-44.228909728926595,-51.26377549246695,-70.9753613144572,-74.3692208409879,-81.54986642976115,-94.53135837868933,-87.19343860991015,-126.00348809863907,-200.4731227230205,-93.93099344674528,306.1050800379209,869.8622464785765,1193.8516769922742,640.115355047734,-624.2225663479378,-1236.6671110342716,-665.4135517125694,-57.34324777973841,-49.59701573443526,-61.77709182218767,74.00601584297742,52.3426097315574,-2.0973841143766414,44.59093073488141,44.22269999402024,8.575602594931631,18.02375319546771,14.4324888311681,-7.330176118101413,-8.60260321295744,-9.207145470216844,-3.411102559631299,23.413725006661373,45.41561057847016,63.093351969817604,91.02934981453379,107.74549976121185,102.85811181231617,92.86359830862031,80.1765258150389,62.470844750966805,45.25033434335893,20.97277558742181,-17.010802874895827,-53.10706783621988,-74.3530867568462,-84.21717973556358,-84.29114911923611,-74.63432840588982,-62.35622165985649,-52.67573388661548,-44.347042328688964,-34.15640458941604,-20.73666479931729,-8.796534398265152,-3.8146699456742965,-2.5875887402834614,-0.16721608270346344,0.41684413225467587,-2.5580386938748845,-0.26415030770097303,10.10973568075739,13.222651610836486,5.37554723275501,9.471564518306856,31.112225510465613,44.93201869717337,40.83330282924389,30.77502501847598,15.363175749286809,-11.452620415229331,-35.8109217337907,-39.857618055511786,-41.59716515166584,-60.10411405834475,-68.21386648271445,-67.09381752972378,-87.36461142543607,-89.11191413523326,-82.65455072516158,-156.09901680342688,-188.83495586803878,43.68212858321607,527.3743806018936,1031.2490524675497,1030.2477824857865,82.03201284812698,-1046.6051578549063,-1071.807242277449,-306.28811089611236,24.12273228722735,-72.6320139942489,-1.876878833925261,93.4824991986153,34.79978610185332,26.939390941235008,61.48505552967701,25.844762015019015,-1.9925566039610167,3.136545815944121,-8.35501295694613,-14.01540441266809,-4.243286304532337,-0.37260402438036344,8.613158967115064,31.336339478543966,57.76949336676738,79.75836409521753,91.47457091319949,94.25874173299114,90.63954870332162,79.57841712308445,66.53562608631674,51.215418490162634,23.93593281475416,-10.031429003985748,-36.780353888611906,-55.61671623769781,-69.32573075039772,-75.98668864484391,-76.33644076059201,-71.42461188373954,-61.25726365553692,-48.14834939446291,-33.62880606784563,-20.0914519085704,-11.867405275635335,-7.9404172523915975,-4.497550658910992,-1.3111105046396716,1.8658463870118283,5.045765014654856,4.778717280359573,0.40911590988512714,-0.8750603218308779,4.033585370585887,4.5332064315272165,0.6948436390565922,12.435289374535756,34.02341433190309,37.889473579506586,32.919048694223946,34.73847315097693,19.903670842260862,-15.868761769650163,-37.44294972957525,-40.39093742543652,-53.043263379309565,-70.86123632270149,-70.93872682387544,-76.4885460121582,-100.0373817884728,-93.91381158267018,-93.4064525642708,-173.75656159983032,-185.9880792443163,79.40939088933939,583.1295043351249,1070.2749114469163,1009.2881623601852,31.951220836992263,-1036.0553524830957,-996.6542774509849,-250.71528968500488,26.385423067706114,-91.6838991289949,-21.247209459144486,72.87799776379853,11.195876971610602,4.254294881815429,47.61931203625356,21.65558121620151,-0.49979143411373705,8.699557361880485,-5.563902865674105,-19.414256844706227,-10.164520943753466,-0.27183554837001545,10.544749109598925,30.482093087800855,54.23080136625484,75.93759463367712,88.75831912090385,91.86922295474157,88.86013765419297,77.76390042499872,61.1398268840028,43.61673267194636,20.343873602433668,-8.670087685602349,-33.9249316239275,-53.25510439071598,-68.20155253513302,-73.99325073063545,-69.16122031310667,-59.84265813500227,-50.92544277583036,-41.858773703077276,-30.537355799255856,-19.498442323072688,-11.76510911423969,-3.896843068969206,3.1177701200746615,2.8664369880883527,1.7591246557930855,7.388528292730473,10.25042626269433,6.253661447806128,4.247593598625544,2.7953997536546513,-2.945973270146345,-7.687040018866596,-9.09727458395733,-11.068862322049387,-15.577651813585906,-16.08678920180185,1.9517431028159264,33.67982021168702,51.8075572384744,50.05537952126173,39.62250144866273,15.871712688043099,-19.098362854305044,-41.51548233572866,-44.02755411625312,-49.41929015573608,-67.9823594533976,-79.45452311333065,-86.84095573677996,-105.93515530799101,-104.2655794637426,-101.7196386998631,-170.84394989157298,-188.02310666957226,67.09239715289212,579.0343021135179,1091.2347885191118,1083.2495813850796,148.83019220115472,-983.7656022945978,-1065.4532132223892,-335.4766755862062,4.610593131534607,-104.17041283070141,-54.51822700573212,56.31450090879266,14.881326297678381,6.630071253706088,49.3331034617824,25.72973393579957,4.102995325220382,16.284741318412976,5.607568032293143,-6.808507117200781,-1.3838220383031512,-0.6835565779937554,4.760034387134079,24.570938997443918,47.35711545183106,70.60799989339435,88.70856670377674,93.74433790906816,90.0547504488501,81.16129332242794,68.82984789124006,55.503581285179955,34.14193623621846,1.6108997051125211,-29.683604366904866,-51.363035912603436,-65.83957937240875,-73.85727768210559,-75.78021214162646,-73.25127470278369,-63.20903049893327,-44.97749589652485,-27.661745492997138,-18.98904251928988,-15.459542604180783,-9.903539900941782,-1.710594476330865,5.400273401860279,10.091016542136867,12.006720334402356,10.548682389521758,8.402146875562767,7.845433874849843,7.795847420278739,8.694942034077105,8.804662469091303,2.964565478131118,-5.9297668661490945,-11.552011963822515,-15.605240592809311,-21.05912895219079,-27.31162825001369,-26.00137502477527,-3.3259045037106807,29.71369386545848,44.197334892239695,41.098951324507425,32.91189589263384,8.71382924692237,-28.188811397709564,-48.35901350901932,-47.82411052447719,-53.42694335277617,-68.91405298869276,-73.8741616186372,-80.28044696338304,-96.63912501144567,-87.76798433161235,-90.79445165736145,-159.86953836485446,-140.3134656655834,163.0589655840193,696.9598835172717,1141.4446807860395,917.1405761097317,-180.92533891583506,-1145.9680666831862,-943.3915391148842,-206.2322481170922,1.0944202733002868,-93.26433339453293,2.905914831509662,71.40606508817109,11.97149631487391,24.492323929516854,56.90729412845811,24.521722338600487,11.633210456582944,15.522829557155582,-5.055640331836146,-11.199966805206772,-0.37361466479474803,2.722173856191647,11.974276832252446,30.802007786493103,50.48949867802196,74.25670162817532,93.80802611990256,98.59896039922643,93.60648842466273,82.17551471246615,63.93498751460426,43.750145510963705,23.99227905688585,1.782351144808017,-23.697839936771892,-48.769085117169936,-66.8552598385273,-72.70451222791816,-68.4425114924343,-62.093954376006145,-57.71604930232238,-50.86035702189531,-36.491801274430046,-19.03472033522106,-8.969254346538701,-7.5377888785977305,-4.518765212266553,3.996778426367113,9.728318835164092,8.153514669916278,5.025954029019268,5.188699797096964,5.78630191113834,2.550117550177613,-1.4206949971488392,-0.42993428301740977,0.997021179692366,-4.669825823880279,-12.657280447774898,-17.78915647796744,-23.587785363898462,-24.482135757841128,-15.373979529806705,-12.071939523380777,-14.901195793444241,2.6310139450485273,34.25576185421935,49.108244659041034,49.73081939492994,42.14435745244005,10.809697393265008,-31.657039117840647,-50.396468590953845,-47.490791161932776,-54.21029144610433,-70.82133595618794,-73.0343790658588,-77.11808799953293,-93.71610750415597,-83.34826086119756,-86.64157921887724,-152.94989202543758,-113.3353347996406,205.33981156634505,722.2443525626029,1139.1646522935494,889.2953508260921,-241.26548571806134,-1213.6033021283242,-979.6041335461462,-214.69345846900026,10.89745907150705,-63.07489203000282,27.704257230483847,76.41632550123803,23.13973198552675,44.42553394211956,62.91978687998294,21.31302576437446,13.457987759518659,21.68375787151141,4.004762983956644,-2.633463330652292,3.0488125043608445,4.334482366077566,13.184710308093095,30.259607192095192,53.435144241814,83.47990325590382,105.16081271640597,110.09563790540079,105.01580981334017,91.3705932174468,70.13673528867966,49.38843221235109,30.25428462980853,4.4774842062298985,-25.712382401728846,-48.12549366624578,-64.809671011919,-82.91848237170525,-92.1218068724468,-85.70196468049998,-74.1376825336911,-61.35325784361398,-45.61810293188636,-33.49531177672071,-25.590943739560714,-13.538686139409336,1.8718245551788897,12.75829628734371,18.801699687236983,22.457936286683516,18.366369034517316,7.397328954976879,4.97143922056409,11.303199309397982,8.236220272536185,-1.1822209169084346,-2.9170578779166707,-6.515948168379282,-17.283696240039525,-16.61319944492567,-3.0071447665142212,-1.264457660878394,-16.080746072968,-19.587725206973055,3.6332676150189647,31.991005520187098,41.83503453829483,34.80830541073798,15.72168138307228,-16.985597937910367,-45.81607313380043,-51.690736500888626,-55.363745933290865,-70.7817643668385,-72.15058755913438,-71.72299688374272,-88.6983258554119,-79.7307746734489,-75.55029765107521,-132.1239664049776,-93.79663601297389,205.12712284919732,701.491369956772,1140.545832104939,941.055289008122,-200.81207508707598,-1256.5020238461248,-1073.69387382378,-286.5924658791739,-19.54769532533644,-58.18582033193445,59.04511927243445,105.67277162520098,34.06985023648903,49.58915263883723,70.57180401427367,30.153792850219947,21.355637702920156,21.16572905414282,-3.5533074753174496,-5.379498694635044,2.068291584775279,-3.7226818352500217,7.461861204222988,35.02345480573459,59.097451703817576,84.8825241005548,107.89850702168218,113.31669818391595,106.00175551008701,97.23134120300561,85.64386142165802,65.76793038940568,37.91558373554835,5.242880381800787,-28.680300267718273,-57.726129394308124,-76.45740410909131,-85.65389129431385,-90.00075373258882,-90.63642837001973,-83.49087120157458,-67.96854499722733,-50.34692465164211,-33.222305003741816,-15.911668220348893,-4.385110062748534,1.0124687362525897,11.579629309790146,24.760141421638618,27.0102537494704,23.22734773141842,20.27630593711398,8.407893509121891,-8.446271266977277,-12.028191157752655,-5.735613636853438,-6.565000853070988,-16.774906299308988,-24.039450365700617,-19.364185110039163,-14.269001118512906,-18.328510807637493,-10.86149155767926,14.985313715023963,30.662295020660096,32.822900468360125,38.757464057413294,31.084792749932532,-5.412359149446596,-39.779516029664016,-46.508711252243735,-48.329476393399034,-62.49655225851242,-63.791141705952924,-57.669622685263775,-75.29214516791453,-82.56161812802377,-81.37083560312539,-133.84246594888918,-127.82820837241252,117.51086969563084,573.7518263734594,1037.5512474087272,1009.1776431832014,41.73459078178311,-1113.1528204929102,-1155.1406153578312,-365.73619260917485,12.406556616103241,-56.83676630365178,16.9680197697639,110.48009839598318,49.04949973192364,37.50493133966992,70.85787426239418,37.6174159548285,16.41827312637138,26.307149920173934,9.69152176280473,-6.947424844212249,-7.183130399380422,-8.710614221622867,2.758197132680152,27.885481775614014,48.640535072439924,69.05343040150746,90.69269535392202,101.84300520268889,100.32385858104925,90.45637687581171,74.33466280613042,53.7603757770608,29.68960669780909,3.1486787507633487,-23.928814417793937,-50.32354017852552,-72.8918754563777,-85.24680567842067,-85.03463778195612,-77.51660232386996,-67.50334470030742,-55.42773765498481,-42.18997868764886,-28.926570319545547,-15.598607462793822,-3.1133552049549813,8.206874138069317,15.766668443656801,13.253165777329446,4.506060011142949,2.4217648000314345,7.306355180663629,9.63816523356076,7.144738768881873,2.2903811123025006,-3.0908553702063806,-7.371725400699315,-9.36522239081774,-8.139007612813682,-8.12536857389276,-11.99194993281474,-8.313859183066796,6.179663417047816,18.06549879413619,27.699428328124085,36.69538168820776,25.238199969987395,-9.596239094905624,-39.25213005763402,-46.135646781282134,-46.4991392119707,-60.75231141995377,-72.7569425592759,-71.36028637832304,-84.4041148675949,-93.92747578511415,-81.81123642048551,-121.97901451496813,-163.54670281008362,12.491852648152104,456.06165957743326,971.6409009815634,1110.677153628925,357.3584491465966,-850.1906471906773,-1192.549064867075,-506.2855939254996,4.368818159272369,-44.95074482533627,-43.715972098397074,77.35291292243872,55.08396012894657,22.552551966876855,56.4922078284771,37.46183023031064,5.482303498159215,12.343691735371777,2.4879507011900026,-14.766918988565592,-9.341184419226362,-5.444326864999752,-3.520486692744784,13.721459127756535,38.86329693239526,63.53277524533073,84.36166334863914,94.84856673013405,93.79345146238362,85.63531269739393,74.61014148072202,60.32487356418616,38.63923683750425,10.80258335538128,-16.22028932080979,-39.68860593491871,-59.14759245187075,-68.78643923381354,-68.86356826042291,-71.6990844168968,-76.39149341577178,-66.60823733786472,-45.411067541676516,-29.501058863558058,-17.796035778598814,-5.144418321501501,2.757081103296315,5.830599547254341,7.625228931621109,5.859071719768119,3.1189216556867656,4.500438985994908,5.985031196329035,3.776145241036158,1.3008643491657352,-1.0770199308047665,-5.613443425160021,-9.394015129910242,-12.5100894613286,-17.46804919911616,-17.26279701666336,-12.734523813279846,-15.164117271305056,-10.591801454914926,15.245612271400194,35.58571984069801,37.15976933352296,39.87150146845029,32.31754620106754,-4.10325222043139,-37.466548063849274,-41.316818466383246,-42.8305407525923,-61.7248619882505,-72.12096658278662,-70.20155069091638,-84.69730201062654,-91.31040311108538,-83.30773813414942,-133.91781555214166,-169.6565850071384,26.026303332888574,481.24059553169457,994.0669639717789,1114.1953980095577,334.9280989774784,-875.4357658769748,-1195.94119585399,-499.4238884009009,2.369318106577559,-49.718575265069035,-43.471579119287455,73.62217957697914,42.388178412523224,10.788810421725191,53.592693003428664,40.33886794120849,9.611030488598935,16.747546034522742,6.873489810985717,-10.034376697575984,-4.393037577635971,-0.9545595016892232,1.714409402021289,18.038875098181745,37.96290659150509,59.8981141824611,82.65316600405079,94.15824640663007,94.20959770744531,87.83220363090507,75.7472655402995,61.07220225614439,40.08504264513727,7.057925016829807,-26.475396232892173,-48.0119431888359,-62.5653823088334,-72.8551035875785,-72.01880206637787,-65.20027884647797,-65.12463617959239,-66.69764085377932,-55.15739459112287,-33.54449521382672,-17.17560770186025,-9.417623280266717,