ECG,-59.748215079571864,567.4019429588609,660.5218755446317,522.3839693421115,506.73067757947956,451.60472978613245,292.0805152394498,203.78923375571836,159.15897615867866,67.24819016647112,3.5079272071848706,-13.971202820179037,-46.666171914771326,-68.87405198478773,-55.89505994817242,-41.968397233580994,-28.998089575378607,-1.0822720017099954,34.184522439846994,67.97457885546967,90.85126571552384,97.6046267039677,97.36931356864177,93.43827134119351,80.27404159721128,54.51941052677929,15.929822026296549,-24.94599070646579,-56.435458621239746,-80.78027176562271,-95.40777434019074,-91.81635248905707,-79.80361629021158,-71.57217809213468,-62.318159265512485,-50.21500967876461,-41.19855915225941,-34.235392417860396,-25.45466383133111,-15.831323874515846,-8.921541716627935,-3.7187394927994575,4.681640365554216,10.924746630567224,11.588581588957515,22.5522795790304,42.00825166488693,44.912180660213636,40.95417948777073,50.47955192667698,41.668076917917546,-6.611987015366562,-46.14299936518174,-50.70964060180968,-59.01816728226708,-74.69855871627516,-71.31331005127073,-77.33832410029484,-94.23966239212672,-85.05982685037303,-121.82849832621113,-229.10782096987344,-186.0912765923887,196.0703422868109,806.6952189800727,1180.5306905518546,682.8781632499339,-510.97391745805754,-1119.477223946663,-605.6113042763295,-22.210075171920522,-30.778673136524716,-91.15598953635418,34.82565011416938,46.61473491048494,-2.4461616519327274,35.34996593254834,43.05330873978187,6.649752273836819,8.675419705602426,10.213373617717913,-9.18296178819752,-13.913753851901948,-12.855541349583001,-10.999017034062948,7.296878981342694,34.015397645525496,60.08312541413184,83.32427075180141,94.71289754561656,95.99713795894468,95.14219124799558,86.29929687560792,62.62205707212356,29.493977856109698,-5.596360454863796,-39.523685316483984,-68.02162428337513,-84.78360630848199,-88.28424676650948,-82.7088508606411,-71.17286502922423,-55.21547927547601,-39.32911271174119,-27.59787769779132,-19.65963653835201,-14.220906204465969,-9.522928078643904,-4.218604186727433,-2.0960233588763053,-3.113250165473829,0.04561760221961819,3.5090075589034537,2.1996192966379695,12.115689044134868,35.79573501350295,44.36654844014067,33.76199969284671,29.136740583756314,21.11990482041667,-12.316004474418055,-41.85071361953994,-43.0025598516142,-50.90671239258607,-71.87277927297569,-71.57591152802391,-73.91304797415127,-91.10233883518426,-87.41086878863669,-131.10220499522524,-250.7854693111112,-210.8320169206616,196.53439835688621,842.4009630750633,1238.577626168224,747.869757740058,-464.91663746427025,-1111.5805267895657,-615.8086591258937,-28.29389401774224,-42.972442909485224,-112.76173796147347,18.952962761652543,36.51131478152082,-12.172662967590961,31.189837969782772,41.81205576997779,2.009162323491948,3.4567728234861157,3.2137248370286216,-17.399037725067004,-11.78532881125469,-4.2078665938613895,-13.293242557505419,-0.9389763904059869,35.68788262390761,68.90883719342139,92.89806693013125,106.96187506904951,108.77244259019463,105.88486005626783,99.77641293002841,80.97932706609829,46.059735025636996,1.601323512409473,-40.86156582324781,-71.30464361417147,-88.13354778461321,-92.73773552903623,-86.21428819349131,-75.27723226859945,-64.49392339841259,-50.24457830591239,-32.4840459588023,-16.947759817809942,-7.410136975725976,-4.0427601663360235,-2.0846765501995144,3.197817252752804,7.935709462794188,5.195315397791473,-3.9736112834173376,-10.618838221531886,-11.944699448074765,-15.127719255659157,-12.767275178718908,10.966782074844684,37.05564141264307,37.912435715657125,31.1912405064974,33.16031261638051,16.559748846952857,-21.961244273738956,-42.3566843593602,-45.20292483396618,-62.253681572267666,-73.52492888160904,-67.21955503100625,-84.6689739663558,-103.28093006111487,-99.09433581969878,-166.72362193190347,-262.7259659060993,-119.04487668130133,375.3029083246053,1004.8211898701231,1229.309130618606,493.8038840551466,-720.0937915743621,-1075.2586140165686,-439.2100461399864,-2.4287007347483183,-91.69471048167864,-88.2415670431904,37.486966866828354,10.413728464771715,-19.233938712079272,25.63103258934196,14.713526825339283,-11.285588764427773,2.3774190769866124,-1.949034643835549,-16.526620924264527,-11.866860649620818,-8.063793883035043,0.33295642680255355,24.713613645397377,49.91300682513494,73.9838899959924,98.62498743392267,112.11742369966389,112.92953174351885,108.26226861977236,97.36225395381908,73.16951413635817,32.210055474082694,-14.20922724603874,-48.81681791387774,-70.84349843424815,-86.74879298055924,-91.82664326216596,-84.62145968631825,-72.98050231871461,-57.57023387666148,-39.8129858276688,-29.71606859941497,-23.70078847850978,-11.070950856794646,-2.182786903504301,-6.5647922195325705,-9.353525512153139,-2.462140128542668,2.120281807011292,-0.35777742242152755,-3.916103086830061,-6.2017016273204035,-8.322290580630323,-10.425123792546936,-10.423708533506979,-10.202435008272376,-12.96853403144949,-5.102780779838518,23.55561931902953,47.67708518487015,46.857849728900106,38.74926079603742,29.45731439574662,0.007489867475960921,-36.310320783558836,-46.25974053443436,-46.13374824662108,-62.58377645020258,-68.40790767850116,-64.45582886302512,-88.93161674765274,-102.27264986150503,-102.88246587842984,-187.40707816528706,-246.70361163813538,-9.65650938745108,545.3876673127055,1127.0801482556901,1160.518143745799,221.6356871883954,-934.9137403628329,-1032.3651645958053,-321.16174358614495,-7.816415667799021,-122.06277716483163,-59.177605552371645,50.59566764299812,1.0527792338290425,-2.079276456030623,46.0260043143584,19.689468853116267,-3.6383629757303364,7.88657541260601,-1.2210919507763363,-4.366218748206112,7.320182259612085,1.0238619157722688,-2.142058043670998,16.960903812495218,40.082869699780275,65.20587495593297,94.8004069048365,113.99171565997081,117.52717520556047,113.61273479229288,103.83830989030167,80.83439301795481,40.138713869925866,-7.360579744766976,-42.33248886280361,-63.9568015305409,-86.57679111062525,-102.97500833246991,-93.04349432940901,-69.74870896834251,-60.98352712760464,-57.3988388292923,-38.20589134342865,-18.081952096878716,-11.831574584787884,-3.0926175980733,10.109411734766235,7.162319734898915,-3.5711988928751346,-0.6300407451821286,4.396599162655197,-0.8403625746011603,-2.996914738503561,-0.4363368769646918,-5.843888311915155,-12.755453394294701,-6.873761895339323,5.040523494808455,6.221769364904097,2.318309707767275,15.892981910464936,40.50558862968593,45.39360709928821,33.062537740531724,23.408130171964928,3.1649494813318935,-28.385644010378257,-39.28485808021823,-46.02434754552792,-76.76467391858708,-84.28231229317828,-62.4037345611281,-78.08773720012634,-104.24214917629934,-108.42362080114671,-159.3566127253371,-179.50979433110248,46.023159251607666,561.7197132767272,1128.90132860811,1131.7592746386013,130.27010242749748,-1023.6614747323224,-1059.4148670692382,-342.50526778451047,-42.32968363518631,-105.82417984037134,-8.331027614008761,76.4582595034886,21.8765981669817,24.71603488104916,43.477140438193565,8.565711747377676,12.657888263675435,22.08006268543604,-12.355792517580015,-19.39454279424991,-2.8431734665228747,-6.7919026942365335,4.851609721309469,42.1259556073433,66.07342336473002,74.85880094648522,87.15608439796502,103.42021413015746,112.1211992361465,102.73837875602113,82.72025576749037,64.31719556460135,35.57694479809804,-10.664254959337436,-44.41788872722952,-51.06360618819368,-65.33731211908562,-94.8717407084599,-95.21534571135452,-67.12255256695354,-57.68479442075429,-58.8583053540379,-38.91962448449152,-18.884777949021874,-14.543773254586554,-7.047638061663028,-0.26121226243963136,-0.2785000687563386,9.08599863996966,15.202739128135397,0.6859907888779411,-5.591192729975482,9.922517389872556,16.140031343948237,3.872850474120675,-7.037168045578136,-6.49224282181153,3.3361939358732315,9.256830539502667,5.888253039548976,11.90940896470612,25.229223712292008,22.78432630123183,22.71915728875985,39.78947563792413,24.454420788793264,-32.702614081958316,-57.52683881409432,-44.87733690195098,-58.93760418130743,-76.87356436765425,-67.66264754145395,-81.84735871521781,-99.34290620074376,-84.69458063120182,-120.6779195092903,-161.70212300606659,13.15018053707098,477.3092841462129,1033.734516485512,1119.5030712630041,224.38668025670805,-960.4996760209665,-1117.230182649145,-418.90450850654815,-53.67706910101225,-98.24016512812219,-5.124870896060656,92.26330466850624,32.36864387020283,31.466646359756243,68.45042638206476,28.50939136367373,13.67982275214338,34.40608308381399,8.689029048798472,-20.818390582788982,-16.891254382564583,-10.809793300652078,-1.7905251907576911,20.112625759610662,45.64356592945044,70.80068932002938,89.39682655214806,99.27127708478938,106.39172528318988,103.78289387202098,84.85645385827104,59.79268838661152,32.79617104360176,-1.401577518945912,-36.04527932369389,-60.7979089893418,-76.53619783634635,-83.48826049331655,-80.57543810513589,-74.71300126898996,-67.72479461390373,-55.19447830375579,-42.57314622392886,-33.722903023986134,-22.011926935940146,-8.390047992678547,1.3365448259385708,8.568910256054247,11.663734610252886,10.021884288962871,13.49668672776856,20.716019328090738,16.76701800839936,4.884432394006531,-1.1066883586905032,-4.827106792625482,-8.227457139655058,-2.4960545018828952,2.308993815463282,-3.6235967819025614,-0.7567103436348104,15.181892820569377,22.174938599872462,23.978183781632936,29.717587873465245,15.415423293276216,-22.273022456262993,-44.22612909711186,-44.39655383715409,-58.37169271180742,-78.3454532628661,-76.18190823436655,-83.31937577201458,-103.75416028257237,-92.86271755432381,-111.16592681509907,-186.5485738976271,-115.00355656561042,260.14034257220385,817.6935205420857,1164.2570842196628,712.4584688352007,-462.84215274819655,-1147.2655493173847,-691.310960037411,-73.15655531990521,-34.88100294055003,-88.06373728813179,34.6862549819246,42.344314658348296,-13.065443519944363,26.188760202542287,38.08943296683406,5.2110848066524555,12.096621469608884,11.726409945645717,-11.097507603592117,-8.849428934321962,-0.7073758038757436,-0.23810290150530733,13.706754999717706,31.743172919230283,47.53794312957716,70.7388365815834,88.7421664372655,90.70830865243983,85.8620421178794,78.10997363469511,62.963409612056935,37.718276989683595,5.1058790428206295,-25.25593961532753,-47.83386768954086,-64.27626588539118,-72.78087109571965,-71.98399442984062,-65.78742383485584,-56.02334132088775,-43.65331908780229,-32.26851975943943,-23.68126831150667,-16.754049233411646,-9.489348901933905,-1.8895769149619088,4.124324847188479,9.50760576024923,14.128913478701742,13.695975901305573,9.404224460720936,5.953468641806939,2.984349624982049,0.07787533915717759,-3.6874769079914245,-9.980912540525331,-13.943676697164772,-15.574455289304533,-20.514140746728707,-20.923077979556666,-14.167297869976533,-13.135939678892246,-8.883039672861022,14.054995533481275,36.61486039046484,42.74655462018657,41.62449353809044,26.71863141500765,-11.196747866933862,-44.0478709657199,-48.1057255567383,-50.69858427561385,-71.33220440234894,-79.71542544825418,-78.87574650465496,-99.4638931740648,-105.10314532744256,-102.38121512575012,-163.40601129921814,-167.4216302205158,104.82091509790712,627.6529977091184,1111.2580587520963,1021.8083614765615,42.42053313805087,-1009.4007225462361,-986.5801608191556,-271.9348909367242,0.48151893135428736,-110.69971666738483,-40.72474005895886,57.611434875613284,6.580333257580076,4.256682546449337,45.68866895037504,21.18584528575193,6.6956413741817205,20.20444401355588,3.0789248273618455,-12.492170492775381,-4.4686379591344725,-0.7862526041028008,6.133808006238498,25.585607262593363,43.19323057819169,61.746854242959444,85.5427825567024,100.66258044346182,101.16737852192553,93.50665169842681,79.11325942839278,56.37976099942457,27.935911390915457,-1.8701482029321705,-29.8156173423781,-53.90696612154634,-70.68369709296687,-76.16263023412063,-74.14360932920509,-70.93272440471654,-63.11058045599468,-49.379795954042336,-37.50050337048066,-26.853262256181168,-13.585597276429482,-4.966477448966721,-2.2989998558369074,1.7517556361645674,4.667198003890864,5.667114523409458,11.065170668700038,12.967581291748886,3.1898429674470474,-5.967066279385879,-7.158337950994159,-7.9129453929592675,-9.608406770143473,-11.194002168375837,-14.854649228770736,-18.17151391740946,-20.115928171743008,-16.304787356239196,3.6484088827578,29.09757667274695,39.81992251137755,43.24783731023093,44.7537712275502,22.48609235912034,-17.382448808036433,-32.35321326294316,-29.684513701676615,-57.96605440547073,-94.50255295709516,-92.39153431114784,-90.46452663843479,-104.39418329583745,-98.72497450444317,-132.59218288271163,-198.4780046376419,-79.72524918171669,341.4753975333174,909.7836655920261,1184.318373516487,584.430390006559,-630.3898510877167,-1157.279714044649,-582.3262917648326,-25.5421151017699,-53.13727544755489,-89.87958622513611,37.28476282218926,36.71528935431614,-2.5263899222819077,40.31882943745361,41.357639676513074,8.322051047667806,13.291658708124341,10.868496101712338,-2.5196056953862316,5.159325659011803,8.317723057721462,4.725238855721361,18.59892025356098,38.715627634705015,55.69355964887809,76.2249054415628,91.24869769942057,92.33780962934247,86.3871523788294,77.60588746658617,63.7656061353579,41.3014177557882,8.362575354108854,-26.752494981250926,-51.635001571777586,-64.85876205800987,-72.10357358011535,-76.1035354552314,-76.51177836167084,-71.06697134456644,-58.627770086548196,-43.56665773267245,-31.262832451445583,-21.061811824963343,-10.642384924725313,-3.1129444921834803,-0.3721488306523213,3.4815261766461667,10.801541124914326,13.808075067446708,8.947508196655182,4.328810806217138,6.020707342234948,8.258230068119593,3.959397418257696,-5.267080987027187,-15.684900766420078,-22.87196183455915,-20.806340564019628,-16.201794957454617,-16.544059715030684,-5.430237077491273,21.64152933068416,36.5809376622756,36.478657220770444,42.938000379292006,36.858685535167055,-5.771197809583956,-47.061922257964014,-53.776001984016034,-58.36497168181255,-74.19898254295421,-72.99161599304564,-76.82396204156568,-99.80962656617382,-94.76659838393846,-104.50452005368597,-176.8728111249308,-136.47830079090036,194.79460297768645,741.1031238298143,1157.635919814742,842.1582461243441,-298.50310435756353,-1139.1009193636698,-809.135178321786,-125.12595791499048,-10.913267794232965,-97.16658458567845,12.801846745634748,57.59111043574547,1.357334328509479,26.15586455047374,49.88702804561921,18.076855731243402,15.21177967452222,20.70368858009897,3.579264569277947,1.4521943116772014,6.259173771998432,3.931747114635403,16.433907501730765,36.48947123069559,48.72548082198413,64.09271735383561,80.49249919931069,83.98108692580888,77.81299827476711,68.17395843527727,53.635185693778006,35.60863789003884,14.800521657868305,-11.05953140341478,-37.062198718107446,-54.81179268556859,-64.22865993840225,-69.35925858525147,-69.84227839124715,-64.45182978933168,-55.77950398127238,-46.31898454415696,-35.595730846471525,-23.795818415654935,-12.17167939850928,-1.2139712691004796,6.226169045916386,8.168808589152658,9.077650993097825,10.79616639636366,10.286672466509675,9.271262710084848,7.4568448013740305,2.2443013389162,0.05755127918089187,-0.13250662525646462,-6.724080189769955,-9.835309634733724,-8.487603600303537,-19.392808741107512,-22.736580046601315,4.528139333553712,28.9670417992739,31.507958461991098,36.023371188407204,29.78934142622149,-8.500094114035809,-39.92716590741174,-38.223323601572986,-41.4037646818294,-61.00294274950352,-63.13349709549162,-65.4974613192058,-91.1205892777813,-91.2721119728173,-89.21373227831448,-156.43511198401674,-157.87996783709423,107.52436671900952,617.6360252613822,1096.7702659807524,960.7702590035176,-85.94379390127739,-1093.994737044958,-954.2889395955601,-219.01735425176793,15.960713055752237,-74.1140734241047,11.545494272143912,73.22447043248664,8.438629570156124,18.678002055469193,53.79881766322916,23.1873089797676,12.213217351603337,23.088143476809634,7.452194502522554,-3.258364183396958,1.2192210544053097,3.7242363050167384,14.213134171446871,33.62838474883944,52.272324755326494,68.2309003038393,77.41431494262338,79.28576184379327,75.45159404742671,65.1654304598919,54.37030769449431,42.89654614292381,20.473511316392734,-8.731744192893489,-32.020538836198355,-49.43853999696948,-63.08780450904342,-69.59120050623032,-70.6936167453274,-69.6972032624602,-63.50163965949583,-49.26617699063912,-30.697433051360782,-14.762752413924705,-5.149012585298713,0.9827030810207891,7.773150788334592,14.244984805984569,18.319184585844617,20.9348956079397,19.155667000827165,7.738529055500568,-5.580362252600116,-7.769068516424795,-5.580033377392146,-11.470331161640019,-16.198066132442214,-14.028127121778573,-19.1014680910492,-23.544190751537165,-3.57756874164627,24.811774618275034,34.15616256648501,35.57026046797638,35.04674457914719,10.631663948393399,-28.113626064648884,-42.895103722402084,-41.46789704518976,-56.550821284324876,-67.80352849340308,-58.481438385828426,-65.71732442867327,-75.20603979976084,-62.973602556184964,-104.61152426117278,-165.524722822523,-34.67896151674745,372.1491337724958,906.2239606683272,1102.5617158251757,381.94888997243754,-831.4730490707692,-1183.0364073091691,-504.1678297953092,-7.845385683479023,-54.52626166324225,-32.47054594020523,90.59262026623843,55.7327361851845,26.69610654607081,67.19645330609737,41.308874335534945,6.859563569050101,19.456160911417605,9.810115671463814,-9.181530042987243,-3.1187086176859316,-0.8736931255312204,1.1397660145158408,20.29989993044778,40.64599833887268,58.743284749859114,77.90707825886108,84.07882286375113,76.27276577002573,69.28397342550159,66.94975027685571,60.92779114754178,39.5816107798026,3.149588373904432,-28.14606577184763,-44.7833288085509,-59.29379826711454,-71.92896212956396,-74.50020706552756,-73.87617060679547,-70.31725782887159,-55.56370193289578,-38.15348961661765,-27.05480526255253,-17.947359146636742,-9.167860391257278,-0.753969565977286,5.748499290795193,4.300851917863714,0.1457289878668604,3.5028367533501665,8.54754518491662,4.995373653343143,-1.900652864062554,0.5526776083320009,4.1502204384205434,-10.34165257276479,-22.336028608295965,-1.580813298610904,23.76802451895228,26.77816778426237,31.623684848515968,32.35780918868444,-3.0370912028661685,-44.127311885966805,-53.76393524366647,-60.16605511709373,-73.51195079952404,-64.96784866026485,-59.63177470523697,-75.24240749398395,-61.66585394507236,-55.52695956429421,-119.49357575910366,-111.9140002042894,134.10839457090097,605.7146262424043,1074.7807536093555,911.9797732919508,-207.67818516351275,-1223.3619935047159,-1011.3351250717485,-259.2385557027147,-40.04875215157922,-70.11145206232906,72.52989953638465,113.82816608579228,36.64942137749572,62.457487718346485,80.16503211512556,24.26343559985597,16.913446902967202,32.87097272744954,12.675480679425796,2.0989031525814266,11.505039110283164,16.20678282879147,16.89918788618142,20.143977621418493,40.80935479805287,79.68917053832054,108.76887178250365,115.37762647910128,106.79341819665999,89.07145474137334,72.88483977574418,60.675496505356485,35.818093023039864,-6.904542914535462,-45.9752875792457,-66.8836502908851,-82.52608391960716,-99.37602803482142,-100.63824634582687,-84.47312813478545,-71.4320565695057,-65.28506583649016,-50.72620458179371,-25.79317612375972,-7.895179800143939,-3.637756836251384,4.013999928765337,14.979479397993057,9.162181154857056,4.3072680435395885,21.89163296238604,24.124114279670177,-4.545499750900515,-12.654401614079866,11.015733345592778,23.555415155036734,20.00304965870434,21.68277751993794,23.212469005958493,11.915288669484948,-10.85795230910958,-35.55173030175558,-49.09236714412294,-52.119762619366185,-57.62583013883711,-60.019539776709614,-59.565730244777896,-78.46116420266499,-87.88836865835877,-62.425622924708364,-78.56672912258034,-120.14113470359072,6.127324004567441,393.7228212673996,908.4302891604281,1101.8753286171716,397.69342993482576,-829.563115993355,-1253.3246274442415,-637.9491279145752,-127.87095608458051,-98.30501092934402,-2.531226739202431,137.64749333410538,79.40639527084967,44.14996070222201,95.00636096783835,64.20265426625703,20.81180963737861,31.377941634919196,15.804332521720912,-5.563772155548788,5.960854606750139,8.823387184350203,10.93511290853796,37.808251480067575,63.746273118557795,82.05007537049022,103.75456897406792,114.8474550296645,111.88481928809063,108.49602163905148,99.0927776510792,73.09803430963757,40.46784265104165,11.101286996620978,-20.193952554953825,-51.488642879169284,-70.27356651057273,-80.63581528969613,-93.28851958754687,-95.28087989749048,-77.67544455041448,-61.30421441241361,-53.72227576257412,-37.65915287764703,-15.71154986476002,-3.5923955826427125,2.497492445327312,12.321435741011229,22.43023825004741,18.002566160137185,-4.157823664150079,-16.452809459473627,-5.495438934565226,1.9239655739202544,2.110151940137487,15.615918267648087,28.31393258510333,27.845993419784985,30.79902093198388,26.872793256281525,-4.789374590567192,-39.293073951158135,-46.52162781003495,-43.89342655119306,-53.181377782919725,-56.64028905810617,-53.34441407615865,-66.94448534174458,-69.70559834902133,-63.29034978057872,-118.34038392911732,-158.48576933731232,14.900105223587332,461.6800945546471,992.7957229247268,1025.8306232819382,87.63076944524425,-1036.0127086116731,-1072.4258741820574,-338.2519520696326,-10.712366719150758,-66.60266492913429,30.231040963373857,110.06256711949426,39.446281675186945,39.56824696414219,72.94878419649632,35.235621597575445,23.005498633817226,35.106007901580796,10.138520494919717,-5.53065703454207,0.5119739529127649,-0.4474214938548009,10.001320771337884,34.621993410863254,54.49000929509821,72.44424028051287,85.40452360871235,87.01278069639233,86.6777667881704,84.32576284742026,70.9818331473419,49.91276132119413,24.88650134177585,-5.46717507724439,-32.94175536674284,-50.70201312101886,-66.53670331377866,-79.20817479016704,-75.96551787851115,-63.04774809137462,-50.75365265858957,-32.7976607507809,-17.938787498663675,-21.11661343894876,-23.8109487599469,-11.46821666835598,-2.3449020495664215,-2.8574366953063617,-2.125018845355818,-0.11858473917088297,1.1624853351278919,2.913235823134733,8.195808367229635,20.342774735967296,24.976648567554626,15.949151514553304,20.067204237276247,35.99346879420906,23.75495461969448,-15.332278689109081,-41.35569515256443,-45.61398012578924,-51.63318511088045,-62.01028304451425,-58.68043089819924,-61.02454166790622,-82.81659918642148,-80.36950303864745,-89.69274031950073,-185.00990358658987,-215.08933540460836,50.06559332402142,594.9391432501466,1093.9729466865438,924.4435189929771,-134.2088972234509,-1058.2986642660665,-837.9592632369577,-139.47762770310882,17.474185805447043,-88.7455149220327,9.198495316178281,67.91600599358203,1.940915280253213,13.138282299907008,40.89560230080714,8.430113620488155,5.083871778337212,19.08913927433934,0.6408046613194198,-9.520636649289045,-1.3701131859404763,2.1409800480950327,13.305965802981698,34.85569492822142,52.60369626704227,69.06632602130696,84.49182606041083,87.43164305854401,78.31937028295053,68.00970549513659,56.3645578866976,36.15766350172258,10.729201206056914,-12.131374649797827,-32.3578052592799,-51.193478228383704,-66.48997545324225,-75.9980298192087,-76.1726659758719,-64.40719843862796,-46.25678458869258,-31.876390681920604,-22.46954454000043,-11.676050012606996,-3.0305621000784306,-3.763397656903358,-5.634527478439264,-2.5078405320198254,-2.8787231990230726,-4.167778617030091,1.3681059384106167,6.1184493001781615,11.13337103058937,22.436219005416547,24.621238545385964,17.404819649213373,23.363325366597536,28.06367340884335,1.0323460031122842,-35.2116672888717,-44.24219145660308,-44.305241801550494,-59.68511557721956,-63.738450734726484,-54.923958953378076,-74.07735291786797,-88.74444084936658,-77.13273917470326,-140.08300819631887,-240.64015978021246,-120.60322005802895,338.77085531804903,936.5417958641003,1129.568770095569,386.9454383574208,-769.1745379363205,-1046.7067124130867,-393.7045696839495,21.3134302622831,-69.54147200889618,-61.594786317832494,53.5341468685671,20.096052046166182,-6.748024570091234,38.31632516906576,26.477945042305528,0.3571976474834422,11.773316355265774,5.937013684666964,-6.931857723274866,-0.8809021040644689,1.8183934115294278,9.18224485786942,32.95547733490919,54.895443071755246,73.10400153336573,89.83955121485454,93.7341734035059,88.8701760901159,83.15014079136647,70.76430136383263,51.22908539968703,25.015048355227993,-10.982656725236575,-43.52842958838875,-60.363128031826705,-70.54254744609682,-77.3320010449133,-74.47378969104042,-67.32161594579905,-59.15846739800236,-45.83765737839595,-31.23361468621337,-18.113623271858707,-5.671815277382265,-0.19405385230980698,-1.0658080053684547,0.45981474526857546,1.3589076715912753,-1.8296682445208248,0.5075253740452013,9.011133743406633,9.895678617095783,3.745517401559094,7.741792971212575,23.770216975292207,36.27722630157288,40.025748006371884,36.204939500853726,15.153777420673702,-19.860811880761446,-39.23511626729835,-37.591674144062125,-47.419723611201945,-65.89697468742804,-65.68124269253308,-73.15778266455615,-92.792671214562,-82.3402213391528,-108.72831052032228,-220.76459436083013,-214.02400967704457,124.32404299696876,722.7967780103927,1167.373297146676,807.1208958988707,-346.8351897006018,-1087.4160172288834,-681.9468100170645,-57.69042237408746,-19.995930894414357,-106.75977957499957,13.160066130420475,47.690371997510766,-7.495316462140636,20.06365065210553,38.54100081849429,7.075964770501406,3.6637226719501506,5.496811200975312,-6.205829423543359,0.12738353737824593,8.840622873558626,9.706483355271384,22.48937878942648,44.21634758972245,68.63200212407185,92.01359222205171,96.06702259879114,82.45879563876684,74.30561623027913,71.1460920885408,54.31376492955478,24.329280417837122,-2.254019910468563,-22.61133342377513,-47.052127184618854,-71.77142865711573,-81.41006948374648,-74.73952566875886,-62.956600111276416,-54.133531345714225,-47.81024779565468,-35.093908965841194,-15.172348189131732,-2.95118782727112,-2.330971672520093,-2.508665513073696,-2.9968679175736934,-4.839589402615285,-0.821803878768109,4.464761601863233,2.644150726139115,0.4281898749867725,0.10192103582682943,-3.8628339108053913,1.3854718647888244,28.920548769677847,56.27233528177144,56.47196251603697,40.87051718434276,27.692075462550772,7.174906951023685,-24.483019400525738,-43.07413058293699,-40.715966818820554,-43.22421939743382,-54.800151739613895,-57.22248353876162,-70.60815733041481,-96.22134931403099,-84.77486724125369,-88.36802773936998,-179.55874244276322,-197.5511970307481,62.76886683332046,583.8179048330169,1098.5826803057826,984.9419131544996,-77.60156467232025,-1089.9743394256438,-929.6871234253429,-205.4281758226816,-4.613287953651955,-94.5159066150158,10.077079174072011,74.85310159923367,16.4991556543327,39.55387665929376,66.83560724061786,18.502207559144626,7.4264972950846655,27.483278955263344,11.8639843075626,-5.1010765985417255,-4.092283889008147,-0.9192915072067578,11.330494925847333,31.330945348578478,53.8189592053384,80.82848569457714,98.40434410485335,98.79845184300696,93.67750159937646,84.55829567248352,67.66925389647831,46.84001955007042,18.45583861151045,-17.22130745028877,-44.43307734819513,-61.06544960907421,-77.22963698604494,-84.26779590896379,-73.87529704656914,-60.30473730332007,-50.740015853919616,-36.400220297907495,-21.374787843479943,-16.309207934015667,-13.507743657598446,-4.510176625566819,2.2753017452525253,5.4814206840815105,11.650277201094417,10.149335514039219,-2.2559909087657406,-3.8133612930643936,7.717216977349307,12.996599308494028,9.91375555628526,1.8336704408279951,-5.883211849696552,5.152457944382958,30.330109620291932,47.79497405743106,56.535762623809,45.31589524563974,-0.8577989996879971,-45.74150788810077,-50.91653213909173,-38.05622330490969,-41.51362695606775,-54.59100925194729,-57.54887111675523,-68.46813422031097,-94.655395476211,-92.50421692247726,-89.78719840654836,-148.42819570452107,-149.44306831377475,95.17080106039052,613.0929516752062,1133.7627445186397,970.3873801166146,-157.27727860538772,-1144.3769885158288,-921.8089389256081,-208.50892661212262,-31.28011367611994,-87.63383895369294,33.930305951304916,70.88039218131996,1.7199658038440875,33.141796501457634,65.52697003036644,25.446834614812367,8.399796262122365,10.880212668183542,4.89076287959537,9.11531315429655,7.146132604657447,4.235487334015005,22.85754988606728,40.4091076850546,53.65411316654453,83.38161765204225,107.93754764953161,104.93798623847117,93.20915270777718,85.15100135498149,69.11460868218377,41.7438970140934,10.954336581260762,-19.185108651555765,-43.49825584884606,-56.93130692415953,-65.61544123771851,-73.30306056223688,-71.84783832105374,-62.04705085311873,-54.08992295129566,-46.64792014111739,-34.75896637195222,-23.413664019041953,-17.343155888585457,-13.815860423809395,-7.455055017186098,3.205914288774938,12.40209218581406,15.253292445316404,14.850402060338556,14.826202020584791,12.722133486101233,6.718518665648878,5.016341151824534,11.850678995996885,8.740054608133978,-11.015980112212484,-14.570653267325406,10.036439092440844,28.28939707398078,29.8393158331617,32.87058653626772,25.058637370166995,-9.318123469651553,-41.77746257226967,-45.73357830749023,-46.57695141161373,-65.8039693912292,-72.8775317809858,-67.67387266398013,-85.08806811358285,-87.55899853333763,-74.22168256349907,-140.21090824494445,-197.1039294839336,-4.438145647543735,477.5473483574478,1022.3366771906236,1082.7459876251448,188.9421095015885,-956.3037187636651,-1066.6510105183575,-346.6991390387958,3.850633460024504,-85.61567245620535,-27.750075973686258,74.61858035389433,26.52105221179846,17.131910497977135,54.295092096025364,26.803989942182767,6.341295399209454,16.977540690765505,5.0605595747901315,-3.90371190445271,3.1651038462222507,1.8779945633795823,7.590855545034408,29.96650654977597,51.57532780625521,70.41414671605813,87.21839612908039,92.82799209652742,88.78142714000951,82.61828392160996,71.58094997962486,49.35819140865792,16.84852730397084,-18.454352887621063,-45.92136485787508,-60.85472320741782,-70.09503708526658,-76.00150905362274,-71.5329559631157,-60.92321987189975,-53.80205262706819,-44.8610236918055,-30.158355779705637,-18.554136826082797,-11.867440256634138,-4.066429131441879,4.5172230017812245,12.262864009568762,19.895367879714033,22.4603643158941,13.967148226769764,0.9647304622202428,-3.942939786764767,-1.5108039096189447,-1.1394985024060489,-4.521316711883756,-9.250914648041961,-12.489451453059194,-11.831310536115485,-10.994820281910552,-5.211381899317069,16.05939172920769,37.41019070119236,40.81217978239624,36.02944641362235,23.599689425848158,-6.174438268579527,-35.97607912427649,-48.0061082469922,-53.678829405969225,-66.69284755878527,-76.07197513688098,-73.13843646369614,-84.61876572831147,-107.44893616800721,-102.45949860771198,-123.70261371562984,-198.94356440226073,-132.7566133475137,245.0630407596358,820.5030260213148,1185.4234102619866,753.3822162424867,-409.027930414005,-1115.6468448630847,-692.5066070819353,-75.21940470891715,-35.60111144448334,-108.88815215230977,15.244669786752894,47.32631554453768,-7.210672694090079,21.654524598678584,42.41313880023564,13.444649186402879,7.810644076587433,6.136721871173734,-7.9624121576702365,-6.866331022431895,-2.3907157170920694,0.3919376457844326,16.996268671066836,39.175323149310806,58.87479609922432,77.96191645304536,90.28071881615871,93.58822466209487,91.07596720791,81.16331371808211,62.31389201443643,35.51297210546747,4.477891180250079,-23.823709247898382,-46.01063506527702,-63.444280036964614,-74.9564841105542,-76.27067831379561,-67.38664180698514,-54.77811580518012,-43.40026855098999,-33.17118458924961,-23.39530136322923,-12.750946346092995,-1.4811256310476075,5.898173371116632,8.85398214686996,10.627270379743155,11.428792473648892,14.401747133197803,19.96765507766648,17.901717204113684,8.022712097372612,0.7281827773092626,-8.435445273904127,-22.63245400367791,-26.41822872674601,-19.312357216143468,-19.510042643195153,-24.78789677629803,-24.221947093059292,-24.722693808094427,-20.78815444932337,5.091086965237406,34.63805427599878,42.057755491506626,40.45147508904351,36.208058628244906,11.832172660589169,-22.257800456675852,-38.89202284467653,-40.53443810289225,-49.541108759723116,-68.00753679530663,-74.4050000252171,-76.6770550515495,-94.43164313552568,-97.6470581526386,-104.7685025714417,-174.31595530408867,-174.8497222277383,107.85497166833346,654.8185126179692,1150.7202355187314,1004.4195493720846,-44.99500738339904,-1058.4813272599715,-946.1341339102962,-230.87484116039607,-3.36816393573001,-110.41454105305773,-28.29080599780545,58.70471580555211,10.773298075915813,15.978403267434498,48.520480668686076,20.4587777233871,6.953440098720435,14.812466349533253,0.27460353228014034,-7.588329741952038,-0.7584952456174356,1.894498211162439,10.960464938463883,30.305203442900005,52.245685186787206,75.89567670304329,94.25649277115068,100.80234355160476,99.53218371110236,96.0206310447667,87.21608440686873,62.300072753249445,24.782567818514643,-6.937674525433344,-31.681807424355252,-57.6289007180008,-77.39107189875962,-86.36525439570177,-87.93109578044341,-77.47465738126917,-58.661538180040324,-45.26542265036589,-35.65756816218728,-24.70316986635185,-18.567033460461545,-15.966824379239974,-10.977798663266274,-5.595712286999385,2.2372031412064963,12.30166839171072,12.60279847196637,4.633330278561321,3.339745002173231,6.824147243731746,5.613233633902886,1.8034733288678808,-1.594825631042223,-4.256620324742407,-7.933134939088312,-16.498497996669634,-21.186676493961684,-15.03302925014348,-12.047788771380453,-10.391844016875423,7.930900657172389,29.731097020595556,39.75118471965263,46.30034758786388,35.875933302560796,-3.339880652248498,-37.80458317785851,-43.87660831847913,-41.25956425019021,-51.02341371173749,-65.03165102610582,-66.98395036355474,-74.09851991164716,-90.99519234667838,-84.1667513274086,-95.66503529525878,-158.86416413726968,-110.63367753461738,213.51468983783582,757.5675484547381,1175.1600491993338,820.8619687704347,-377.6395990275317,-1214.1625616963759,-835.7509014937954,-138.0119151931924,-23.16126394942269,-80.8289255090969,42.56846011536294,74.05654931627646,18.163208576721875,45.0543745686703,54.36125820516048,18.426369032815003,22.61851587673069,23.48634712927329,-1.4083484960612722,-2.7132033641682733,2.105227267288205,-4.054867223392726,9.901960955816374,39.75210467751985,61.26473222009332,78.97256662730115,98.42689078001712,110.52148166975351,110.51099973794001,101.50304814468173,82.68892244212529,49.81944265740749,9.085158456914778,-26.20342611416024,-52.89241038601408,-74.66093378216209,-90.10825507856993,-94.71092257087929,-85.19725330515143,-66.24613389722245,-52.60296549730584,-48.53498450225354,-40.134646935273025,-23.061658353239515,-10.669020760141574,-7.869855900307911,-4.575429427520682,4.457730924673111,11.60754877462345,10.387273833399812,6.647875328089886,7.172888448053419,8.487123132301198,6.384053926370369,0.9021615410430588,-8.54733151790498,-16.904345207265106,-14.514440517355979,-6.591447789038522,-8.364879420249855,-12.894422541915496,-0.08843301348704724,21.579875465535903,31.81902009397625,35.480360736346924,34.60308220963922,15.186764154353664,-16.12740200802667,-37.88742638225534,-44.15682567802058,-46.75089108153072,-57.10074054465211,-64.54168192384039,-66.17935099315119,-75.53679901863237,-71.36119205795461,-67.21099782676733,-121.72246490309998,-136.35643131464627,82.07775501853186,558.588140777526,1059.072929386391,995.0402770879277,-15.502213549602004,-1100.8713449415263,-1061.1051713924635,-318.09874201830246,-12.843409403552307,-68.65711303009499,22.57266089850401,91.4428950124148,31.69379992057288,43.04566050755106,73.33375146741881,34.916401771441485,22.344851361002974,30.13427260856751,6.811484499923539,-4.2210598828878565,4.350073257670562,8.03183763147348,18.520597689516627,32.43340128032956,45.3161840958975,70.37864418162738,92.82009541997411,95.84214815974877,92.94442524197947,87.98663158760877,69.7763355560299,42.22328965575351,14.995818179581349,-13.388351912603431,-44.894772355354704,-71.10666285954596,-82.75697049938944,-82.11259498622553,-76.08606806504963,-67.62168231885144,-60.411762740774655,-55.04492881665834,-44.653601505649306,-29.025138601614316,-16.078875922399476,-7.060333603813945,-0.03780826314840624,4.497538911850988,9.911406682590181,15.804552247530683,14.614843766404274,8.599726704952056,6.253247916352952,5.642671628354559,2.716989257006033,-1.9259227277624813,-7.730676346862518,-10.94448170545734,-12.222996749928491,-15.489933238415992,-7.6585036621992,15.77080809158959,29.228862286713728,28.946072104853364,33.14930790079281,25.773719877037383,-6.00462083427821,-31.09100717219374,-34.495483660058014,-39.950404245237706,-55.73658474783467,-61.74342097589986,-62.0863278266023,-84.20022874379788,-98.57550856790665,-81.51573217233656,-116.5511158507019,-185.50111560941792,-68.77081291917513,340.50798837965965,884.5834403520358,1118.9286559717355,486.4439332686804,-698.9785813516903,-1150.5631231002806,-541.1814036746862,-1.917586450870619,-36.350744105608435,-62.95435709588002,60.49812696215557,51.67818093877454,12.571210191269977,53.809209231308074,49.766390022471256,12.006709994085156,13.403807452923068,13.111282176053681,2.863148123338785,5.535042601803969,1.3709490435759122,-5.174724772344586,8.250131869882864,31.73452517124664,53.92818809824202,73.84621983965329,83.57373781571287,81.44501148316704,76.21760149871912,69.39643568264441,54.38481640608558,30.15402027488342,2.643600669270406,-24.822255675059118,-51.34127432453006,-70.59574518835205,-75.78640431888556,-70.92283076784551,-65.37386247950843,-60.000612702196136,-49.82865237442002,-35.92471746449717,-23.585903563069948,-13.889961823071662,-5.5125076162852675,1.5506964150087477,7.392006010423207,10.268350904424153,8.057100657461767,5.179714587963362,5.528837259544347,4.96169510704472,2.6597713411006483,1.0637344083190161,-3.1579422509830675,-8.207493496756452,-8.831482893261185,-7.596918999499858,-0.8983539157812124,13.37181605276378,21.10787941922761,25.333711774886357,37.32689902376425,31.10282474666705,-7.129395051831564,-36.72738155365396,-36.83372280624647,-39.781013778525825,-59.77557815533237,-67.03515780396165,-60.08683123584632,-74.31941706753196,-86.40551907933727,-73.32120447447659,-114.08304989138406,-181.23048834760334,-56.61351408744022,359.84516580483375,907.4470919005715,1120.171963266946,438.8467358446775,-754.3439574306946,-1145.9157390855069,-500.57352277624557,8.26548371819892,-43.836777214183556,-50.92977503171014,72.96984752777526,50.73011220293457,16.4268631286393,54.30622896125241,30.90734670340195,-5.099519683643084,12.836734533831727,10.28294004408397,-10.024484011667306,-2.678987589996824,5.346596083054298,6.989989793809196,21.734476208617146,41.032326040921134,60.849896406688444,81.15093497915461,89.16049667779532,86.40440938004119,81.84851450404938,71.38434947304115,52.417264171203904,27.855836532987183,-0.14391161787583462,-25.94245715274907,-47.143501434318125,-66.54052188275787,-79.01034009774011,-77.1568202320707,-65.95339175343464,-55.831780975194334,-48.94909379872559,-39.59397501386882,-25.994350013937684,-14.17939717951727,-5.9783381242175455,2.56614357337466,9.72133104283446,11.632560797340942,8.7925694591339,2.79689364935612,-1.5177357028091834,-1.9513570963944904,-5.048578643250423,-8.990167004084974,-7.586761705165795,-8.739005785637094,-8.781889976980064,8.591587362000565,29.151151494295377,34.75921926272743,38.465056434684584,37.70280671674048,13.142693922527922,-20.358667321709436,-36.182861282615036,-37.39799472355894,-44.73217504863584,-59.28229355930699,-60.71275908366077,-61.6525325270872,-77.00587105671248,-71.0717075333237,-77.15769322886663,-155.21706678898917,-156.4857558381604,119.69940316883859,636.593350462255,1074.0036017573584,835.8299965758911,-245.6539781455532,-1119.8796048500512,-836.1166361828905,-120.79778381794988,29.690983542475507,-77.97328139603454,13.589540799939165,70.49217060638239,16.552983087241245,30.632731469593377,50.14449506037704,18.143582700072376,16.04531700829668,21.70284183957999,-0.2569484262843664,-5.446234637219841,3.460833350981531,4.874420156087542,18.83377115823278,43.64547940677015,59.575139981277964,70.58587948541224,80.89319364702001,84.02388234017465,79.58280837141659,71.53557633839651,59.8034193589736,39.68466217649777,9.924150046043078,-20.50910161877831,-42.67638820295507,-57.22730742122776,-66.01863313487549,-67.37409973836894,-64.2990653940733,-63.06175167567959,-60.70229430841099,-49.15126308740973,-32.34580963021261,-20.89954175664311,-14.394075425655721,-7.4249467370564375,-0.4683247888922448,5.689310674893237,9.519807948238377,7.439463353680139,2.5950461698976532,-0.24635332945884159,-1.7676651102169245,-1.9347607529886535,-3.4314726252225176,-6.087449960926763,3.076648021819107,21.950734722384492,32.114972071549275,38.81248656689912,45.1069316090374,24.813627962897506,-18.410492379990004,-43.06292659023035,-40.98716665334901,-42.132399817784744,-54.740561707996925,-58.08017317588798,-59.071672919723255,-74.29995463956564,-69.81365804970098,-61.700551150164905,-128.91250703303757,-174.29760859421762,23.137963954678014,498.1107503190129,1001.5301644363122,963.1297946100395,14.332328472824742,-1028.7822064835145,-991.2682895834268,-248.13008342345893,51.878701237330944,-46.66296446770489,13.259949088139479,86.86047191502118,20.97319121566622,18.218081106026364,54.7178503659614,20.524114373643112,3.246374938725779,16.00960777803759,-2.110542676189864,-11.948009860348776,3.1271270490424037,7.40617226600795,13.080805681884755,33.481502672391464,52.12134181343528,69.07231031529983,86.85105380157593,94.19532746197298,90.67536197385749,83.71740882480903,70.52891227221211,45.53036394515556,13.590919627226839,-16.242780161862935,-42.62504097690338,-65.84412800482343,-79.4843280025636,-79.49549563956086,-70.8085002626761,-60.365151431797585,-51.39687791140473,-43.39032080709322,-34.313584027208975,-22.85503382718699,-9.870924480698292,-0.20884102800923543,1.199509741635822,-2.708621687065765,-3.060449469707189,3.4058759958496347,7.663537069391026,1.5891330627231977,-5.760102543135307,-6.325286005375453,-7.086766661465565,-2.5287447754985832,17.366020812033465,34.054511569492476,36.648725622177466,40.283287313229536,35.61434266283588,4.760874201213413,-29.407445994894125,-40.740116214514664,-41.90370981489164,-52.62276363416916,-59.87625752745005,-52.26598643727456,-58.42779823979239,-71.45521863061265,-57.69518628346429,-83.88508537385978,-166.57595290993655,-109.76019235861114,234.47216731038947,765.9085531236176,1077.9393100866812,563.5698847946373,-611.0704716290958,-1172.9852327628291,-612.5020156295632,-6.05638846662082,4.690141087397812,-38.702162882871974,75.9738161424529,70.33970228354627,22.248881166226113,50.76819738489709,36.332310448437994,-1.9271265958745083,10.25511095201751,11.677344694973653,-7.013356624397765,-3.1608594294253196,3.9500930843690867,7.414426290839957,23.230285543420017,39.32456939294936,52.88908183438859,72.19406499090434,83.9793744885354,81.32002246215953,77.8941365831287,75.02056099304414,60.16604884405004,34.56469991124961,7.845403649873739,-18.665227722008858,-41.550763284094984,-55.51151707795264,-65.45800724443858,-71.56368364233936,-66.70912723567116,-57.38837114795296,-51.002002563945894,-41.733489694639786,-30.118313263532663,-20.780199232096827,-10.955605642144675,-5.226779672717111,-6.279548894526233,-1.4944739005787149,5.835390053662914,-0.8875909003522651,-9.339191471619621,-3.8471593267864765,0.5132969929740963,2.021496409891037,17.69435322998794,33.67022990917848,35.16238691502943,39.05309461944841,39.345281524735434,10.850088503326146,-26.89649813942343,-39.24957458182988,-36.516730863221255,-45.15466220205518,-55.23937800838672,-50.15390769733585,-54.50759992208995,-67.8433376882223,-52.73999622368734,-65.107521548363,-148.39806297076655,-135.24267799013597,153.13205750680166,671.6824950566863,1061.021759800397,682.9997847757168,-473.69323309579875,-1199.6526095787656,-745.7434427270913,-57.052964650758916,31.70647473774107,-28.900632386466754,84.6736335514765,91.2406479156234,19.296310033861456,47.32244546095076,63.320287424130335,22.90081434209895,8.680799523295452,-2.9075653073960144,-22.055709074593338,-12.587559242002811,-1.0618371149399675,1.285608175696968,21.851864494163987,47.50401514642098,61.03316394661551,75.39361361372374,92.03501008880755,99.30569697049992,92.83792974653242,75.6494700386236,57.12184344965587,39.81063519301707,13.934219703568921,-20.0997524737386,-47.42386698516469,-61.97962599635658,-70.09812607867313,-72.43707998501436,-64.20698117280872,-52.43625424966956,-47.91549598164026,-43.91383977113498,-31.005742544017174,-16.366320900226945,-7.629639799244462,-3.54893071489834,-1.6116525800021329,1.1182741824436953,2.375152066361725,0.20565706185898236,1.7240197593949915,2.3208578092170775,-4.244876457675386,1.9591599243754025,24.076655821261255,36.29065941030768,41.49896896967199,47.30411261729974,29.49976749025458,-9.882539073172596,-36.62052612004532,-44.59081130386825,-52.12426723690494,-61.332975762565276,-58.52801696290502,-55.587681212057376,-67.59520181690279,-59.08896595087212,-47.099457617825955,-108.80334547828278,-148.0623266962785,42.2514103629195,495.94407851179045,975.5817195086298,895.6930097108367,-95.59644145018078,-1107.8653455324506,-990.1845374004995,-227.7807165248913,49.688691404446125,-31.841703493373977,47.71982864802288,106.11795164288407,33.455718148530735,36.18222125574276,67.29336137964341,30.54695216288065,13.58684188878658,21.919265849360308,6.209582871817144,-1.097819687135969,10.798951521106208,16.949495886860205,16.05926451616489,17.338988395625798,34.328854767085936,64.25120315417198,82.82788277854826,87.05709799237582,84.87103338152683,71.83160105721078,55.133324831397275,43.18084132113757,23.564969269106776,-10.081367176004512,-44.221235622424146,-65.43433597946657,-72.01904276833383,-70.27367819898396,-64.46273270351828,-56.39808060521612,-50.57645048236073,-45.0413652148556,-32.55584901713109,-17.285370797028726,-8.31553343684555,-4.450262260849051,-1.0518426015280582,0.6793428876649479,-0.5137754325091723,1.2946185714921423,8.05340482780539,9.802115109041551,8.592589940123466,18.485520050758666,31.16688535808919,34.98133477776187,40.52415399191937,39.899027539876954,9.42626766405726,-32.1772534991103,-45.73601927676074,-39.12186729489115,-48.45615905729538,-65.0355901857738,-60.34538954119019,-60.07194989756544,-72.60039585675715,-59.80758138744295,-75.85785262839201,-157.9099071945958,-127.4553810464664,186.732348377054,710.0924468665303,1055.082555017347,611.1609785579135,-537.3183558520899,-1166.276250501533,-659.8366816216776,-21.46502091915196,17.30648796384469,-45.84525223886387,66.28259117699574,75.61288743492366,22.14264285043609,53.205619984383226,59.931779190148035,19.978853745853687,7.267304790223349,-3.581458777430683,-18.520003054682867,-11.007832486764173,-2.7829497313139147,1.7848668540821304,19.46732868113593,40.22116330437451,57.295654850866875,74.15755284339323,84.85105764062403,85.37139393063966,78.20729424910039,67.03876696716618,52.79261747191007,30.827264719957267,2.244798869999903,-24.787775597542698,-47.99288058585076,-65.4106566829556,-70.76096194450002,-65.85429546358839,-58.40943122965088,-51.039811686638565,-44.24186471116365,-37.125849414959774,-25.428761686763757,-11.740291793445682,-4.138747666045459,-0.1991744218100031,3.0272102764009023,-2.0687155619859006,-9.043123483940258,-3.8930718731754634,0.9153418364354113,-0.7245885482332719,12.911773393274038,35.07887750241719,41.71630026527788,45.799846754421225,50.64617185217554,27.910158704954938,-13.629757692717199,-35.731163824730174,-38.23879965392792,-48.11304336911156,-63.00661953804192,-62.758047005486304,-64.27838943088669,-75.37684711326949,-63.33802927835499,-73.27983633624143,-153.55985897541797,-146.8522026782731,137.79829845921716,660.0857977368876,1059.9406533719336,712.9757492175569,-417.24925895924196,-1165.461933154112,-747.0807870715374,-57.13438922459774,32.66323238531686,-54.99010431008509,48.78558812985905,76.90537105320756,18.187573962007143,41.8242031875138,56.24837126192646,19.83030153779196,9.928698862381577,4.345812330826968,-12.923287586574787,-10.98719221805508,-4.760261606394347,0.3706491457625791,19.743638355867116,41.19200573226539,58.74935192138105,76.32186202076412,85.1184841025807,84.78863589294811,80.93036897665212,71.35981132216952,56.04138166204453,34.16288006826393,4.320821890495793,-25.31995599106734,-47.320730875908545,-62.36832658988945,-69.57893451892257,-66.79349983124973,-58.22757423654035,-50.96482182833328,-46.14913871596533,-39.87072001724094,-30.365217490528494,-19.305312293370267,-10.529298805925434,-6.231667796471083,-2.6839250792021936,0.7337501415243128,0.2680065542196246,0.18946347888534731,1.114410268099749,-2.590010504114872,2.4200360143991206,24.952878350063695,42.14284438482409,46.02651161693266,50.46615106661187,41.426389051088805,4.720715490822217,-29.76773353451267,-35.15017443312436,-32.85362820004287,-46.791112121165504,-55.26823450629237,-49.217954503741666,-59.73941442553377,-67.76292850645915,-59.67143913093226,-114.90509458818114,-190.0494332585248,-64.1517376475361,353.31155527056205,886.7387623015613,1031.8746662575738,267.53737543835734,-880.768507983501,-1115.3416654755845,-405.7027716768811,47.91284918809478,-28.601172660784925,-22.109653808585293,86.57395184159364,51.89650382816675,24.240717389342528,62.576546669904474,44.754510655874924,10.751097979671826,6.564382169033404,-7.852383873668362,-14.128517037414934,-1.717434653050867,-1.0472444799812184,2.4159569248705637,24.363642306085346,47.054989359490456,67.97482506385828,86.83017749651776,89.92896007851394,82.18671523862372,76.9120985285557,68.29898543364857,49.47956166342334,25.70231845576847,-2.2291185508332325,-35.154284382650246,-61.893383418920465,-73.03436148211938,-72.04175069066382,-65.37427625578422,-59.27584580241478,-55.412599174720356,-46.17600568557677,-31.677837765007087,-21.919270387390515,-15.658857407827906,-7.80193246289717,-2.7821570433926883,-1.4695856566619856,-0.7952242205052524,-0.6072753468473628,0.5822674874502507,-1.2144481386797281,-5.757533547917598,5.33781936747375,31.2620164881121,44.69565753989087,45.1896374362195,47.13658643477704,35.99859878073815,2.305061068929571,-27.06034637119958,-30.553351441613476,-31.358632769968995,-53.23719163720271,-66.11112815020759,-57.495230067563114,-65.19588066454375,-70.40767629986385,-63.14299918781994,-120.1677613778696,-174.0553413081109,-5.832979891166673,442.28347750592184,951.5748113966667,968.0455386858989,63.92159618334338,-1016.29513673409,-1038.707423015451,-282.3516173627336,60.78858026054833,-42.43460273998229,0.09331030826677988,88.48408413787756,36.42607033442165,26.057757433253656,59.624539179250064,30.573046081182977,8.696728472123663,14.31961138357455,-1.4239417535485384,-8.648531563909234,3.452809082137791,5.312116275108634,9.619696475141506,30.17914376525907,53.44534029179783,72.88839435944774,87.59716960515023,94.55349684146903,92.16887638319281,79.53978515080117,62.29130887759803,46.74760721884668,25.451436384912384,-10.779260753702232,-50.70294748222509,-73.09275510707938,-75.54753152768747,-71.9996374944847,-67.57242297884208,-59.768568380774795,-52.437531775157126,-46.594996243225,-35.322632248728524,-20.22484862017449,-10.790519164200028,-6.427478109004799,-1.4981308962762103,2.07654460364558,3.339342412751299,4.82486907890496,4.719149533988163,2.619499297515456,0.3487469234799434,-0.7660767471270522,8.053757991709,28.38396038065493,43.616266872181825,48.67870436172288,48.6521568365137,30.38616009878322,-9.745379681187721,-41.38929136644784,-46.20179660962139,-48.03396178771532,-61.727414305956685,-63.69377454230334,-58.58958372219164,-72.30673698899672,-71.84311099524959,-64.12814274565477,-125.76233748507784,-164.96031781433715,34.92566610450709,508.6293022304317,999.5805500061721,927.8931420137105,-45.25290925335102,-1061.4615698838816,-977.7638835291662,-230.7625815123867,46.28891307804604,-58.26932475595718,8.369322033405282,89.76881545224995,32.09711462122388,28.128046309859858,58.78991694792742,26.048284057051912,8.515932816767002,18.222189391525504,4.863879946601181,-1.7503468832925888,7.775756735890342,9.34198774623183,16.150458151994332,36.775297683502366,59.24089267309434,75.4364349688392,77.32203204738643,70.77119346765265,70.19479250352055,69.54422012581243,58.10070730076418,37.37354340409884,9.994570054510344,-17.339436591147567,-37.80542097071041,-55.62169683165142,-69.83339417356459,-71.44669980620509,-64.40853753290831,-58.31882304443075,-51.95036513597578,-41.56616054163308,-28.297695076223654,-15.922558920932353,-8.206914285462897,-3.90908728027949,0.17928469620523124,3.2013296175563593,4.880517383792792,5.792844951725263,4.985586197283037,5.00428538940438,3.7798486710211945,-6.46937517784591,-12.677515738015193,4.775292201293736,28.059911026061947,34.008144259194,36.689856968298656,40.862558324351006,20.97444447186566,-18.89368188617455,-39.810926146603975,-37.649806401240845,-45.93926115691548,-60.375318064940934,-56.21169313982084,-61.130762906484335,-77.63462363950201,-62.03285826215053,-74.75549616011848,-155.8883359064212,-118.3656783925679,209.07362481786862,739.9115546673919,1081.5378622534686,625.4230404508246,-543.0808458686192,-1189.948719506101,-684.6837368331412,-36.537063384897955,6.810964881898663,-54.403559419902656,62.94389895828051,72.50846126966226,14.379086595348923,44.72284380607445,51.94539962326752,14.820639244005932,14.784550861910844,14.186568112583277,-5.08882991464188,-2.6310346673150873,8.516531149269554,14.485486047607594,28.815734168686973,42.53218133269781,50.97471768032254,67.41460821391253,84.10216669161673,84.55321032759284,75.25021004449499,66.08755628714951,50.69791904968905,26.712184810310518,2.1968974633982645,-23.30065967401389,-50.527307074052224,-66.92540789526095,-67.74005409610211,-63.329892673242405,-57.902712713550045,-50.214656315607826,-43.34166152138823,-35.74988097788061,-22.829941374008808,-8.777507838799224,-1.5971574847666083,-3.15970604203471,-7.514251758403928,-6.558487840743815,-1.156249491658114,2.1612452997961276,3.0089034783505326,1.3020097852720944,-3.9367011612648852,-7.183112461200395,-7.989705551577242,-8.024294819407642,3.252056766875807,23.38601364278535,33.15753089059635,36.19959515415812,41.77071848430204,30.345822347390445,-6.069933900996529,-37.128204446422906,-44.889317346919185,-50.129474043298345,-59.42527954529042,-54.72443075371966,-54.94587041542399,-72.62435187008741,-69.58022694489432,-82.02225667203462,-156.74725586316103,-137.5665986864077,156.72293986627454,674.4073421744953,1077.4095570133345,761.1651256032147,-362.5470565071858,-1169.316278143107,-804.7573256270373,-102.26809104194483,17.677285975205045,-65.2039778396094,41.59688021181853,78.17948797148006,19.82497858692219,42.272840728160816,56.85462016934691,20.18485995483342,18.564332202917242,24.75147433973177,8.20509149908237,0.7996756752013283,-6.981296816522978,-12.953094581285788,9.425518703041387,39.79228997945471,56.73335436246663,70.52721766614296,81.07508597048121,82.67364110124227,78.99609687083218,71.96096274189216,61.35782246939819,42.234629068293714,11.59501758237016,-18.570390973014227,-40.59157509886388,-58.371342271000415,-67.24108567978342,-66.75709562701668,-69.16572715348416,-70.10071439090807,-56.85498934769498,-39.145400574689475,-29.24831433343222,-21.435250977486255,-11.339775338501637,-2.738111700546728,3.944906861968539,8.962885270606703,9.762957355457509,7.280230944508036,5.7949126819406285,7.11134105176674,8.00158270090178,2.4809763875331727,-7.1688374041589515,-10.163053877405376,-8.166826712424271,-8.134456788450596,2.2391720229966214,25.914588990403544,38.90624346567016,38.626665589129274,40.68772275919464,29.013773434646637,-7.973774946085375,-35.75394284861161,-38.65228511094527,-49.823475971080796,-69.75259855684547,-67.48530696657937,-67.96959101438799,-85.91618294021518,-75.77874413564908,-82.99282677983219,-163.6954798891578,-147.6749242489998,158.01822136326228,691.624283128285,1102.1620513288187,784.0530805825738,-348.1918769196351,-1168.8743272223535,-814.7031728332886,-109.6526721673348,15.893878999773925,-70.12498195098397,34.99940126094547,78.07810820759933,23.055873939908338,43.60610162641978,57.57265225197285,18.754866730066016,14.110742366305406,22.461137169033375,9.913383195852134,6.027158092758555,4.388092952934343,-0.024206555910737393,13.191509227333029,35.068787483005195,53.35603123427687,71.78098333125372,83.57171327915475,82.71966268621088,73.4466507966962,60.65127299698859,49.3224328229452,35.12050505196758,8.818482793319696,-21.488627439819393,-42.59598060189417,-56.92762668749768,-68.08976274706424,-71.08746953466155,-65.31732259113252,-56.83362150349994,-48.507650847920715,-38.83024435027748,-28.105677298244444,-18.2061509720292,-8.620861996626035,-0.3534880488165637,3.989518343739766,7.368985965757893,12.331881767313421,14.394698217608996,11.589715209454859,8.46169666372114,9.088129255082574,9.612654803128242,0.5171857844006542,-12.701323584676484,-15.163103586921912,-14.165377101608218,-14.891875459792832,2.000975240052233,29.374753486527947,38.60948525316033,38.58298962393056,38.781086314399985,14.003247559342245,-29.69580265392295,-48.252761946966366,-44.14518469254653,-56.394249944802894,-71.20033769132016,-63.10773188780459,-69.41600442282002,-87.49179590473148,-73.46095077707216,-97.03357723080818,-173.52823101733344,-88.12502360281138,302.9890642135873,854.4746523908722,1118.073677446484,519.8990658239426,-676.9869627129175,-1183.2318905803143,-590.1912434037388,-11.179748320437064,-15.610681070338288,-45.25049081443709,69.9246352653801,61.03255552094151,21.77198366713676,52.07624432999705,38.39498135419559,10.884767400043692,22.65855415347204,11.659633771643115,-12.472814480466099,-13.844792205328234,-14.0390789456658,-5.280261673759634,20.66029423518153,40.040006847363955,57.377638649973576,77.92810393016902,83.74566853785251,80.53634332055881,80.33887330738838,72.29219026000227,53.02937319996581,31.370671536498865,6.8497304916245385,-22.885322581529643,-49.578427768878676,-62.41491024070859,-63.97518472658388,-65.81990164009123,-66.19889656179645,-55.71092094386766,-40.23627348215174,-32.04591147090794,-30.54168802864114,-25.63793887809262,-12.767822239214583,-0.5392689467473311,4.989792754377103,10.696947809966584,14.9757979550367,9.99876357111501,5.855134901120086,9.932397769538497,9.613242125639111,0.8073023347893695,-5.549040070530965,-5.550035161238238,-6.578289088660988,-12.642065902735293,-11.478298811106114,4.574897986192795,18.95935537734407,25.464594654805143,35.110578907309666,33.79780147250894,3.7764345015689935,-31.565687557494186,-45.662276087063326,-50.59789510933793,-57.328226707817265,-52.80189029421011,-52.91534271427893,-75.55521692040448,-76.36161469958984,-67.80284179813313,-128.44031193962977,-158.01213445681978,51.646454492150184,528.7056453186476,1041.6708277042073,1006.1999013612484,19.412906216783256,-1076.1794756966297,-1061.869423918066,-316.87152183507203,6.776637240244455,-52.23717396615567,25.155077226453407,95.70796631223925,36.71153032697514,31.937797880447953,51.486524962769515,20.448010586201082,14.51448787274284,20.798503151935215,-0.2177398381012372,-6.237644410889473,0.8041548909645115,2.022624676001854,18.71623370400102,41.97372341032271,55.16730438763047,73.48156868020683,94.41328803868291,100.69958178268709,96.38356866360797,87.44081374552755,69.62881652626214,45.71932692312206,20.82291335072569,-8.61374936193868,-39.64202734542515,-59.42245852993756,-68.18591845164248,-73.38480896781623,-69.43577480343706,-57.0480204877789,-50.55537567892165,-47.787013956566106,-36.60597975602438,-22.859959485332766,-15.408871256047547,-9.617886607765014,-0.5492256457350404,10.353603244757355,16.52553909434515,11.625969345889564,3.4742473113980603,2.4756772654242774,1.2872463635816587,-3.7016116457650927,-2.8850335442346324,-2.875382881264141,-10.052015600056645,-2.4558968424618994,23.809369226726854,36.89557186804298,30.994775484853005,27.279270845071167,17.044722705635444,-16.20743181099204,-45.89675015311659,-48.37432374233504,-51.20032999336378,-63.41911144971587,-56.92023812515484,-53.80700809514903,-67.54585038855951,-51.849860009265925,-56.463006876028174,-134.73228906441372,-114.97554708849292,174.49297952043162,675.2794370414141,1066.3584921579024,726.811131724698,-430.699109034573,-1226.8187489332784,-824.8978158466957,-121.56799345115627,0.7942981780060165,-40.50713800265192,85.70858986703368,103.0290723789442,40.120022068047106,68.41245886535181,66.81279206800744,10.784506427299064,9.122144409600239,18.46417721084875,-6.528775483431152,-17.87809168279041,-11.260589818277555,-3.2902492127612444,16.016551419586065,40.545082183093314,62.04270362552961,84.06785299434422,97.22341269861673,94.86044405164775,88.61837190297042,84.30000404382626,73.23807949098254,48.64935585879423,13.649940406795908,-22.01819431654404,-49.39930394162411,-66.02086582850711,-72.74776427186026,-70.42868780662468,-63.83882728656053,-59.59829730362323,-55.66483980673569,-44.83357733412039,-29.929530197054582,-18.980484448397107,-10.699272452208735,-2.5920518416827676,1.4246372237623017,2.2583604091690432,4.831239874160908,7.156008566747165,3.643671628972996,-4.920421249463885,-8.686557239459216,-4.731595368315624,-5.525199240108098,-8.04505546123608,6.155609292487585,25.632739327790894,31.40551320223622,37.27127280269766,43.04247254543711,20.557065123408126,-21.67094881272446,-44.546372976092975,-47.59397067427712,-58.330334209275016,-68.3209233160614,-62.96763198599444,-71.09589929670634,-84.01478950696082,-67.31998847066566,-92.12334613292552,-173.37235834501283,-107.40646295577355,253.80183056766205,794.3289428662174,1090.946076107506,552.7591383476754,-620.1564760482918,-1161.345996008719,-595.8021817265331,-2.6755501771106527,-2.714810484434878,-48.52685466281956,64.53406200993822,52.655509107389946,0.6128885524683891,38.974726224453406,39.262198894126705,2.6709654062236865,8.397180311727599,9.064442919719646,-6.835865116937131,-3.1584055042118133,2.22653480914016,5.510886091558525,24.11441029871741,45.554930042359004,62.062593022538366,78.83539850169099,89.55158425701794,89.7648979060256,82.25786161654227,69.57889485912729,53.42495503901993,30.073263168804893,-0.8123669845862631,-29.18157409524266,-50.77059693631883,-66.42447013051745,-70.21972828083518,-63.696004849559145,-57.966186702381684,-52.528257154659656,-42.220704234599175,-32.16674192177041,-23.557085635165844,-11.830109558936403,-3.187646732678573,-2.812123228851819,-1.015265638536615,5.195162694144133,5.169808769079239,0.15440022972078715,-1.0619023535005514,-3.203199206888579,-6.3699081599777685,-2.8935512574551687,-4.7296713994618855,-15.157783908451663,-6.859465488856773,17.973191058634683,28.36622810882907,31.870792725147403,39.142404783076145,20.66568118924616,-22.439958077589015,-43.77320960421435,-40.95803083391893,-51.86905323280754,-65.65299685207634,-56.97903484767707,-62.00124015648992,-83.49145185283537,-71.83094913044663,-87.21437108835684,-171.5783577355423,-131.72062771453813,209.51596247281964,755.5792723980793,1104.51089588842,658.5537208767937,-494.2863362250101,-1141.419030321741,-660.4077107128913,-41.99939589344478,-17.276191872373843,-81.69444928448655,43.165091928094355,59.46766092794627,2.2468091281613933,32.7827771616354,43.58474449918406,12.319018880489772,16.092177996962526,15.471691883094755,-4.554441821132484,-4.1316333708546695,2.272824327208099,6.522808814665485,24.747818818046166,44.29756245961639,58.582594902015224,77.32641933415572,91.9138440703262,92.59666595657605,85.69009296581159,76.02884113121718,59.1170486109696,30.360090924178486,-3.153605988722524,-28.64441310402461,-47.24404675466746,-65.30974366479984,-74.31145352378695,-67.75667867459676,-57.099960740428855,-49.42642255532061,-39.24574998009497,-27.784726854069376,-19.513282289636265,-11.108947675318,-2.6252535514915145,2.051721850736209,2.8311366333352694,-2.8224736051804786,-11.826080814856619,-11.993397969536325,-6.680824977766891,-6.866479982515493,-7.468519764186775,-7.516044415100982,-9.657466854794047,0.3484668769058774,21.660927802028333,33.87836351708108,39.52978239022826,42.39811799906521,23.149532257220944,-14.151801948119903,-36.623241470348425,-39.829478250330936,-50.265397489803135,-65.90622143891584,-64.78745932807684,-67.94333654388205,-82.12821387292385,-68.19064246070678,-77.44446892809798,-160.45419568395934,-145.80060061536574,155.71252907226497,689.0279484980659,1100.146229996004,765.511371993136,-378.7666303259608,-1169.2240270272123,-779.9712027740945,-87.55013796996437,13.785279106358942,-67.83660028154767,39.16127447293725,67.58464856522058,9.50192612537811,37.903624090668664,54.06805302432862,16.11892911229821,10.885834025529263,11.196849109581834,-6.5868633812631705,-3.7743308034431076,5.578777677009162,7.483172572733064,21.605506476836197,41.84902213860388,59.10061143151867,78.57807021663406,92.20237574671856,92.92894722566135,85.97051887252641,73.72393311493809,56.37713361164987,34.68813518752735,8.448477487078152,-19.938962486922115,-46.29200896459409,-65.55311817138954,-72.27692030550648,-66.38725011624697,-54.19049784517986,-44.420037827555795,-42.23867480827505,-41.774849974765644,-33.49362116805881,-19.684250794787367,-9.509311495617894,-4.068564297238288,0.7688042280315592,3.8060004263607716,3.7817837920508115,4.798587750201742,4.1848780033689525,-2.7251280646865066,-6.634272808660828,-5.82009168904651,-10.18866096960846,-6.3012662539422415,15.354644724960444,28.530112545169878,28.84764272636692,37.021176522532244,32.23450192801976,-6.766705756097048,-40.8313695818568,-42.4373229548624,-45.47808929538704,-62.396999490128216,-60.6101526550204,-55.366810839033825,-74.21635796073058,-72.39054701392169,-67.99954248807394,-141.46912691600824,-173.0287507843152,53.85875307560846,540.6033115609454,1018.5507181135561,916.5993609236626,-72.46374131424497,-1053.1133188891858,-924.0706287149233,-194.5124569199681,36.74590139705272,-73.80804999450656,3.4870243778736096,79.70796885893185,20.816536447557013,21.76177707480261,50.05319025357511,17.86238334143455,5.5294596982212205,13.972501367648526,-1.8889500385894102,-7.365648865753553,0.4602873096457696,0.6538602725335565,13.301175104881267,38.5022726778921,57.38205978994509,75.49038816506533,92.03653124339249,93.97458862119845,86.61258027094827,79.34004821110867,67.09159504873872,45.36730496486545,15.248238146432797,-21.141113303039475,-52.496136592460694,-67.83185515049365,-72.9915482343694,-73.09859533997783,-64.08506375417558,-52.18123327111396,-44.99473001800685,-36.76752892686977,-25.231445774990632,-14.660792620683104,-6.373669910791403,-3.704724828684972,-5.3148806310648595,-2.0930952361494164,4.58079270222617,5.997223914278759,3.444685222671297,1.8687009031853243,-0.7292334055584604,-5.879219940207402,-4.019265815683958,12.012931211830207,27.362571749886158,29.982749798430227,32.57666561229486,32.95752300641403,6.922167993822862,-31.950385558658567,-44.66162480230013,-42.26862389505864,-53.98550819596367,-60.4173629054515,-57.272684048773144,-71.54264216010738,-71.70566430425505,-57.063676173088126,-112.72581066654567,-168.7261160550663,-8.136845861711663,426.13955139464287,935.2513990228331,996.5922526408206,150.7760246796426,-953.7700626529498,-1068.8272858950074,-338.9855565985282,51.721672010424044,-35.66290395633237,-3.74039064772672,94.32497352297607,37.311826590039246,7.104701278144248,48.09699069589694,31.292578156230235,3.5595216768303644,10.869639495657854,2.665192107641057,-9.646718998227362,-1.7947794436743116,6.460015071249316,16.309688997916293,35.88490133439501,56.340576261173354,75.73878466398865,89.2521344478976,88.3768437101476,82.02332568634802,78.94038199125616,69.64012708336924,47.24770985626532,19.0728744476838,-9.143881468231456,-37.18611519299908,-59.37364447331623,-69.93991958337297,-73.13046441501413,-72.13416671435078,-63.88279699540087,-52.68832416645743,-45.04800853324293,-35.86150604134018,-22.30449607382201,-11.845153642486522,-5.507489821069987,0.7032276380087836,4.565775134271124,6.771327770576617,9.09117185204515,5.087757942693514,-1.9418532133847357,-0.3500796087351006,1.4836473193995863,-2.628518224656103,7.51456962344392,31.154102705545583,38.99232241965473,33.32403669794434,32.89310421395106,20.876547906047332,-14.715334035442881,-41.51573399554244,-43.264383104643834,-50.23373927138331,-64.68581562740584,-58.644111896075685,-56.59471116741942,-73.76531916187432,-68.65670778878115,-82.31885344449171,-156.26860017346098,-126.56347603941438,175.2985114553493,687.4445458140531,1065.0961808855789,706.1392899940136,-422.8781315283038,-1168.6383507127357,-757.9595957346785,-74.6747746987146,23.37255647443387,-55.820337975340074,45.38959744761128,73.0235844270815,18.98146848102211,42.06311853924018,51.56723777963287,15.915318167638905,16.605102349091673,20.202496364242386,-1.0472204444237336,-7.114784203606157,-4.396668703460018,-4.8984986629926315,10.761494076080133,38.11415923715675,62.78576614747735,84.32827752419504,96.81284296032709,95.97473690181621,88.10286256523506,76.16545295573545,59.227555793079844,36.04691884068254,4.182338552049241,-29.765738075624366,-53.07827603464756,-66.23833994527612,-75.2263034707101,-75.17364193872488,-65.37265104644307,-56.24232020640769,-49.08484846278487,-36.753505421871026,-22.150005642940393,-13.587083073748527,-10.64585046343812,-7.689317104251945,-2.470194481458634,4.67592223523148,10.66277456021574,9.477160203150108,3.041010334637077,-0.6330427530769054,-2.640191725446297,-0.2379596871698746,18.3133717104755,40.88952672066611,45.41785970144918,42.803869162619335,42.78608222790761,22.163910428688702,-20.735580921852527,-48.181560988926165,-51.45492969220402,-60.26848839445377,-70.54526596197258,-62.96013130377725,-65.7139015689537,-78.36754381061023,-67.28484585825719,-93.10413411844482,-168.04763277600122,-97.42882496393251,263.07459204013355,796.2341172906504,1073.2049178467057,515.5538400458447,-650.6800160497155,-1166.181550629191,-588.8889304352984,-0.7493442941678676,-1.6264459055076799,-41.42910208080703,80.11785388546487,79.74025096643363,27.668348647457975,45.54841326447655,28.683434651620317,-5.211762035021426,7.090181375145029,7.218794182105002,-9.528365838764373,-4.8530399468750804,-0.08379018440177788,0.6073892553613724,17.59834464432592,42.779904139227625,66.26835455486533,84.76217128161653,90.92696209590072,88.13829658985563,83.31976426757798,74.64650770172368,57.74629323103258,30.409381824853803,-1.5220375754360451,-28.81870838304294,-51.51420432755596,-68.9319181762907,-74.10180771950078,-69.67821711440814,-63.22071117512485,-54.02661499643101,-42.910007579275224,-33.9913439998744,-25.526936964004307,-16.544135941192337,-9.332386185194412,-2.163910970288061,5.482452618118451,10.410354297884448,11.943240227221494,8.635397517953484,2.1225480656508804,2.399508461588705,5.660621215240015,-2.4218906880609206,-6.6489659945018165,12.967788742320662,33.915565241370864,37.65542464098891,41.40370998348033,39.78452895918183,7.3283050703239,-34.53582467132651,-46.51031560648394,-45.25640620572036,-60.57026588113541,-68.89151825778985,-62.04566187172719,-73.22198623856269,-78.61717752679515,-68.7004633889038,-120.72941846777903,-170.36583154281593,2.0583503648780663,453.654512209114,960.3331461888466,991.5076634111081,128.93355917561502,-951.6674707439521,-1040.87307736814,-323.22318854781116,44.30218030820277,-42.021740017348876,-4.165166268228511,86.95949376742126,29.090451005812014,4.901166107776234,42.237767030560164,22.912880974596046,3.028056275156665,12.323147613820773,-1.1887110357562998,-11.446714469167969,1.0099844998612681,6.094166348772021,12.104139423812647,32.81475506116257,52.65517330458697,68.533596303094,84.32725096743373,92.28025133292219,89.57766102097673,80.55012643870938,65.91972549457492,43.506090940641485,15.028192465201212,-12.835212477331899,-37.40520098309613,-58.744282710351456,-69.89230805919902,-67.9775474386588,-61.78411460262472,-54.74788602695942,-45.05274726923321,-37.06239194390734,-30.405102391073477,-20.157659003366224,-11.508512842472342,-9.169781018518222,-7.3962882990143335,-2.063332351218744,3.885192152585155,4.059658853734906,-0.9179279209551776,0.3870661182272599,4.773755658059504,-0.4009723048811402,1.5799568867143456,23.10090297501556,36.25500600021411,34.51626911379192,41.176733563620616,39.77135511585742,6.067964449042549,-29.142692492980444,-36.32892687150086,-40.531165724114345,-59.893841650640425,-66.13282364831547,-59.4102703871055,-71.12223740520284,-72.57814135222048,-61.06178285192053,-116.73636422077898,-170.1971266003261,-2.9893805305935075,443.90842157175746,952.4098393537573,980.7497317152313,104.44180681485466,-976.9861236649465,-1045.6331419487533,-312.8097693940121,52.981645955469816,-41.38068313338492,-13.251844788395289,76.10235800647072,32.17392432662454,20.306592920283496,55.08836765169559,28.299997036681166,3.3539702648630687,12.072517771814812,3.477358765516575,-6.719298150388332,-1.586294668011444,2.1930741149889794,12.532340758834017,33.53370191193548,53.88952207361425,73.41702479265996,88.97584780075596,92.24207721991195,86.09040714974019,78.66369599082054,70.60532413497971,52.56109230466494,20.528195852047126,-12.250993387023142,-36.10440004810597,-55.870726828227994,-69.76601498417085,-71.70505216600407,-68.52107759623065,-64.6519596714996,-54.482474710426274,-40.98772215577013,-29.95984441038555,-19.054380380711066,-11.937410846073291,-11.967184204917572,-8.110630107109504,2.0539094322803813,5.053273216308751,0.8671905796803046,1.1827263761718676,2.9669131962421744,-1.5041793636826464,-0.30967653226697256,19.504861230274113,41.24899199417908,44.50702786353836,40.68121426577429,38.47357485202979,17.378760120604035,-19.14344917874653,-33.72816491838458,-31.551052772285622,-46.90142229705334,-59.178573665514904,-53.26407186886495,-70.63729552639558,-87.6170647103048,-66.63584019758909,-99.0029363302596,-177.4692517674623,-75.9405544702644,320.17529218764884,848.0414958824476,1040.5765996452712,360.62771279362426,-793.7355838591932,-1141.4628393617559,-482.1197678879931,28.472906179614554,-17.212890589930822,-27.86731883814965,87.18966686415496,64.22200977686994,27.76260089596258,63.14374433717427,42.155640718152945,-2.4117685303407637,0.7264466551892887,-0.007139261468616098,-11.791744205040859,-5.861235985035806,-0.18467934195261648,4.178400998849039,23.738743284899464,50.10171592428258,73.61571918187862,90.0028145316987,93.47567540080385,90.24171954990939,85.90942983295432,73.10000238216239,50.670742632824755,23.954854257197564,-7.961985719986494,-39.43324454005446,-58.905652280119625,-68.7176051292755,-74.27708521650413,-70.81466761634627,-60.23513699953401,-51.61834345080143,-44.01698143779994,-33.47437821466632,-23.069823040477328,-15.095327656165601,-9.187099230497296,-4.998140005170644,-0.33619125353641266,3.3548675370962258,2.339739661118367,1.586598888756491,2.8669254082832394,-1.162427478178464,-0.009886266161405866,20.666233437754133,40.55304863849529,43.398533742984476,47.89165477668002,50.378611408762154,22.436735956578335,-19.87045724272351,-38.40066975283523,-44.36070633518993,-62.28596083021014,-69.38919457996798,-58.041908715540075,-67.33273121151007,-79.6287627376523,-66.51876641606133,-103.50494558587344,-173.37882990664923,-67.17982947566344,324.440615125609,850.8596588603307,1046.9359414841897,369.6361001349634,-788.8175193409693,-1147.8637935901738,-494.4852665795589,21.932315806258593,-17.94536472551929,-29.213191507813875,84.58871084848484,60.88199212523873,21.42220150585494,56.29273135166381,44.64183299518915,12.171177624612518,16.787483402795807,12.88377215528026,1.6492992240216506,1.2810831536814042,-4.097215783797797,0.9716510879346281,24.140079183735658,42.874869287591274,59.735285460505004,79.59193925153951,87.74572470619577,84.67899406082515,78.73178256641485,67.573312956187,49.887286843176696,25.474145746679227,-4.898112016195352,-33.32502886044225,-54.2427427820538,-68.10723817259395,-73.51029417921119,-69.16349319529212,-59.059257147507736,-49.644772447697264,-42.22697815762453,-32.7808068145371,-22.645049927661976,-17.129448855685997,-13.491761248693303,-6.2481476262126385,1.5946516923514942,3.6040917585590986,1.47198905476486,2.4672025789666145,4.107580327770265,2.73398069321821,11.94527425493345,33.702774039386156,43.45477116799588,39.19413275665191,39.739043395990464,30.57086106180546,-6.009059684419445,-38.5865740517656,-41.672827609240144,-44.33760048327221,-58.877864130633085,-56.984526364005745,-54.874545945487704,-71.81979111814303,-64.15290497391887,-64.95272845418438,-143.03610563341348,-154.5037392682276,106.42534490207822,610.2861597814331,1032.195288965454,779.3003095242116,-293.1276354429789,-1138.4292381628225,-839.828730167002,-123.73376996133976,40.58847081544147,-47.359422663819714,43.457840839517225,84.69374550611658,23.295670855837727,40.02726831771149,60.75465769381351,25.66121555652528,17.955788025021178,19.003671197985753,-1.7891450698583702,-7.633455584867701,-8.388728214868092,-11.535510908039841,8.576843780935363,34.817771356639966,50.4856821461465,71.18532821121113,87.58007940590983,87.21939594511319,85.1843874865706,81.26872843949874,62.65390189719579,36.11774490734456,8.622022171180348,-22.12392206734671,-49.28475169544098,-65.10115440762328,-72.41997009776262,-73.22183307831958,-65.54508395309591,-53.14563619201043,-43.365651552368185,-36.349109906611645,-27.389448135531815,-18.248667345612102,-11.60227217578312,-2.7721282868400117,4.958019222086515,1.8664209354025125,-2.0281311080404585,2.9248557333490037,0.01870390495132135,-8.37260020206871,6.432759723285512,32.191337924754876,37.29553379888027,36.938387941856796,43.22134615013751,25.173766299706855,-16.81247292605999,-37.896575354389455,-37.522892073516495,-51.859124282885276,-65.18016174785346,-55.372311321059755,-59.71281188448673,-72.24073740470743,-58.7860086026361,-91.12996822572846,-166.30931458411573,-72.2185852399137,314.3486782146523,837.4611621684201,1037.5884721033613,382.55726874793925,-766.0089125017865,-1145.402675719205,-502.72469083033627,25.431875660533244,-13.311766200820273,-32.928697175923,80.57701186294716,54.295220978380925,10.862158171772172,50.844439719632575,41.787812892244695,7.725366092451544,17.323162879313582,15.323105503648602,0.1544179852621932,2.9398789402400176,-1.0637029926228792,-3.9231347105726826,20.551661434185583,51.18286628313986,71.50425927781527,85.991254933209,87.77836711052879,79.01906832222149,73.9509541635352,68.82046073379061,51.41522505493518,22.389572802272447,-10.486561694575995,-39.75966322583247,-59.621926386749244,-68.98073891081641,-71.55511813119007,-70.22244130143204,-62.37477134290911,-48.68401174606175,-37.76157021830554,-29.499691282231076,-18.08478440836643,-11.415791834823963,-12.638772300549704,-10.059641873012978,-5.514415080469856,-5.37197231914026,-3.6919987286526634,-6.078396218950292,-12.507255186085043,1.329627547331159,29.96371312001229,42.880217150465526,45.74483499596102,46.644226693390365,24.351660425066488,-14.191748718160692,-32.76505587832084,-32.467039151581574,-43.98811628552191,-59.95156500464771,-54.95383687549203,-54.497387211067476,-68.80316086343205,-59.52096837480981,-73.23596801967238,-147.7654590365337,-112.60646090140209,205.0429462202007,730.1414126117454,1068.8546223334845,616.4021139606944,-539.8356869504412,-1185.6901431089348,-696.8040604739597,-53.012825557261564,10.281155574568771,-37.03510818155926,72.17678299284213,74.56956770994583,19.350403136018752,46.68436499103804,46.16576105583492,4.798128790381804,-2.575708519440351,-9.050495077308844,-21.97840740283162,-9.664816735073217,6.5721764480062745,13.002029870623849,23.130057731292744,41.896673871685195,69.51946315033607,94.15172542872446,103.74788390830125,102.13273890739669,89.60302833624934,70.36153855275529,54.07928987844781,30.23659501399922,-4.949852730305482,-33.44565873501006,-55.8549391887613,-75.30523474532586,-74.49950038149997,-62.90163870794088,-63.85124082855623,-61.071545135863275,-43.35229206013747,-32.98379942811103,-29.977739134298027,-20.743800051764794,-15.915137095941997,-15.43769684560726,-6.97662366411225,-2.1743822501102485,-5.645001426709811,-0.8266811682752877,6.724886179466701,5.66309619643451,12.008114560583838,30.29694351701219,39.4751750494711,37.23742426522809,37.423138527566856,28.301093147919218,-7.091939468330343,-38.70489813430375,-36.14681892298054,-37.82340104179656,-63.36236917489839,-63.30797252275082,-47.12974816356235,-55.008754836928546,-52.11931873255697,-60.43076849740809,-122.78785349922381,-98.02846466151314,165.16375201798633,637.316227657144,1040.4798993844743,747.391653988544,-385.54827194573136,-1210.2495711067547,-849.3629393059638,-147.97999925850252,-4.313496395944114,-45.67546489905499,67.74724526138425,90.79125579024048,37.33042712745435,59.0625927545187,58.98406482883951,21.554284609549416,23.789702038331143,19.112201632441593,-8.396825854520685,-9.255139697959596,2.556460549547623,7.873126196347464,25.42660569850472,54.847793227142255,77.77956936543063,87.40231454397697,93.62653095239621,101.6535596483284,97.61209913384577,82.3139926282658,70.5737705400067,48.36035264814959,3.3985606479023645,-37.413991660543985,-57.50332356418205,-71.08679890808622,-78.5498959493963,-71.25708773398564,-62.783110860494745,-63.82357466047134,-61.91568280968074,-51.02125516165171,-40.18251676597724,-30.94036115584005,-18.731251873986878,-5.904911451730346,0.6225754084017261,-0.9094580693489505,0.036862300597366726,8.423796165414466,9.578932018747896,6.005573599001078,21.47819873892385,43.8700867417874,44.17174193143404,37.43980119893298,38.44781443383228,19.042503831097754,-21.897702697786798,-39.86359570890432,-36.3941604485223,-49.82562558036964,-59.6727589995459,-47.80858200136292,-57.46407295252289,-69.83110227496513,-50.90845795496442,-82.10732445754104,-141.6261939557128,-19.22076194748658,378.3613525891376,882.495486569279,992.8651978455032,203.6639567355167,-931.8505253304609,-1135.4716741135837,-427.8226396899124,15.745540383879412,-28.029663262377376,10.294677053833283,104.87843346370666,55.29121626063323,34.934603233600654,68.95237996878767,39.228556053877874,11.136984349788044,18.643191519477114,3.968679833114333,-10.162377841209985,-0.9350753711466844,6.370561271244462,15.91284515941867,36.1956258348808,59.36889360279679,84.33249275637078,102.55405622477497,104.5577106823997,95.26096314862951,79.18260125070009,60.01885700373091,41.60555163347315,18.21876732647391,-13.413231690650214,-46.28602510026609,-73.36140938970111,-87.16739047936449,-83.1742703221064,-70.32063131065341,-60.68887916353279,-55.56998604549253,-49.1100152685183,-36.886509661064245,-22.598938392533697,-13.648376476209584,-8.630507663835743,-3.7781845828704697,-2.8386413872011467,-3.9178133899824665,0.6978912489705653,4.986549129617475,2.8428565395988494,8.46438607774352,26.73640135531858,38.71445831247584,41.74960523098096,48.816839730810415,44.86876605951989,8.906021915490097,-33.73984384757198,-45.852612905768446,-43.5919005563485,-55.33810655347897,-61.58510930743192,-59.6374706273883,-75.79832210573646,-77.94865587230437,-68.63362456117613,-131.5198101508656,-184.0569593739433,2.994327958055351,476.7464128801173,982.5066981457074,955.9325010780749,38.289595198869534,-985.8014567038961,-966.2097688070795,-243.54791284712832,52.59126072773857,-57.66590071714428,-8.054958577852041,77.96182703707123,19.91745434406932,7.718450114653507,47.39612909984493,26.615696500008553,7.572529647532928,14.497096566052267,0.47865034165977605,-8.495461141898604,1.5860911040400136,5.361815624419215,11.923238401388161,30.659750405139654,50.25857316178053,70.60226695500839,89.6314578706628,96.03753493987492,90.22948909232899,78.29318059451714,58.04698068278969,29.495231095875553,1.5427751513382413,-22.35793553706999,-47.064453347553005,-68.28409137967577,-75.26265933644348,-69.88862681491067,-59.768731212798784,-46.664340706888765,-37.708642559475194,-39.38025466752029,-38.99980805521862,-25.626380620650124,-10.636590492303972,-3.5911022182460393,-0.6468447530657855,-0.7509661615352279,-3.7812775764521067,-5.264555981213103,-3.3342902965749524,-0.19315499646792844,-0.8947273918902052,-2.98940247205117,7.67017877449724,28.69040687765375,39.983327637450884,41.70783088063185,40.312945634649395,18.476368550022123,-22.306461925701296,-43.48796502180704,-41.3658247259482,-51.22931427106879,-64.72508495045128,-63.1631564736721,-73.72977972616663,-82.29899857054423,-69.58093577977101,-115.35686771633749,-192.0970812694412,-74.76394624401914,346.7661883639817,898.224873590151,1082.1033221289774,371.5135769489054,-774.9396261148449,-1081.7026631943027,-427.44083092183337,28.392905978186583,-47.20946613595104,-51.632528601405866,63.198885647957894,34.35934271255246,2.0809597055777047,40.82366990690418,25.59815104036025,-1.1648942476646447,11.840812089413198,3.4945852102096486,-12.090131267094844,-0.6389077180797251,7.549412256229088,12.298972523562703,32.11010514817331,51.614768861807775,64.1861146592364,77.39075705937216,85.07520401540022,82.25606524468596,74.63874194098699,64.80951899396477,48.448884249761164,22.514118180297725,-8.606775292316327,-36.81749107967254,-57.26655923142913,-68.55455368407964,-69.55949151833028,-61.07373762845384,-51.634592499422865,-50.19517530389153,-49.28346592610972,-37.507095190925604,-23.060664841851928,-15.641887219149993,-9.114103710216444,-2.757926901383307,-2.3061831272749416,-3.5734973131753485,-4.324044951169698,-5.472801021091783,-2.6080721967617055,-1.4312335690804119,-4.839529051966233,6.0056274730883255,30.708242258209335,42.70097783290355,42.360833904913825,41.23739155236184,20.960022399675168,-19.954328298999073,-41.181355155156396,-37.301651971768926,-48.226398067524556,-64.49718145937774,-56.41074606360941,-61.02763979002505,-81.66492043942192,-72.90499514420313,-97.96687792119602,-177.73936080902862,-113.05484794285906,244.98371478153766,789.8763137989753,1104.3988318866004,582.6634218188353,-590.2617432118132,-1144.0029150186592,-595.0688277260243,-15.52473061837369,-21.84362841937648,-68.9713492576369,49.82291612166562,51.65784580309297,9.052249442019129,47.09712139479724,43.97436551451695,2.5274270027729875,5.172480352158825,8.168183430976095,-8.10212912777869,-8.954251673062819,-2.4891178845431554,5.021890791303409,23.152309611767475,43.40307036423846,63.101850863012324,83.88714979047688,94.69536803689726,94.03058026007542,88.20909621334253,73.39143617823211,51.362655159760024,29.78321120411033,2.074348520737806,-33.40913966998219,-57.968446747320584,-64.82343022384941,-67.12608245823579,-68.98766746391554,-65.793930038186,-58.110596866585006,-46.401154522445395,-30.17439383807968,-13.809541191702607,-6.819507746461575,-13.906470282600939,-19.88674452738289,-9.301616491340777,2.1351135608165848,-2.2099210621103857,-6.805226079075307,-0.07033429099210231,3.6405447166078115,-2.6019865277801824,-3.8917143081856715,11.370453690479792,30.677373114420128,35.93966658567016,34.61938641085529,38.00813578631378,27.11835444555389,-10.494201648468378,-42.25839130600656,-43.82414271342677,-44.54426751588275,-58.86129704564067,-57.6632289955588,-53.742295718203664,-66.49419380473276,-57.314548303693265,-63.34366937384578,-144.2276756323765,-146.78246121199425,125.33501143416962,644.333806472408,1090.6167708094488,829.8665265293848,-298.65558142228963,-1181.3095829384,-881.2686189702653,-171.99417700548338,-4.462390107841358,-56.54449746301066,51.73011755166053,88.68094642529168,37.93560174608736,51.24409618746619,45.7501169899937,8.58362366593326,14.903281162452409,12.980510290091935,-11.804847295337424,-9.457231703535005,-1.7177625876680667,-2.319369870616107,16.051592404632636,47.150985951837555,74.66513909427516,93.45375331046877,98.80115571284647,99.93206405108685,98.78522343258187,84.62197340715743,66.80394511351233,51.01433663433645,20.17207539336376,-20.377219969006365,-45.49677778215623,-58.609212712948725,-76.48018051389643,-91.54810096102321,-88.9287216692814,-72.32928092001421,-54.590460228676534,-42.73488413775083,-35.37206936934505,-24.586910348653042,-9.589732429455637,-3.768634033850315,-7.867158641680792,-2.0045019876728922,12.523635268499376,10.401276587095758,-4.448936065478161,-2.2004282024672897,13.261698077045402,12.008562616116999,1.6201286516239375,12.261722599892241,30.72512171040404,30.180607326734386,29.039921885594712,39.33433739696436,26.762837708617344,-15.783327906950204,-42.907273537484585,-39.617702861032264,-41.56238045452879,-55.7627181468153,-59.99747771522021,-68.57073212630351,-77.12310673481366,-51.44590420170519,-56.75102097228595,-131.78100210093956,-100.1753213772636,193.5437275037144,691.6832134657508,1083.521839687508,744.7479997384746,-419.5826082040405,-1232.9323217968656,-852.9565057578254,-160.19170328757957,-28.76867341438637,-55.360036963729954,74.8561889637591,90.69318570843484,32.94653198795346,68.60585886405812,70.30389961809,17.348541676281883,15.460033791079844,18.21956142735656,-7.880530342951952,-9.851758713103594,4.6132703638636805,10.615382970125253,22.882958656918923,44.943855293167026,68.45083013820586,87.52130154723287,96.49687705752676,100.10596332136339,101.97222826868077,93.52800989400333,70.54992899387247,40.41622041624542,10.474166187508686,-20.14815860544586,-51.62870517790337,-73.52426430322865,-78.70636572651516,-73.20882493613671,-62.72175193325039,-53.225917881133455,-54.67739876373739,-58.89785320325516,-46.01639585932848,-24.546114756445732,-16.801772078902264,-15.636169479728188,-7.0310568756013065,0.08821190420036018,2.2491037559391494,7.3594481902983215,10.558386023102187,10.412650566851935,12.466363641226677,6.986339524585848,-1.5617912862828214,12.000418653613108,35.12428058228177,37.914518371391914,34.01051384032685,32.89362363195001,6.667920778985373,-34.26067757997381,-43.53195554346732,-36.83915474664605,-54.38288483648014,-64.97986659724792,-52.200250185385144,-60.245213735267214,-65.4592418688078,-50.870818065833205,-106.87289619453381,-175.83674372124563,-27.318263116742628,401.6257837466997,917.6434462168544,1016.4632808921725,199.86253527933974,-941.1355483210431,-1113.237223231358,-390.9449559956337,22.464336766444827,-47.306519442715256,-3.924827297586063,98.65530968666948,48.83113101648621,30.56482391918941,64.62136932567677,30.560130274323924,3.4684508351656334,16.057732817801227,3.2639746217010064,-10.821258605474487,-3.506487880948426,-0.7434050249990101,8.105055685809585,30.467464988289496,50.16616769904985,70.29998145768924,90.37232588666728,97.78421488093196,94.13645891740768,84.24621373148949,67.83020759141286,45.88877157844504,17.409914562598466,-12.824919143272474,-35.756084093170855,-53.97353197616924,-68.58540958357632,-71.23453685466608,-66.88459656556256,-65.53821784925522,-59.77359641752462,-45.22355243607943,-31.98345788010704,-22.32150695574807,-12.651975319910498,-7.16500735957019,-6.424333377377444,-4.253707242309993,-0.22428617864137834,2.846890606739045,3.496708386665471,-0.46921643493798904,-3.968213694439715,-0.048464826101019653,1.8942939908214145,-2.256915337953895,6.806491466271554,29.180697502776393,40.37689123209588,42.899650384168126,45.67646293449919,25.623932668956037,-16.1411616157346,-36.107844124832006,-33.860876217583176,-51.376478742242945,-74.14381095553519,-67.3318658406042,-70.10916520202485,-94.54015324095805,-85.97742419615254,-99.0721484706531,-188.97839670675683,-167.79170551009233,156.64923926937198,706.2314605933562,1117.4376191508818,787.7474388929606,-336.5081841402577,-1118.7524255288638,-750.1123511889334,-85.4414622290569,-2.3128049742141243,-93.66281571119686,17.145185434716367,57.074818925321566,1.1096576356357915,26.238952321646238,43.760136648585984,8.933509048864167,9.610354297718334,15.486307984026498,-6.985554253022706,-9.244059897523924,5.441106865356597,8.881145218368033,15.421697684739348,34.11236921173173,57.053113359101054,79.00605145549952,91.65100133559851,90.43643704758894,80.72796938175797,68.81199506597085,55.53921442221955,35.629776582881576,7.33973083196331,-22.143478117152693,-47.43806159698299,-65.89010530263648,-72.67567194368904,-68.72582912728703,-59.65411186030097,-49.12687079183015,-43.402373869393614,-43.02156814072988,-35.48244273975114,-18.899675638388114,-8.95070958500121,-8.718969241880773,-5.220232001222172,2.310155317131894,4.325637054369,3.6663093742481223,5.170018789655781,1.5951078475089862,-4.55054588477568,-2.0642009603998197,1.5713110710075435,2.5391525678265148,13.95614446813074,25.49596275290311,23.22946729763051,28.05725464152529,40.437417339960945,25.144246641152602,-13.269745907038436,-35.48758203578965,-41.06625127265718,-56.26728968362837,-69.85807108753758,-64.80391754662368,-75.16818296457414,-100.33954360845587,-93.55026803827846,-115.82474091265874,-205.54586210340017,-158.75843502473703,212.02645674889737,793.3347101077826,1151.307429014626,692.3180720727003,-466.9823366660634,-1116.4201584870095,-649.8959674529069,-46.740977811044736,-27.35130513376376,-97.02987247743664,24.461924325989315,48.37760877977856,-0.4546361988338301,29.559709716805454,37.60960939098581,5.5881288238299485,9.29508498300276,10.84647830697037,-6.2468719157778985,-5.2996855554625615,1.487427808713889,7.122439865350618,25.380977258421616,46.20521249655371,65.4236114663479,85.07516290787945,91.42523345030581,84.74447110122966,79.71285376347677,74.37782620789949,58.399224755690824,31.007519662673914,-1.292454640135524,-30.136695866177313,-50.745218666822616,-64.1273237934924,-71.99274398350566,-72.33518017098402,-63.1493631158211,-49.747756591383194,-38.04392919419147,-26.04989222281676,-16.715019736314034,-16.91569062490554,-17.744411235717976,-9.469931112736983,0.44938712514219326,6.2842091582402935,7.60051635765683,1.4965975887463223,-5.2892972693011835,-4.36355894532573,-0.47681072988868856,-0.5699302508054434,-5.8957573762320425,-5.718995965678462,13.080685388652801,34.343944666766575,38.70348564574234,40.299704683092465,38.53571470009766,8.395445788138666,-32.30208074184831,-45.887512673254605,-47.38520418079058,-62.457673001586315,-69.66888840997046,-65.15946530393938,-81.37433756534799,-91.11810564520707,-76.07689484922307,-123.39051729866357,-200.04777655521636,-75.4487585478212,356.2950662022507,918.82149002022,1116.9652102411492,409.8557344644443,-765.1920116597207,-1112.8787090389633,-466.90669791627334,9.951633072645551,-52.317681700843465,-53.99950385852009,66.4591903354299,39.27123859875303,4.183216482847289,46.706504394176896,35.84854624176539,5.349014852261718,14.008310806212297,3.624985088231732,-16.580816903600436,-7.53190689374882,4.290539253813231,11.084725899820413,28.519002011506604,47.33359523216855,64.45545992789685,86.46213330012296,100.9797324450995,95.82807250681519,81.6493989994857,70.84873115334997,57.087845206315535,31.879803008503423,0.6665132820423834,-27.719356041810816,-48.492859088591715,-60.13452868609333,-65.45933801740294,-64.57023090181697,-56.78525536106321,-51.117095660902905,-51.30423401819914,-46.71268565034337,-34.96950312239568,-22.701106742218833,-10.222990365538404,-1.2432720770453969,0.44272119238207885,3.084998492320544,8.057241943062458,7.577197494757923,3.5354893372375944,-0.8688298428870951,-3.8453136658164624,-2.231659423502684,-3.993332791831583,-6.030871035279033,11.324556812496347,34.04423845888845,36.58364444391991,34.95098926483276,34.300143600129786,7.029806689181405,-32.574160232945225,-44.13990288686816,-43.72993828066822,-60.13005638692519,-65.80650359952415,-57.20854987549911,-76.23315503680945,-87.84661091876143,-66.41034732776922,-107.88381125315146,-170.27648933633884,-22.593053881338506,405.5707526440326,931.0492876004099,1073.8850546747742,301.232289268482,-883.8111774283273,-1152.3762594243508,-450.687425484557,7.570991514128767,-49.84550783934982,-19.499656437436464,90.30858545586693,48.69586420295193,24.05743918398288,58.568530538528705,36.01838304753303,11.945880608630205,15.143945162905045,-1.296905604471199,-8.666441379805937,0.08275595682276382,-1.633531469047032,9.322900608260653,36.95221080243546,55.153360058155094,70.59260129844016,93.02154370507,109.48122171579871,110.50393359664812,99.96144672656582,85.73735612962263,67.0311798111524,40.80643301351037,12.155837039973898,-19.559755772584175,-54.97603290366207,-80.46008710159512,-89.90068716786769,-89.13950658095425,-79.31604347173268,-67.01078730924485,-59.5726726100218,-49.317602184980686,-34.672727202026024,-23.767601997437964,-11.99235159646641,1.7974903519141083,6.524634010219801,7.417485038340729,13.337667508551009,12.22324018630981,3.9465827576268993,5.192459563701199,9.345084382397587,9.096345051989804,18.950717873841675,29.788546579294977,25.226874068144248,27.08677945362905,37.27448457065098,18.915692169850423,-20.555180092886463,-39.76286358832271,-44.131182287561984,-59.586737960892435,-69.91741152417764,-62.293350409955906,-67.18029806485333,-73.95764765496267,-51.46976836426019,-69.30443246174843,-137.69172644330936,-74.44434484478016,239.57761079595895,737.8140868583741,1087.6167281404864,636.1397509149147,-582.4609887710599,-1265.6886537437113,-746.5768094032837,-83.92879373381845,-13.598306840903184,-23.496429793781964,100.55835269811313,79.01518456936932,24.694707570185532,69.65308443431888,63.736672444332726,19.174031398216574,21.44958058055687,12.63838875826857,-9.03427242711714,-3.191220126244107,1.6085082250469327,5.170596779919453,27.69435437296675,50.61861794764332,71.61112329187986,100.00463239131214,116.7140192588426,109.00100626387638,92.91894595750668,84.76715030741478,76.36189828587015,49.78510420930148,8.506061233031222,-32.59315932858703,-68.01430837300218,-89.74384494638656,-90.5717569252152,-79.71724820717193,-70.03723649820854,-66.47728641773622,-64.80094379536781,-54.007603140071375,-35.95714872570012,-22.65677124463123,-12.892462305445179,-4.549259115740128,-1.7490779255787743,2.353949790630409,9.79750518349422,10.895432340862191,8.435646538073183,7.387973990795092,7.697792044511921,19.49052443169193,38.66754202862866,45.20979973719953,44.23222067801247,41.70274627755127,15.61894584074697,-28.231640963707026,-47.87749324193382,-45.47868076929339,-57.772865152755635,-69.82259990946405,-61.992441535043795,-69.77307052586676,-78.63904318511985,-56.95735920693788,-87.77715539948042,-161.26119968890723,-63.28493631578918,313.3655533862468,834.6821712765126,1063.0344133671817,408.0562904306296,-794.2880779421167,-1201.4036214037878,-535.8522154965644,8.573886392755266,-19.974337646591188,-18.68259135519844,96.7919510688481,61.1031940752512,25.282692849375888,70.13070073974548,52.181532012005974,14.236355411908733,22.720991293165383,13.760183176321867,-5.91890994792461,1.416657932278878,5.830204173078579,2.302073385304748,16.22404390589962,41.87419997730905,63.77108218287495,79.20454144566385,88.30615270700149,89.58635235296502,82.65729056549881,70.16049204802877,52.65299822641829,27.9857517411278,-2.4358558865971074,-33.72403873729236,-58.439025892083755,-69.47315537430173,-67.25940796699825,-60.05066353026786,-58.264150422621384,-62.114826888415955,-57.57436951758949,-41.61858711421086,-29.09344972929012,-22.143850253688466,-12.356891915242489,-5.02885722851515,-5.420237730692969,-5.360263992522608,1.313670978668224,8.811277634763966,8.262425923656316,6.828770683385449,18.577521981524256,31.870651817040688,33.74528425311612,41.48622619493009,50.94121107622806,24.76947261270427,-25.090643997133217,-45.088510375883466,-41.723208508839534,-57.450590231595875,-71.92045120866341,-63.42714146791722,-72.80900067774644,-87.50236482499231,-74.86191733039284,-116.5871418351106,-197.94729151605478,-91.64379096391141,319.769914159047,872.4690813278362,1085.782099771126,406.3460650029677,-761.571344606192,-1115.0721901662143,-458.2635702498042,32.4565330055931,-37.24360144756556,-52.07511924501361,68.39107014677614,45.39692016133924,10.09379962370636,53.33814617155193,44.34934815620204,10.220081491488772,12.904791346426205,2.3972067769571073,-16.19776875504717,-11.111784119184485,-4.1726742833332295,2.3298491526663376,22.30569538860919,45.28636959689995,65.39894161424836,83.87794922161919,91.6820566464217,85.26667059809719,74.90640768847531,65.51589724604999,47.87081974799064,19.22446911561367,-9.008789134075101,-33.04074414811238,-56.274464120019786,-71.49158062643558,-72.09635586283582,-64.74053332455674,-56.560291907172406,-47.318073449637964,-36.28328423900742,-25.75481765761491,-15.958784110154665,-5.374735371147356,0.2413502469556441,-4.564900162225573,-11.054110218603608,-9.942085582568419,-4.750418193145737,-2.4171006586338883,-4.331048273238215,-0.9697129775426383,16.274299080209897,33.644651941226,38.43464166250466,41.54372238001275,39.285147422430796,9.996602211963408,-28.73078857674309,-38.949633368419256,-36.88045310540798,-53.5545393488808,-63.69524009758809,-60.24033145870496,-78.84838694059806,-89.30063587596786,-79.84889901537639,-137.61001337013238,-198.6743458862296,-29.465007267252076,438.2017366766287,979.5358894863994,1043.1110912683907,180.46999457793004,-929.3552203455783,-1039.5433183345922,-321.81655739637563,42.48312030998524,-58.65050093298894,-24.739860751070026,81.27031281732162,35.05775013987396,6.355545859928807,37.018588819617996,18.59392384328277,-0.5483154372508796,7.328771560516721,-4.735914206384313,-13.911208676337983,-2.3745735053983954,4.315181945878791,11.102039331351577,28.444844360145808,48.22208382796684,68.9902422979383,86.90280650163595,93.49633024925129,88.94903526065427,76.70606555412431,61.25808444455092,44.639689232213804,21.095958590657148,-9.590408918487629,-38.36140886266672,-59.9278284888065,-71.28624836901719,-70.0238513413215,-62.026633247176065,-54.56324037637871,-47.43288630453406,-38.396530818735826,-26.443318530853723,-12.232739730884596,-0.9350869012943619,-0.03983271495672369,-11.775432647166639,-23.608727579020574,-18.23174323066892,-3.9650008600655475,-1.2924571514336716,0.7260366813797017,18.500565165166392,33.83641333886907,36.88308712646655,44.94284772496776,45.72361622617089,11.211982274068188,-31.100736162665967,-40.008912126753614,-40.28324141446029,-57.70204181496868,-60.94371110296102,-56.51669629316606,-77.21631192806421,-79.59976515605484,-70.5758238478571,-135.55251651550523,-175.16306545000901,31.101046445013907,514.7905082141124,1020.3227613528699,956.5865640129617,-21.209397449432743,-1040.5518456930618,-960.4736048131746,-227.0134989943889,39.26790514320737,-68.65755567639667,-7.284914205921339,71.9706890995354,18.69653315039966,17.462305331501522,49.38174441553465,20.408112523244135,7.189505001168246,18.63051544497565,1.7633162484960327,-10.512942443909207,-2.2120958237070125,1.8836191612081077,12.299739617099068,35.465077216731146,55.72660333258749,72.23442688310527,85.05581102048785,87.53045978696701,83.48283614176916,75.87747334017942,60.40928737132678,38.758293635446535,14.140396669159145,-13.893645159851527,-39.939134319111325,-57.4114283897456,-67.46109689815417,-70.09680277023874,-63.04164405911284,-52.27659196504444,-46.169429407982285,-43.34497278799805,-37.45279207499242,-27.853172119403418,-17.472591979011906,-6.7833352372799745,0.5379862770373602,0.1915335850457467,-0.7688069048783142,1.5818302127741939,2.3607827116075715,12.96595345919029,37.56505949586806,45.17098678875911,30.90726560591116,30.02040213503641,32.19564303925449,-0.20881923180180983,-38.473855083237574,-41.79552336912021,-43.24116092630053,-64.2291652802316,-64.92885701479462,-55.67342998972538,-70.85611570362889,-70.99394810306964,-73.71764407048138,-144.9786929341065,-154.18299637557743,105.3425367110465,622.3041684461894,1077.9393463881138,851.4129050313879,-241.98509510972997,-1144.2190424747935,-876.4034365497092,-149.15346308403008,21.15431023594161,-76.53671645829493,20.985825026136744,77.9441697743722,14.315760043186135,25.206582275133073,53.881166629177,24.233566489066153,12.358362916551972,13.943527677368541,-1.4604782209894283,-3.068830286893294,2.3947276818533965,0.307592033934327,13.036598819347791,39.675803678276516,61.01160231906389,76.1218821695353,86.05498668358541,86.58464508558224,81.42190495249946,77.48461131938359,69.08435421862184,45.55411428525199,13.031889472924618,-16.511922848949723,-42.96666412945539,-63.824351153348516,-72.45450636575471,-72.1571362937394,-67.29990306594652,-59.48827452861711,-53.91558286489583,-48.14946201640819,-35.28054645318861,-22.228894021465265,-15.96958732281308,-7.603343673480449,5.885101803822919,11.560104990687837,6.962701253804869,4.299277890878766,5.03094738891368,7.217735097150108,23.077788889302923,49.20973855738638,57.160288752778015,42.98218197435394,26.836823228760455,3.8585474600895178,-28.92424783399816,-41.34526272808266,-38.483558286163635,-57.6628557996818,-72.98269352126277,-59.4223350703333,-63.20238914040749,-73.34816843071678,-58.05218148021096,-94.41625796833561,-154.43346985498818,-22.980851134634747,397.1181843591865,928.2051659078867,1042.6532128177846,226.87034255095304,-933.8356606388766,-1137.9981052318617,-423.70299227202736,11.856277353432233,-47.74665211543477,-13.070428764752606,92.66991692277384,53.08299150069805,31.716509612138804,59.13275018843407,27.69388546611117,7.583309409267919,23.56320330413469,8.60001499565676,-7.001117860311618,1.9737433878619868,2.7752373092484746,9.534062315422908,35.095562538351146,52.24230824830491,64.755283077294,86.8910093344192,98.5936237209498,92.11723023530774,84.53152320233056,75.18042055983598,53.282710458888204,22.14047073175682,-11.510085883236828,-40.940052397684774,-59.175806586112095,-70.23901723410125,-77.45731357762511,-73.8238548501269,-62.43514297645025,-54.731504574905905,-48.54879184382874,-37.62232713715437,-26.50914424219851,-19.93658563494149,-14.44842407135653,-6.276355835594726,1.6205071620899645,6.13006511689994,9.783545384218147,11.915118117542523,11.720686595101164,19.260395030816042,36.82574563535135,48.317480588120134,46.14094112116295,36.10812554502424,15.372429821246104,-17.62680244044513,-42.15309737747764,-45.90559162786657,-52.12260655997739,-64.09196448182603,-56.88518982518502,-54.3620660393258,-70.74282346276303,-61.49287207710274,-67.37373407233079,-134.3681695696165,-104.77438420320429,189.42458875416,701.1337152803488,1075.7200419988958,668.1033560794989,-518.1204219398832,-1236.564612353296,-759.7560582233591,-75.23023547663944,10.875788571226373,-31.58180385614955,84.34409560646438,85.4920618742134,28.00291574836777,59.39522931526598,56.74171029594695,14.669344869253916,17.724205193163556,14.170729652905788,-8.163848429407722,-3.1098157360666923,5.689367466594415,5.6517986363358865,21.993560855982132,46.77103408550066,65.66617882277018,79.9643361708281,84.32383562180908,79.77907768546628,74.21401638539689,64.59766535197856,49.73102193477369,33.21234316953484,8.374920371093776,-25.76713602013631,-52.823725913371646,-65.32022545503133,-69.97146140864763,-67.9347689332286,-61.38552233444818,-58.02569117795943,-54.253693566400045,-42.74698101373366,-29.16793442025699,-19.66348218824494,-13.24918179670533,-11.257016871907448,-10.721391908914342,-2.813685767203392,7.07297988470777,8.617865256798305,12.424756251086237,27.382945776080152,39.42958775235946,43.75897210484201,50.05097180680882,45.01697614536928,9.962396742470169,-29.606165140740558,-39.04325446545089,-38.002854446682484,-49.42467757130338,-51.261365708896875,-53.88148119152104,-79.40085909017488,-79.75825204866648,-73.14686028539631,-144.4398630261202,-179.29608705154558,36.45332841138949,516.322062131156,1002.7597092526975,909.1714513634033,-83.76666004450072,-1067.9255394844488,-936.0260849780702,-199.32294305469472,44.12505100837863,-59.789295772258555,14.255296618492508,89.0580356084767,29.117914463017154,25.757955180665796,55.760900826364015,26.457457538471978,9.544347560813549,14.743401609279545,-1.5738138727534776,-9.709366432034766,-0.4958106191533451,2.3796715015022336,10.291393545035026,31.6806838210585,52.018093011041586,66.5909102115491,76.78123846196866,78.96977492818823,73.14603708601175,62.95554252608881,48.94244496867671,30.372106861259084,8.890044535046464,-14.15744742137735,-37.78025011592624,-57.438467631961856,-68.07538237868275,-68.8024674955366,-62.1356587363692,-52.7737409778657,-44.54163513655689,-37.09462849823588,-29.28864144331025,-21.801910803817346,-13.521820360086682,-3.61346582723813,1.6093391230674694,-1.6064376721355593,-3.095272040833674,0.8601135745883894,0.35265709539405776,4.200586068717442,25.831003785088505,43.29350108948714,41.41261437546347,41.727327699702165,40.878353951191336,11.036636204445507,-27.795939092210656,-37.67079716356887,-37.67755421870076,-55.4805588443121,-67.21796690973042,-68.00938938750065,-83.18023682931326,-83.06676602638463,-72.44220932604648,-132.85453745840755,-183.455908501281,-0.8658766430080505,467.38828448253395,990.7377416982595,1010.5846478702549,111.00120762327654,-971.1870052476102,-1020.1506641695464,-293.20869478140486,41.18868606793311,-63.69806477027397,-19.65989552793701,80.65107990601203,35.818950542875186,22.087933986894207,55.226798188855774,27.750739028341997,4.956928955235449,12.454173615209356,-1.3967747785285047,-10.650349019507505,-0.38929717124748375,0.12776332992755002,4.569692398076182,30.029896915525736,55.40536683056354,68.09850469366388,76.09628800537148,81.05688860353956,76.04296190389744,63.527202848317955,54.15591836993154,43.697856430100025,19.308771859220265,-12.590662880977622,-37.3539918416045,-54.96468593024152,-67.08031118041049,-68.38160651458614,-62.267315256474525,-57.393633628595,-50.62772984344361,-37.14408732691358,-25.660966926877325,-22.677873703342343,-18.606703648288768,-8.328824428801587,-1.9786645593188705,-1.0207938112910124,2.410455199288652,2.522390594703591,-0.8079496225717397,11.512785653009374,34.8582900366315,43.459806348394224,42.29103557572983,45.832217788577566,37.320593512714126,4.464321139381117,-29.104580253680524,-41.26342555354467,-47.315928561096165,-60.902514358968034,-63.05199366652161,-61.55720083046978,-73.99645106621333,-64.94260845163237,-61.85493963658845,-133.40481608218096,-151.56962964178302,84.7265681518301,573.8238754489475,1040.6784341603895,872.796412308582,-199.18632622998436,-1158.4418150344159,-930.4190648183685,-165.2536194300912,50.573166147732486,-43.874936102199456,42.912534252710174,93.2926488242245,26.21358560680462,38.16421272175573,61.64173802129623,21.97050494270624,12.876280282956113,21.755858146709624,1.9281688556959065,-6.661142705665265,-3.375297232190764,-6.334606548466091,10.429487085066103,44.16686668386794,67.06179112665018,80.78512196282708,91.76752712131513,94.19931080001922,87.46946337900081,74.82558336446141,58.17392004260448,37.14432321705475,9.105489698932137,-20.361485161224245,-40.7826629208874,-55.5363141153303,-72.10999416354584,-81.38456136326761,-74.01061092302768,-59.05518471492928,-46.896134403807714,-36.9378766940967,-29.046013929777047,-24.066695875932684,-16.31242489708845,-4.000514550636684,4.295637975844638,5.534396108679393,5.567806534389616,6.031363213642557,9.567415128386074,21.83561306152761,37.06486831541394,47.31997396211054,50.949056111665925,37.38542547315083,3.913387785796002,-23.3015702783651,-27.885022212739877,-33.25804027656211,-56.13069700121626,-67.65744547645711,-58.794195285786934,-70.30828156770156,-81.0177810041775,-48.589516545800564,-58.58915075712326,-127.2288102667838,-59.287521513578554,264.54861314772444,773.9675716604377,1113.1561692320652,600.3300214636247,-662.3084380523014,-1288.8802737668539,-702.0231018405143,-69.89120100720399,-47.15451738506978,-37.49911733333849,110.73820017295583,81.91980837520002,29.83755986827554,81.92576705852181,66.24788960274395,16.54774953685812,24.397307183774476,13.989146897483643,-10.254267161520808,-0.15439538899898508,4.668517835884398,4.211792194395073,25.98077528342542,48.74515417069459,71.5055163144287,101.20182037967115,109.09464415708784,94.32301324483949,83.5715391794852,74.08386099175473,59.82512088411813,46.69699799168616,18.67162612683951,-31.67876478944825,-67.87790666814412,-69.93315073974561,-69.46047609390463,-82.5607357627016,-83.86634458870287,-66.56630795735835,-51.662873084258706,-42.53477533805241,-32.72537178999638,-27.57474466095904,-21.532090212275644,-4.410053252118198,9.71327956245295,11.24864042774488,15.442827304692024,25.792997462442926,34.09835306587868,43.99478476394179,47.25389085019732,31.72936530261702,22.248514204398415,29.055294224892528,5.936733689070219,-46.01763339040025,-58.92026952614395,-43.467239052646065,-57.55585736440172,-72.39934555729764,-66.60438763131555,-69.52455393275324,-61.13765155153082,-61.06774280378617,-104.16141620124233,-51.380224430706406,232.20840118823006,691.9111091583661,1054.839420319586,721.9973942253059,-435.79025931934746,-1256.7920945923115,-875.9223496251805,-181.99565138059793,-47.7487284134956,-45.64441581510738,112.04284743060146,122.59014591602836,49.853865177974455,78.03353490994886,76.71827355372268,26.41016460626501,22.366855035384575,15.962628035544,-13.124603924065259,-17.819427862610787,-8.086971126080567,6.2781039460125605,30.56661474247327,50.24840738434713,67.0491684851607,86.90077177193905,100.17990015252222,105.42979162108998,101.97127567332413,86.94090469259294,66.19327444413705,39.90737433145801,7.778003672559938,-20.708834806551746,-45.40568358175755,-69.66537093734848,-85.25077971169615,-91.2603224876014,-92.0395940492778,-80.51006089899165,-59.58442961957337,-44.878842174023596,-35.91125615272681,-26.193028630132147,-17.94004690927308,-7.251611591993141,6.4767770141887855,13.271739752500936,16.466649326959054,23.45259703360277,27.599320806832996,31.15983219234377,40.8698379041612,43.95881504222206,34.16804257839368,18.70141727853526,-9.274214717723462,-42.37528726563117,-53.57632474484306,-53.46410444945058,-59.63044256682574,-58.02879069963617,-60.39707741349892,-69.44727175419376,-54.82876602753169,-66.28028572853042,-128.77533889421386,-84.72444231822635,216.06517729162653,739.3072648536643,1106.667153281739,629.8758454550178,-601.4584067697205,-1259.5681354625895,-738.3333831012682,-105.99523162674939,-40.46508675824772,-26.52890476580707,112.08958359350244,92.36324193050348,36.96466703798637,77.98440751498228,67.44928851000536,17.905859914710938,15.54759642790993,6.662482569177143,-12.437934034435301,-5.369492463910441,-2.1147568669329573,-1.6096961880715952,24.41000404713283,56.818190983803646,77.8142006026879,94.57641361919109,103.17014187060114,98.29654446635108,89.36043870432695,80.19240052472345,60.680249567910344,27.95903275356786,-7.146487103116739,-37.498483190704434,-62.311731316414075,-79.10229207239827,-85.8321547072803,-83.15287603063837,-75.99043873009074,-69.72433059626567,-60.571046833178485,-45.37808960210211,-30.962898625526776,-20.37643649055497,-11.064970587931862,-1.511572307586409,9.228044813461697,13.186805286996409,8.771654277832576,18.2245718405414,41.70855591290763,46.10625486815706,34.294548750627825,34.3672427898547,27.934373761634063,-9.365296073952921,-43.24477949395379,-46.293687681146665,-50.91787303055395,-65.83476821224188,-61.04345642477212,-58.91812995905936,-74.08670246714027,-66.93084223466224,-83.24213928061656,-157.54213048293795,-117.7598841338811,205.29769056939105,756.6669467746001,1147.4924606515917,701.0976216649253,-530.0510372536907,-1242.7072833579011,-764.8475260146241,-128.22757290785336,-57.99885679073677,-50.50096106637801,95.31192417887925,82.59700981538487,24.28449019671278,69.28240677690721,68.00652778730533,24.049038851884823,26.331594722889538,19.322635537458964,-1.4718223771016703,6.0509042576293925,11.385099906257238,10.464265932987654,30.336418836407944,55.55632445978976,70.82457517203291,82.20833680198945,90.78181650413862,93.08911847843065,83.99503382054576,65.5244494324235,46.18117497177264,22.331379308870652,-9.403192402748026,-39.25888813134172,-62.33844021832836,-77.87313644269145,-82.10058483046153,-79.76518055333987,-75.51178473335546,-64.30059692040072,-48.92282996702294,-37.530809066463576,-26.73188068290939,-14.189201561653842,-6.834631225873501,-4.791098990944555,-3.459458515874406,-6.601224172103748,-11.625010830497676,-0.27458717342970207,28.06172468939174,45.174077351860014,42.0894523378073,39.87030765450131,38.880531412039815,17.89952962871085,-15.047466765574178,-30.033170206403888,-33.46867636844988,-53.68515950276229,-71.47596957970306,-66.22324072946394,-75.41361571145063,-90.79993163415364,-82.68766596117568,-138.32653636906002,-248.86772702610568,-160.5553799150521,282.1357670907331,911.5652286975536,1208.618801532238,564.1078472411021,-662.0198528868156,-1121.8762164026075,-519.8473469591147,-17.715788507723666,-67.19453259147602,-73.76269918287596,51.29506166629272,30.009211762234763,-2.513661542843545,42.31882854074465,29.161002514328285,-2.7984350620953347,12.493891897317113,11.318005881121664,-4.577847744788211,1.692236644081686,7.5039409902727545,11.42620956544128,30.521072999113926,53.39898321986152,71.3431529056102,85.73107032397675,93.74123200314723,93.1436925100842,83.24215962011549,69.53168187834044,56.13483194440074,30.65331283686747,-10.821548207123747,-47.314952647307095,-67.75852162537751,-77.32321514822178,-74.30390241214072,-67.18827118270666,-72.32083973723608,-74.3629745639652,-53.98146365845389,-30.613598165106474,-21.08399197912524,-15.389677087147668,-11.936392167103318,-12.527591097020139,-6.865290211787826,1.3884704647822375,0.5533380742362191,1.5986893825356638,17.119098675331973,34.02794497073195,38.35022662624651,37.90093034299521,37.799226571762915,20.627839033493302,-17.010318366262158,-40.534851228561784,-40.617219232934524,-53.69249703754639,-73.1042703429289,-71.34209189137593,-83.02161543479181,-104.09974176482669,-96.56166946595911,-146.09730761191665,-259.36932346318315,-177.62124665778893,278.98102508895744,943.6967463931319,1280.0354252291388,656.2103931055676,-598.2937026649142,-1122.0831755211852,-555.6274165775064,-47.24890351668219,-89.96222437150928,-93.47640999875578,42.22995251299182,22.363198690225573,-14.833259075650146,36.78443683677837,29.411288964791574,-5.059656943310138,12.52871621983379,13.753779289199777,-7.1943133119850575,-1.9696591731333557,8.675376000858623,12.401689883354429,26.51208250675966,46.417356790433494,66.91682835354182,89.34550825695075,103.78330943246469,103.77219497792352,94.86076526692666,81.65897034974292,61.67321101440105,32.37547710143817,-2.066232208818022,-36.42141073078132,-68.15536843248842,-89.87938644090299,-92.6320105513133,-80.44969639942425,-66.26698157306842,-53.16392625152835,-38.368774831021064,-30.37403470438273,-33.41554177422367,-30.661588361978936,-15.361162200912709,-5.133948886301589,-5.212857241407107,-3.892030426327665,-0.10885594249077002,1.5469637921271087,1.9890220568388521,5.370239560699421,17.70618430132714,32.911688214494085,37.30313707639607,36.69202881111658,35.9943607049404,14.837842251854479,-24.603900283291473,-43.64956881344968,-43.461206222212596,-60.19725936796304,-75.58700266141095,-69.20500063752587,-83.66311960767347,-106.1628610036869,-103.46601727210225,-164.07542702752596,-263.93787268315816,-138.76670652035392,346.2935201567093,1001.1976403177265,1295.6237551258598,613.0982084477881,-660.0605218197152,-1134.6973730021605,-528.8995862024387,-40.21138676512228,-103.16002840208385,-97.81023993075011,42.333395577671155,20.663123125576085,-10.718311642141769,43.4316438414303,32.42758617542945,-7.034856924273905,3.1315140261061245,3.536403377243814,-10.321979903750576,-6.459268643099987,-1.5018398709409855,9.065762453441058,31.572623776671353,48.023395284866695,65.9261880428572,91.76812637033478,104.86852365765095,101.33831965383807,93.01955452589704,80.86164447346457,62.82635086024767,35.86985208802409,0.9507463561073872,-29.631314560757303,-55.246036008367945,-81.27510623595096,-90.46311671237588,-77.20994565351293,-66.37749718650652,-61.72406666730212,-50.75846050737972,-43.47504773432745,-39.95629204602021,-24.5287448710547,-8.823485062311885,-6.727982835548307,-5.659975096315282,-3.501056675749659,-9.606605947758727,-13.909473788011889,-7.45121474719417,-2.10739889041,