ECG,-2.813363678926372,4.63263340572172,6.458570769952059,-9.858958296528188,-17.221568748244675,5.193006794138393,15.984311088364567,-12.143842384182095,-31.093245447011686,1.7057955403520344,27.75673595200592,-21.28264998684012,-73.90101656336931,-39.48888571435634,16.894829157972822,10.001188949594109,-25.130433006613114,-26.408261935091414,14.15250698080174,50.528255945351184,43.52890176623407,40.737152460822486,73.57640467629786,75.35054498041507,43.99527858956149,42.03699049484725,24.3113593729133,-46.46360071157728,-81.61136623293052,-54.308713134931054,-39.2971295981072,-43.76457857204893,-33.01166099728979,-20.04541544895124,-14.621421536993637,-10.122107831485128,-10.365718257309556,-4.894916465995641,9.370627471739443,5.1639785824074345,-18.824582529224294,-29.717087123589998,-13.404726143361252,11.07866544029048,10.862531537881537,-8.489427889198303,-1.3084496049914272,15.323018045882328,-6.778931464233724,-16.625681736122246,21.109444988851216,22.003358437925254,-21.871694273828318,-19.37572206027219,3.8510381236850684,-9.697818530030524,-4.664950578824923,5.686238612407315,-56.86074628685666,-85.63304197308936,28.951508603775345,109.18742887110795,14.184594131584618,-73.14364902092157,-28.82296603470056,6.214505027975339,-7.5451141790825496,39.63517474926172,87.09839274946575,24.71573433320995,-39.73738936318206,-3.21104359130977,30.706332717043047,-8.961413745674076,-39.357997877823664,-27.14815250983908,-25.128318813232845,-27.612816003673984,-19.896893903885857,-45.89358422972542,-76.72196129380099,-42.40754776077145,11.552215099463233,77.69030927542863,221.63457725988758,273.52198641490537,51.70117994559834,-174.0578716896488,-131.50882140528608,-24.801539123293377,-37.253081541365624,-51.934158014811075,-29.813040927397473,-20.854480877312586,-3.0022006826959444,-3.562610219158035,-33.04225155139841,-15.312074804107002,22.744760848454618,8.504633548034516,-19.95273288747406,-25.705083807194455,-12.343966714611573,2.3363102057307685,-34.009843854033484,-66.30528155971365,10.11495267844596,79.26301178735145,20.722991396657072,-23.354034767109887,24.84645743569677,36.33046905460941,-6.604898567717451,-7.366886320517036,37.78895484454118,85.55607538126348,92.11252916147944,21.35682935859486,-41.830922166783715,5.117705772179193,55.67237460263782,-18.794304173306575,-103.26787720156986,-75.48359824528298,-30.91773624237636,-45.837489783723484,-47.919498984177565,-0.06119068821594276,53.12688099851619,58.112968947695514,-17.77049659274597,-97.32537387155499,-46.02616480489985,76.71904783796785,72.63249812353432,-44.89957085114518,-80.45034067562298,-19.310816688528604,6.193498686393157,15.218480039649368,44.63410676955563,-18.600923305128305,-105.79996654441163,1.117787220699089,127.99866739032288,-4.898328596356848,-137.26316561129988,2.9939517403576836,124.37763216281292,28.103461081651375,-39.723183008121104,-2.7279484831312537,-20.498669257402995,-39.488940048941885,29.570394687152096,46.884199458777715,-38.07302542258517,-49.47386039706489,52.318556225621016,89.85582219730458,6.9506627830507846,-60.71859136848066,-47.13465965528871,-25.889566332566183,-47.19222199627444,-68.08984789365219,-45.80644101421851,-20.42253764621019,-32.779357580637054,-29.201510950751697,17.795424335387978,48.532137964015206,92.43564336994152,202.52616722923153,218.27770472961657,18.3572520592231,-171.0684975650463,-140.7621076561392,-30.504129205762638,-14.697114378759956,-49.755466808235276,-43.78794101878395,1.033923757364942,18.481910222341526,-15.967824978339074,-31.549856936360182,1.1064237184164174,13.541528033815178,-6.278680908313507,-14.700298694064724,-12.1571106997602,2.5716735898606107,16.123493746614628,-16.57017828913741,-46.261631947441245,-8.927676512786658,13.151257197236244,-25.272477677073123,-24.458604818966766,26.65474346147574,37.56276075422941,24.813051766548664,41.910823244266595,47.21148385046379,24.6862682364411,37.93181135856564,84.39927752667374,79.13813077140775,8.499773864336222,-42.054563403257305,-34.54611152654302,-33.81508554698007,-65.55339588359983,-59.39100955937035,-15.836465680434948,-27.58539122460966,-64.83574497641821,-21.76948027100448,31.855273086750103,-14.316410425242367,-58.66217462167687,-2.472451894947083,44.581613136784625,19.621879729825324,17.98581518909679,43.57617401809061,9.853311701013489,-47.1170118843161,-49.63325463501736,-32.43503843578115,-36.1124714788408,-23.09499043418998,14.63339084906236,19.56987170707095,-18.660256964390936,-38.916769820300736,-23.855667555467278,-16.215368281288576,-17.96547925833828,-8.244691588539915,-5.1188660323039485,-5.189650478289625,12.682699872132806,13.366417102867102,-9.881648012145604,14.19700999334174,72.2340515099367,45.292612810378614,-69.88552317160267,-128.60806876845365,-77.38242536418548,-26.126741369447466,-36.412434875257276,-44.86785569133708,-36.03160505084493,-55.81186673597176,-53.920750528629014,44.71514688368022,182.3929874324613,254.80770386422267,209.24907223823683,35.03923855229009,-157.89856385790668,-189.86366870544785,-79.16853203968742,-11.40031828088479,-29.624821659334714,-35.75898397125743,-7.1937996556097765,7.200683520869413,-3.5051357412876243,-9.780883776206133,4.945559845328689,12.159822288715578,-10.47681879963424,-24.07659560434371,-7.631315453707959,-5.8547698450590335,-26.346987310511814,-25.9229538199258,-10.397540993300778,-10.618288467825858,-13.462986832485814,-4.384120030800404,5.987808318439998,18.541428200691442,36.9347641493349,48.33025449574465,50.22969775688479,54.659454364146846,55.85816011877166,36.62829106842514,9.242645628670846,3.317482052176179,9.41690228777317,-9.106724658840893,-48.07495324033264,-66.56431772234977,-53.55620361485763,-36.308087777318185,-27.0625259923751,-14.095770757262871,-5.489444989673299,-18.161476567301722,-33.02795165099413,-29.719296935082852,-20.444229252334715,-4.991559631754517,23.104245908025256,35.442359718124685,21.393695381808627,15.398653846189884,23.310606509550855,10.028672873897197,-31.354587893037518,-60.5817946203822,-42.49854602917481,0.9866044804704597,19.589093055094622,9.911174762789685,2.0167111195890373,-1.0902616868460617,-3.8413940028632476,2.9366263033126208,7.516881397824804,-3.84528635642,-11.158801747338973,-8.830388779291564,-16.220333854613855,-10.60109306414845,33.51738819940686,64.27585703114521,39.91043700103494,7.446454138232984,1.5676537345530241,-4.4775291818116365,-20.512938957917598,-30.5646259981773,-32.94804954383471,-29.843091610398705,-20.835217942303487,-17.824550738506908,-37.293324774782235,-63.547556063794396,-55.308564814592536,-12.37271799932806,59.10675068760232,183.8046517666803,257.4701121228386,120.61876142515057,-84.70633066976005,-106.6856327647468,-39.55961864571409,-60.839937995913765,-80.95752114677039,-27.140413905607318,5.376441514036252,-15.61467706308067,-36.29521740441691,-28.148035702052656,0.012341526442222417,9.78189742725618,-5.4864763942302455,-5.978810454996436,6.4028549427950345,11.496128866841271,19.75975323708905,11.65421553766643,-28.136163438520548,-45.950928068136264,-18.155904615149787,4.66484861785023,0.06296431865981811,-7.124033592641076,0.16392249346098353,24.47619737065186,51.85104769559772,60.9639350182487,53.35428704442939,40.906553146989715,30.809013979533923,26.726887147581458,13.945635439943011,-8.55825297564855,-18.385620441977743,-32.512152157392755,-49.300776410472146,-10.474571804813076,30.046688803689776,-32.68938845127749,-99.19163823413903,-47.13894723759223,17.344501078982667,0.6873844666907267,-22.268874896298243,-12.715744408947014,-5.423819914955304,3.1441683302543844,17.073818640239857,9.893292354061215,-8.144678288921492,4.454020831932384,31.852835157777044,17.614103485844023,-20.493045514402628,-23.315336258677593,-5.679879035688731,-1.7627855486695587,-1.8933730903646744,-8.23972436357499,-15.1736373591216,4.475478910889249,14.912775821497068,-24.218625835057303,-50.96993126254289,-17.552295938485997,15.794852357646185,10.072880778815415,8.783348666809657,28.845489596174737,36.311948096878744,25.569295361328834,9.879987886791106,-17.780749350196345,-39.41766537945541,-23.185986047259277,-1.9544167477547347,-23.76191110685996,-60.78453510668777,-58.274577793254586,-19.23673004401052,-1.5019933204211213,-36.92653066259494,-76.0137434081644,-56.30662142747197,49.8949071152641,227.29144764782063,305.1475937090679,106.15788162605678,-165.81079703678043,-184.9615524588255,-59.42022038165026,-33.405613197260514,-35.95923943843372,10.80703468133331,9.368416668023396,-30.75491136705967,-26.33534230535469,-2.373070861010387,6.644419237174297,4.025769431559036,-16.89616636656099,-31.07211280151835,-14.12063004089908,1.045826132952488,-7.9570080076037755,-22.424369665572797,-26.049275244383082,-17.60024051715746,-13.496673603687928,-22.477394132943157,-15.191919243096805,20.92914754371562,41.474081340795045,21.733291798853884,16.680632236963042,69.86355870808963,106.9303199756931,52.89173956163083,-9.893646997239541,5.22824346092858,24.71490728005729,-12.856471554284223,-46.50904908359106,-40.967757411586874,-28.11139724195793,-27.323615752676723,-35.48654204560646,-36.76786635619017,-24.255713702317347,-14.512986048429683,-10.559138138659506,-5.769651472135331,-2.188137687836514,7.3241883915339905,14.10102239231136,2.4396910143673587,-5.667101323138937,-8.31693486822969,-28.94754573767975,-34.959601131939785,-8.53413472694865,-1.1976967398562266,-16.071820945006756,-13.98143084716823,-9.738947114214039,-14.011076622318999,-4.589630891011808,5.227008971469864,-1.3947304398595683,-6.363915045150023,-7.227446560860761,-12.970528537398447,-13.97002909243852,-12.636143855802976,-18.717478334429014,-21.182696857473616,-19.015664079977803,-23.37136213170328,-18.754118893211526,7.006072823530163,29.094946808613287,29.881600623920036,19.485653240625417,5.84839000192732,-6.388186432013152,-10.184845369709649,-9.148106404122736,-11.029126046427276,-20.08814836005464,-40.164394865611655,-56.988837866782276,-49.13690917280973,-36.094789670227286,-42.80129241260748,-37.89257244189766,5.7542559728756615,79.70548434122901,183.70233329777952,234.7460455217304,92.33950118501616,-140.5999906732414,-195.85803055137896,-89.43988424593779,-32.77094125540103,-37.145837385997005,-20.882669203198006,-10.86840473535436,-17.392298466887645,-9.320139851269255,-4.38763000339792,-11.012496025720662,-10.447557351099555,-11.116118471722773,-14.78966181070245,-9.599192705230951,-9.0078190830769,-17.62392306549327,-18.04709978382262,-14.3377761333502,-15.856458351473812,-10.292974122779125,3.02902534625933,6.687200201522869,1.5270659304253984,4.42629623528933,19.177664883062974,35.89236492204101,48.472103784070235,58.138932189906754,60.990982677809,46.58786791277355,19.39486366303276,-0.37835349061368717,-10.979090208706342,-28.885991202501444,-48.739001799945534,-52.12693486361388,-46.67012496113861,-45.8278309646072,-40.5995152988865,-28.84823226711416,-24.125109560974217,-23.18501862100114,-15.888594173465213,-8.999691950724909,-5.807450845542096,-1.7501610025352328,-3.051855310458862,-9.371991895908227,-6.706894859439455,2.401582073890367,4.084814497665766,-0.36777024492400656,-4.341797640272018,-5.333039211620589,-0.3902993915134756,5.298910622129307,3.6200904218766254,0.07043559540678324,1.577162522429365,1.6851065932449973,-5.12732297382893,-9.665564512035907,-3.513178237216499,1.3608793927753826,-5.553336680038217,-5.996197517686378,13.212193679557522,29.54634127290828,21.598937482678036,-4.339219654428655,-29.447636638899546,-37.485813831180096,-32.776558456803244,-32.63790012011075,-36.269822584743096,-38.54584556949799,-41.32791459497152,-36.515333542654844,-30.90933800299227,-38.27263445197269,-32.53010006033537,12.825911349364041,103.38622915632374,223.9301843220066,246.0352709750283,58.7828952778355,-152.55301523089923,-154.64583147923156,-57.16015493641491,-39.91867265557667,-44.05134301549843,-12.110907834550773,-5.169813458631779,-21.180251789965265,-18.103311900274637,-9.888588275832152,-7.600438164860645,-4.057641303138286,-4.521802862597617,-7.0112840332568,-8.755239486142425,-15.319318453444364,-17.879785947441345,-10.65885961833607,-9.18234338938081,-16.20665544800608,-15.221568789280763,-4.368572811339548,5.587778524879603,13.842084492837877,24.32475624118258,36.21332113029608,47.422492881970776,55.31206300341107,58.9148812071486,60.195061940034876,52.87033295832533,26.564066323204376,-7.302390718626418,-24.891686463591096,-29.072046418464794,-36.56263806710126,-39.35118553936091,-29.985642765915944,-28.200422681098516,-35.892988210570394,-27.84060074854827,-9.005663848793446,-3.3320558892644794,-3.2959552753015444,0.8120908974098633,-1.1440177261469238,-2.037879580198055,4.922158737537728,-1.6223698943758293,-19.667197752557605,-19.73291208552418,-8.278090135246941,-7.335449832163114,-9.156532011231853,-8.539086941759958,-10.952820865940183,-7.071409984443262,1.9999976246264026,0.8126961112859874,-3.5119247282250843,-0.18927700857319074,0.46915304844743844,-3.1409408186936547,-2.117990940604753,0.37447769876615133,4.352985236485719,12.944682888691784,14.950404933079941,11.587077273309674,19.3339998887542,22.59977798544906,-3.084798819495628,-31.404354892396547,-31.323228490463357,-26.393044379767854,-36.54646821757812,-38.07937130251126,-29.750566617470177,-37.57801724871865,-46.609390486449826,-38.62391531060854,-40.160003462624104,-47.50179831105252,-19.830205098354618,53.53351690755256,173.38095288594164,270.931795273254,176.63336334305393,-78.80248384604722,-197.98180675968587,-102.3622349384555,-23.362775269570697,-37.536033097781996,-34.37707752471549,-12.848974149584414,-16.494143678649586,-14.565234319466212,-1.6008142016465055,-0.47953248601913323,-1.1418512647462453,0.4938828347436548,-4.435531223329557,-9.157513102986826,-11.727298885850026,-17.646084671061253,-21.106518823942636,-18.77733378011553,-17.001634190804577,-15.794890475478658,-9.816267094312796,-0.24890940924124738,8.638005937310705,17.198819584455293,28.836387893081834,45.40820240317954,63.49881653297161,74.99478345092909,72.80095293816764,53.33205967041947,21.435250819927393,-6.68970244649606,-22.552195935414062,-34.05954338464923,-42.988171151816786,-44.57422495346434,-42.80391962239049,-37.337735167714754,-24.613541450330437,-14.383349886750619,-10.612026214676932,-4.439833096082989,2.261318684710515,4.7334795163845484,4.5575739685399945,-4.419270070866116,-20.013558158915682,-24.64384445415287,-19.344440205917323,-17.264972698377093,-14.01662773414931,-7.006393424884646,-5.036580437142241,-5.44127687374322,-2.3664112428078994,0.44528654946016744,2.9028092297675974,5.032176526963367,1.640085801416241,-3.1112848434583658,-2.509551965228285,-1.4324059894259644,-3.119134136047027,-4.234870840308211,-5.527721427545943,-7.419463490714183,-6.732050516081747,-4.401522771129438,-3.954139130365558,-5.952148736084373,-7.142489792847682,-1.86297982094661,10.783018341357089,23.615795737227902,27.361063826896896,15.919080936414538,-5.191579867490262,-20.46206256187459,-27.94156765107234,-35.312091960543796,-35.19170651747714,-30.160881628705667,-40.81085230844139,-53.1842313888252,-44.56648278273352,-39.46576073280079,-43.386494091332025,-17.876505710995527,50.22983830976334,161.40746773088557,260.6057077506282,187.38486085649788,-54.85351036201466,-188.3566395394039,-108.07884692363518,-26.602024424432077,-38.44707590321083,-39.785970120787,-16.92173429300341,-16.88205939688241,-16.85238669103097,-3.8160722680061934,0.5177065649078774,-1.0048920265323478,1.6210266257023696,3.6409170556215114,2.861423670188144,4.191297951193642,10.723024537952512,16.095084013507822,9.125092016714827,-13.562355270596036,-40.80819501970184,-50.86082345186508,-36.43205855899512,-15.962657499882694,-1.4538081479363418,12.585775274898646,26.32172139235802,38.57129923003627,52.75354625868891,61.993554357548355,56.69643298914785,38.95596480785025,14.828636999732788,-10.322800718778902,-29.406991583517637,-37.192348484628916,-35.49185387488791,-32.73102489311988,-33.6018527121859,-34.2614031775958,-30.56313728615816,-20.96362093638959,-9.704475161178106,-7.754469297262979,-13.803910960177904,-13.806615808964967,-7.795383542406535,-4.58966363056321,-1.635715796058662,2.8368351267005103,2.019991971392278,-4.911815306319186,-9.456897507296741,-5.424763367551761,1.1112626634813658,0.32741381404029823,-2.903833871332589,0.9535283547977977,6.735497878920224,7.511933293261194,5.791541581404344,2.9601041990411794,-1.7084205425429424,-7.3785563643454655,-11.81657763323743,-10.5741741821324,-7.76630790202795,-13.25206287988034,-18.989304456613286,-13.078719837610754,-7.073260189922694,-12.875857059291302,-21.68933770127807,-22.546835656440155,-14.049180463788089,-0.4978349601376797,14.722183664512325,30.026022076733813,34.68390249119602,21.642961717375826,6.8000904444973465,0.7896443169412688,-7.5050092168435505,-22.125030477594247,-35.39414670869374,-43.05108261097514,-45.639335805707866,-46.06419422612785,-42.992543020897045,-41.03905527080011,-49.08736915401798,-43.68926788942748,4.8481006690125525,96.37682645696363,220.46553160823007,279.681106749481,125.72272709965878,-130.60246797787832,-196.586978237484,-84.66093817436543,-27.98051238884912,-41.95528309926243,-33.22179603983613,-27.66631969301497,-36.62796557654736,-24.517478950877898,-9.804895037515339,-9.109522508953866,-9.041691934115715,-12.397215569239684,-15.126268556155196,-7.880885137934428,-2.9785609171042875,-5.742187627953999,-10.512385940397484,-18.645917875864868,-23.338377380374943,-16.78047918044066,-7.1701365751027115,-0.4459895049876896,6.762234215844188,16.890017484160026,31.874594686370674,48.41771824630316,59.18516269927842,64.78883452000959,64.37947030931875,49.709606940320164,24.53684598646315,1.1340526264518072,-19.047454827199203,-35.29811776153779,-42.10478534090181,-42.888134812790256,-41.736652709016084,-36.14320106994501,-30.49825691573084,-28.33397638782082,-23.104942431854436,-15.668804246470888,-10.909140883040877,-4.197722922186088,2.738720705717414,3.2452039699201904,4.25654934240111,9.165907129283832,8.289199584738444,3.6058045809592842,5.283964729662461,7.71746307655553,0.298675067489226,-11.941823333895641,-17.081101509120565,-13.504560914354952,-7.162794821486299,-2.0104258324390436,-1.313485481939903,-3.610498559333486,0.4084424003888767,6.659885317353552,-2.6092658910128463,-21.58603032376407,-27.20959023521576,-20.42901120698397,-15.89240256890852,-14.79378314861516,-14.397579813620103,-14.840699307934784,-15.724398557267417,-18.174381141400062,-17.965357028942357,-8.3314420262298,6.69600494172271,20.258044502434075,28.448923226541744,25.14612054893866,12.473415148186735,0.1642986623105962,-9.638590306684073,-18.495853606361322,-26.36880317410045,-31.578241267514073,-31.38140939319439,-32.750687630395845,-39.87827698032719,-43.16499438687118,-46.28471541281273,-49.24676249842368,-24.347223382711285,40.73811364220927,146.57177599440396,258.5776863303478,226.8361729037535,-5.0935623397809096,-185.79091377300318,-132.88132808477377,-32.0919670506297,-37.12788345665038,-47.79888153203183,-19.382874650850752,-13.660054585664998,-17.346230453355993,-6.807831824280414,-5.084933506405889,-4.989551178078424,3.5887471677891973,2.751123002903675,-3.2082347216148612,-2.1593459276508256,-3.794188508125597,-9.33694868930221,-10.965919761893591,-12.858285332517902,-14.103570402568156,-5.52577681598419,4.476105637270942,1.0529795723456936,-3.9870701802339417,8.669364126903282,28.588813421556996,38.75899022620459,46.71587496324684,57.892975206923694,57.58329570342166,39.01633263571334,14.645366573937405,-3.6043820744865958,-15.059533076715221,-22.84547635785415,-27.319598762899247,-32.47243999304389,-42.08609025613493,-43.90879234646957,-28.54308035021173,-12.39340831939503,-7.408211725736514,-5.7343394189405466,-8.925793582626923,-19.0968884692526,-19.36728665627838,-7.5862461817041975,-5.946013451943646,-17.854492795854895,-23.614503867271168,-16.504236414258163,-7.186040115271954,-2.8781827816726526,-2.769650629212075,-4.556821912043496,-4.747658704738498,-0.7447527640879059,3.68050304210845,4.018947763416646,1.2149502438969275,-3.82840291541547,-9.168631382501783,-9.218551766039294,-6.011976671843925,-7.265784926621675,-10.880936692951558,-11.73906336104064,-12.03501959868476,-11.577225152393487,-7.708781827376971,-4.5222765900707,-5.827376193864328,-9.46092074671227,-12.649844109640073,-12.624039317909748,-9.560549367377536,-8.865345228647701,-9.159275098802663,-1.0132306597575678,15.433339594304,28.714084111175413,31.094709717007813,23.740459565708456,10.750948175950711,-3.756132136375351,-12.593397283515124,-13.07028941782715,-16.628617596178707,-30.508271398591354,-44.754152353195714,-50.68165212531848,-48.065872635824014,-44.569725452084526,-49.76170589660981,-48.0288773869024,-17.154054446581227,50.11369607862694,170.4443141869897,275.07112757937927,184.0837005916179,-70.50328315352289,-186.95492292187924,-92.81514693109486,-23.826335146441853,-44.55438540406134,-34.58416778190616,-6.867922195217389,-16.873217904378492,-19.28419752155228,-0.503405894421685,3.327427292959838,1.62369995203085,6.272857468590902,0.7071997272692228,-9.18801794068142,-9.253492866400059,-6.686323752982272,-5.053857806284297,-5.0497559275715815,-15.955730030292525,-28.893064574034817,-24.163602455395257,-6.967935629687979,8.492018237968448,18.703902697471435,19.989907664443187,19.79015540504095,34.59079884887286,55.258041812897616,60.392089606799765,51.21447111820384,35.27835742464575,12.26727298009339,-9.843385624075228,-21.190112353145782,-27.220917445973605,-35.89727950253616,-41.55470983629878,-38.463988162845325,-33.80101638292816,-30.736428905923056,-22.44255961364815,-12.80718486152207,-10.91527575718911,-11.890866375739218,-10.701402715800384,-10.171362364062432,-8.319540728020543,-4.981679004071008,-5.557847429159207,-7.316571739499423,-4.501395091061731,0.8238789392048531,3.236593541816953,-1.6244799720767187,-10.136699858811818,-11.461140254483608,-5.942896142040157,-3.2680917213590757,-3.580810440639942,-3.0472747375173324,-3.6581855524517977,-5.73872718052985,-6.216965926174923,-4.109651029441006,-2.2814201993454724,-4.936043799097739,-9.38210338328599,-7.9529164283227765,-2.426170911378689,-0.8834906547743078,-2.8134704387957026,-3.512745970915123,-3.8172732779051426,-3.8477275561182225,-0.3425964996155084,3.1561089020941555,-0.23329554497042793,-6.0237704821850535,-6.415390674196463,-4.519725481882211,-2.979804190819741,-0.285809375248796,-4.826703459087051,-20.33593052912212,-28.621393421241383,-17.9066772791377,-1.4049494880902484,9.835710773252742,18.7376163715035,23.931671072038185,17.50568194500597,0.569864137829649,-12.24433808593135,-12.593814883976817,-14.061783231000533,-24.477546042925667,-29.67408945846793,-29.88657699854008,-35.9374315496958,-38.01198120422252,-39.28837883240901,-51.33610876530979,-44.5758670861327,5.396790159748207,99.77914339176297,233.22425682714672,279.25852213754337,92.48781326372945,-153.1985867055234,-172.12198852250276,-54.37971946282647,-30.777514288322266,-54.474126965378076,-28.71266063714322,-12.976473773198496,-21.94356180381821,-7.977597455542079,5.725940287000123,-2.7258831819769895,-6.098707846528095,-2.732269305500231,-5.74518454788484,-8.119620594144425,-10.409468796816167,-16.605441173057173,-19.451302522450423,-21.45146440113389,-26.337782805135515,-23.93385472803873,-15.335247958097437,-10.344289991610854,-2.3068769683176638,12.99517321629762,26.729580445846704,40.19635368979256,57.11687810638159,67.27320820552615,64.51061711583212,55.114509832543646,40.72419205219191,15.02663843338879,-18.349152422982723,-42.000372954174956,-47.99641573609688,-44.683733925322386,-39.52424820070159,-37.188860342497286,-35.43306985862973,-22.5906356896078,-6.796474042610736,-5.698636216210552,-5.847779711223502,-0.15972330606025054,-9.988753790195425,-23.671689210628898,-15.02323758308577,-5.732811925765191,-12.915373778873874,-14.535948527506934,-8.090602792340567,-8.172503683949621,-8.663635770545264,-4.451165692746454,-0.08198096692450108,4.006685183143533,3.516566813679068,-1.4069702099078238,-0.583424954598387,3.0112930654209595,0.4314946252303029,-2.0747218929514197,-0.20062668238322168,-1.1930709149712655,-6.780508810960878,-11.352754828789317,-11.257981953172893,-7.682391280782477,-4.747217736712173,-2.8320371631278807,-0.7421246352049877,-1.148536282755158,-1.5287603129596192,2.2031562646936305,0.33891168068659994,-12.821352306912587,-21.110385296539686,-14.903505344503605,-9.22545962766372,-14.847054184810084,-18.314890362318373,-3.372573601777068,20.606071004078956,28.201990295549468,15.988512860408683,2.816498120661244,-5.241257231123338,-13.42425487874454,-19.935844025483895,-25.044020769505916,-30.22611103773957,-33.07123314057127,-35.47541053027695,-32.72362805395389,-25.27203673278343,-35.76558885771849,-51.228703440870085,-22.483711555522103,57.33668312444614,174.1931852268335,269.9828337661267,189.84327074331162,-59.71802991823495,-195.51540384280253,-113.72093947278454,-35.319856595054326,-46.66210320886532,-38.08573648506494,-14.343858278194062,-22.174576252696593,-16.925488568572966,5.6771069905027005,6.452606932424882,-2.841330359171316,-10.459520781773353,-23.64715866824435,-27.094993733396898,-18.063297157975036,-16.383952266244524,-20.282603958736775,-20.513591200104823,-22.38819284558374,-21.58975636192024,-9.717857525955473,1.9674450796897,5.859429588113166,13.491966477541913,25.87201816424277,32.550709180134696,40.16441044721523,56.36758076437887,65.4037188180797,55.5371640201075,38.347724194282634,22.190378576593783,1.0802727600395752,-24.37165724881111,-40.176179398065685,-39.21080362862371,-36.53787587362822,-45.11476862125403,-47.720065974872476,-32.13183483345023,-22.63605964301201,-28.718023599971502,-24.592429675831717,-9.113532245618202,-4.38944124451514,-6.072670113320129,-4.253563311092609,-5.196712565458018,-5.653582685426141,-0.8679706095369095,1.181592686328445,0.589467325050764,1.708761470963271,0.40379141090055803,-0.5147961379868438,4.441992232421417,7.106270922701032,1.0309957076852658,-5.744794278465568,-6.30359171245097,-5.063128898769973,-5.26784946763325,-2.134034544219161,2.295891020611826,-0.28465253604129526,-4.9537702250763065,-3.9633785033411373,-2.483449350859762,-2.5462058024198875,-2.133849112521218,-7.110472978249524,-16.506084647010006,-20.80277966142668,-18.2356641965851,-9.22037378855827,4.799625096464023,15.467384343427964,20.596973611641467,22.035001455432244,14.802431659094756,2.601692428173307,-4.30760565500017,-10.789652576314548,-21.890964496219866,-29.299209513558214,-33.808464364655066,-39.61770202217904,-33.71628538368549,-20.61381793918779,-28.46446711032047,-40.64181489691921,-13.771669140308482,50.46962099209925,148.58527611402232,248.95793251614433,200.94838833133116,-32.965984308847965,-193.3952173915779,-129.42395089992164,-38.5049297096296,-45.58531951853347,-45.48257579673096,-18.40054875652004,-25.69790390841238,-32.51996553596019,-15.23630427573119,-13.242228280896597,-20.358743733772727,-12.482179121420682,-4.0415484808843765,-4.3855768378460205,-8.588375183066963,-15.267848253355487,-17.74611935681162,-13.607631719702344,-10.160679024918931,-9.262445834791489,-9.066651441209538,-6.776814097363747,4.366466785146291,21.348423782125153,30.620857134888787,32.54633974290519,40.70385882064926,54.09680668616947,58.62361723349354,52.14799067668827,40.30693483249237,20.471951540783515,-6.569606824163594,-29.440694493090074,-41.765234587230246,-44.65378663279105,-39.977906254401944,-33.8278692067652,-31.75340880253107,-30.250364834399576,-24.03296525275623,-14.151082120619586,-6.352633515781443,-5.331498975040763,-7.833997018254497,-6.992660441220245,-3.9035866420197607,-3.3022143305983658,-3.8614371345254597,-3.025347551929565,-1.8216765058170754,-1.263298636357888,-1.3123554305715963,-0.8443012715113412,2.063420183221294,4.801465295235821,1.8251175857071242,-4.036346650700484,-3.538796963590851,2.794452009817501,4.877666553957315,1.2285485402396485,0.13385229238239393,3.3317781060440956,7.167852151097973,11.566571164605314,11.18964416829413,-0.520962409706005,-11.757253942215453,-9.822069974014148,-6.949208015551868,-15.322864142070017,-24.314411934251385,-24.213468400122856,-20.416574624032393,-17.96794301282273,-15.13190523666592,-10.812353948075593,-8.14687362793326,-9.347728832288116,-10.84981590129626,-9.968392943612844,-9.784743388711167,-10.82053369132806,-8.296266550618618,0.48316980960037004,14.010793739896311,27.599694467388,34.500391442494106,30.898452057222805,17.157182322041706,-2.5238739593085864,-17.74611468123001,-23.591358100118054,-29.437351964926687,-37.986840030711626,-41.656289146066484,-44.10784601315126,-47.143761690070114,-46.02938041663238,-50.67354391863536,-54.57265930277174,-28.374956257787098,36.082978808150386,150.2478447596483,274.07699473675586,229.46476393558794,-23.210604569826145,-191.6604885133322,-116.21811402590305,-22.68365841787781,-42.562526408539824,-48.77113092822192,-16.285680901990254,-19.105785320057656,-25.926380669735956,-7.274597078347957,-0.9106001620499207,-4.8693657129904135,0.4679534134918448,-0.6098842218597049,-10.878665329496707,-14.609029965016843,-13.4317039426932,-16.07889660624514,-21.69333453298069,-24.18358650317869,-20.284687537192905,-13.77206569742068,-7.787402182862195,0.01130981213122162,10.432090847107935,22.814507590670196,37.37837717353677,52.98803422374443,68.5605322307586,77.24119683225707,67.92031761074531,47.03780066469089,29.775936047727253,13.577754157085241,-4.118096775747162,-19.703269967630618,-44.90922632141846,-74.53976496928183,-74.76306560229817,-50.37247941205976,-38.12823128647035,-35.554837497848595,-25.735303105618165,-17.78814190384061,-13.521438082555381,-7.145339449329537,-8.526322379822691,-16.002460858114553,-13.674831763354053,-4.855518037730608,-1.0076056038989272,-0.5397665853221163,-1.072451472849119,-2.639516899767827,-1.916461581581176,0.22009553480713429,1.3837242021405114,4.235871496607972,5.650680365462735,-1.3717561606802438,-9.880459033385979,-8.35299779592107,-1.6207096726785544,-0.6220107440190166,-4.776183710645771,-7.945739074745742,-8.682096258373656,-8.077072089082003,-5.614608003377398,-2.4124348954066246,-3.2715615330601455,-7.726063782591089,-8.249936645395207,-4.489360264927333,-2.2097115366058784,0.5086340036810721,4.599450173928091,2.3684006957818573,-4.520923647789427,-4.4314506086404855,1.335120895447961,1.5538721271941434,-4.805460697819951,-11.450503897166891,-15.61564195360133,-15.44382770197086,-9.803693847410752,-3.9808783297520556,-4.2176181625271525,-7.892033690866855,-7.790513358430246,-2.5578987977020446,3.0584110468419397,5.215994241165923,4.528605654721007,1.877550098478169,-5.0053471721919625,-12.897362643388165,-11.203090436800466,-2.5635744485450687,-3.546475706540839,-12.74037012981806,-12.779001292590053,-3.2882750615792204,5.124532654700831,8.360479115215426,0.6536712367403901,-14.832848572073399,-19.72219393227801,-14.215219060298722,-15.388416029006063,-20.295941089355573,-19.119087081064436,-17.784017111428575,-19.135722989639046,-16.461329767644255,-6.9211022345173765,6.656301638228987,17.381467466204214,21.37914321848042,22.465693103522003,19.062472517158767,6.008173727069861,-8.704259022356567,-17.00392238406336,-25.027670285556013,-32.349638772587646,-30.96731955411276,-29.08336273620629,-34.16711926683595,-39.106978524548765,-46.70024138655487,-52.46751523565379,-32.20305969296702,22.447071465933305,126.86272126316237,260.01297826690865,252.5663468021354,21.24926325597046,-171.86211619656817,-120.72075383515266,-20.937263259837987,-39.9418044309453,-59.34767937935352,-25.1450328141559,-17.16853229383178,-23.717356626702205,-9.34792117485443,-6.286741603791196,-14.40515015349189,-8.123169623457734,-0.38301550865639467,-2.293993943476874,-6.529322884541788,-11.563546143073745,-13.664214099514535,-9.512472550654394,-5.043375574838095,-4.2675049729713415,-7.748448084082216,-11.185797518738829,-5.50054566844419,4.2041512985227545,7.706843875074873,14.39597290662297,30.11043168404644,42.01850104609281,49.3250736391722,60.07825243015954,63.779595151484635,49.302901339223226,25.080534804704268,1.702178737780616,-19.17466318246726,-34.220433389351854,-37.15393896308762,-34.257258902131696,-40.20336942293431,-48.47082114006197,-40.57954908892688,-24.58668805323211,-17.92520031243709,-15.542567509515962,-12.548438936707512,-14.966170959908506,-17.88283490385674,-14.390636271651942,-9.941126671265145,-8.355232211766719,-7.629499708691645,-7.290830133479329,-6.537523459123117,-4.282874158068747,-2.0736201156747374,-2.6721483390069167,-5.909750135009286,-6.999083478808869,-4.213481097040457,-1.8227408670726586,-0.6627851388956696,0.5270275921731873,-0.9262530959806092,-4.128160325399492,-4.42408097160741,-2.3131432068969673,-1.1456420370178577,-3.214099351102739,-8.472936946990234,-11.363103811375705,-8.557669117800053,-5.6236838633946356,-5.491677659249294,-5.274559551777479,-6.956191628831004,-10.654294570140307,-7.81299386174698,-0.3763740101884814,-1.783601966980159,-8.66933885683045,-7.5050284534678635,-2.911940625109411,-3.3367647926064397,-3.7614812549801,-3.54987680282418,-6.8253190198763605,-8.335515210219302,-5.8553054924835966,-5.45872550430348,-7.979717115933788,-10.97213958760376,-11.424663512541747,-1.7506070945708032,17.28698741830264,29.786102379996535,25.309284012095517,13.398257680868667,6.932957147305658,0.3742866221691852,-15.128639813147572,-28.04897783013304,-29.860511974426974,-31.405618891340186,-35.33400063014968,-37.50311212294693,-39.69429495619863,-37.06631871766085,-34.96421024223759,-41.916259132168705,-31.512531750243696,20.13864500969261,118.19075985486884,245.21387735519772,260.56311449589697,48.2599334506464,-178.56054949862948,-165.82151006656957,-53.48372681766607,-43.02456864248704,-51.29697901348353,-16.72294813112747,-16.96467012107682,-31.197442827406746,-7.348764606279294,7.664559637816698,-4.118310673515156,-5.315880486331532,2.2842532547971786,2.967393115533154,0.2638447370942103,-7.673313307575828,-19.886505722909185,-25.669989599729835,-23.685176294494536,-20.646176589453574,-17.92577266562966,-13.494188627149406,-9.592911795240301,-5.932859041874401,6.992515664345868,28.87178310742268,43.049157090276566,46.91481295812053,54.60918251051928,64.31639192146932,62.104876021381784,46.58860002487263,22.41563690085524,-5.484588503120101,-25.357144736820963,-33.01598378106838,-36.95933217014627,-37.64037967838088,-32.55474961014285,-31.206506928315402,-35.67583575000951,-34.384192316814335,-25.87529460628609,-18.15385183816206,-14.25366257193637,-13.294300119949945,-10.608797415111813,-5.575926492787204,-8.38055855674098,-16.84052317276947,-14.82584017268268,-7.157069346208267,-8.43912586659267,-10.166660313239433,-4.566891123017161,-2.6565323872197393,-5.567672912457374,-4.017813898366285,-0.909896544244905,-1.4192460393127,-1.6187569406903624,1.6521218126848574,5.564416866886862,3.9112420112099606,-3.879378117143249,-7.326726015765807,-1.2169474601502435,5.954651716927438,6.422704846693608,-3.43840929920108,-20.992065422387874,-29.371500319802287,-20.78375288126746,-13.111236854590253,-15.728204150038886,-16.73911900919141,-13.443704902519794,-9.514952961709886,3.3340745943080385,23.309080935179303,29.882804703312132,17.725683270725117,2.6231226393109583,-7.168287709811883,-12.564861532172824,-14.495807590065322,-20.30831687646604,-31.066525420212702,-35.8169382601414,-36.36784652242483,-37.45667360698147,-34.155239491796806,-38.010418507718526,-48.839644236240716,-30.6637008840899,31.087383695697802,134.27041893397944,246.71588447142733,222.55547309310555,1.21322332952019,-176.60024187166044,-130.19187349015186,-32.27396513075033,-28.954417083491744,-30.475628632076084,-4.568004050457702,-12.582336974285795,-28.626037550959758,-16.792337435958622,-6.9705993088313924,-8.020230955787056,-5.666222015546631,-6.169993101752718,-10.757777312712733,-10.596753858685345,-8.392288224806983,-10.915667095665523,-17.440828185094862,-22.04744459462087,-20.606330990832046,-15.444689536000485,-10.895215731288532,-6.940466611442906,0.6033208223201898,14.041246144059755,29.776829204673213,44.64931140637745,57.99943822454607,64.77320377713238,61.37404010262011,51.00562280352441,33.74781274803209,9.673877888675298,-13.552582741680538,-31.650831312063325,-43.622750130082224,-43.44783374859972,-32.68360652769378,-23.421188603560537,-20.078493725799934,-17.647802668468287,-13.570883300319826,-9.030444693972665,-4.065508146885669,-0.35001577470954004,-6.207803410497391,-21.993036235747557,-29.717415846890766,-21.992775877193512,-14.235791525110049,-12.555397017332146,-10.971034462082969,-11.494392943128496,-12.609820925737848,-7.594878344155198,-1.2928817437945987,0.5624455418759489,-0.2783587838523829,-4.148036412506103,-6.998075766067963,-2.1397905267999384,2.7745488375494656,-0.935516430665535,-5.402172112791138,-4.085485391944312,-2.041567924955867,-0.9052693953638986,1.5884320785765826,2.948119813940931,2.64772701047493,2.8201643972440884,-1.4058855004880826,-11.95122555493548,-16.76367658350162,-10.824859873558335,-8.308336149985031,-15.937124882979113,-22.605173021643452,-22.790894567046625,-20.017035707270878,-13.457601761074582,-3.440841467385428,6.240193311823374,16.8903532477754,27.116815498077592,26.719526242807913,11.863287591406964,-6.358025036948853,-16.069793494351735,-20.387569454924513,-26.713426570984723,-30.197307037714598,-31.202851624991137,-38.80308917692888,-44.53773755656849,-43.718934601520694,-47.549857707664344,-41.274684504562956,-4.788618014739484,70.44510755020414,198.6333267756665,280.10112487052595,140.77897868097344,-112.09662633074126,-174.9595587472838,-65.50204992563859,-21.42358586290223,-42.17371994080847,-24.34623072588726,-10.756674820500514,-23.41727182427509,-13.106984596512834,2.683145322155953,-0.9447752018000806,2.5564171999062575,7.4504833681438365,-8.716596222568693,-23.986816464750156,-21.87861430975465,-18.40020063517329,-17.613606213531284,-15.849874609801542,-22.880500166264774,-34.594978907705574,-32.574205850806685,-19.043800584790734,-6.337638010638388,7.269947234849302,23.41387539888078,37.4783780702187,50.66293088111335,64.68341884724609,74.19822654928895,71.99816616171425,55.45356624110826,30.553807016398615,5.835750375643376,-17.31750384600542,-38.654804982025624,-52.41941071726792,-56.32109835262307,-55.59423950908207,-52.334014666618096,-42.48282388624181,-28.793544278628612,-21.286136403941423,-19.168544395902465,-14.408812079656894,-10.078647903275616,-9.975478768555192,-8.8591575522073,-7.503712888699919,-8.611184472682973,-6.346141287629042,-1.9887352817210022,-2.717232915111932,-4.938645085069794,-4.999391515238534,-5.638460042498732,-4.891835613648494,-1.6000261484027707,0.33007329364893145,0.1684282935841246,-1.1478659551453152,-1.951046798845283,-0.28992467924021526,-0.21119044406751186,-2.8601068369594955,-2.414669916029484,-0.9224488631284053,-1.7833221677973352,0.06913916679738819,1.5449423423191249,-4.824353721989501,-12.35073821952254,-13.435726324396715,-10.556724243015575,-6.629408994721807,-4.984870168025289,-7.162629876669181,-7.575314907857063,-4.384522374229769,-2.091094074666678,-1.0577959847165364,-0.022843117312271843,-1.9263047231527075,-9.790866891515272,-18.358244050729617,-13.84087211155197,5.2015009383525035,19.529476873994213,18.53704377832667,9.816475816743397,-2.0033465889923114,-12.211539021414296,-14.720903749702915,-18.356128084734365,-26.960394745571612,-28.81988273979521,-29.25357787335867,-34.778740196430476,-31.61666004437774,-30.198218494466765,-44.99307358645927,-43.7003015048075,-2.3443649780275635,87.07168995230889,221.45629198105584,261.1506418843241,68.52843231286576,-161.03708107280258,-160.09657828485746,-44.58747555273691,-28.200908633757514,-49.79502277923032,-25.973899442009326,-14.616606330932761,-21.34629628964805,-7.8466351502304805,2.074160315208209,-2.5653506446291914,-1.1407036631824141,-1.9164821963315664,-10.88523745403992,-12.937805301177569,-10.534588089194315,-14.50787731995814,-20.430828792884135,-22.50591321632473,-21.205208234867026,-17.186441829433058,-11.356664089033826,-4.070162518341219,5.343347990549263,16.98675493492855,31.537883874555558,47.186489700288114,57.5183432226775,61.062975842617526,62.63891466495096,57.93609641740159,37.552474065184704,10.7468560517773,-6.2507477870322985,-20.288838388490586,-40.079811226601905,-50.272730016363084,-44.48384950364881,-38.51814320422671,-35.18232731106657,-28.07649333201693,-22.56208590699334,-19.260076285699995,-12.486344056972511,-3.541346385585298,5.001637276153401,4.538668889206541,-11.489059322387234,-24.18658444184742,-19.566798345986058,-13.054256943024818,-10.786980287559466,-6.504024490048135,-6.496577068049746,-8.101022197451611,-1.379444148444982,4.30897100634531,3.3699024984024053,3.316908309712373,-0.3381300651280057,-9.443531401101616,-11.557818262461256,-6.215218363855598,-3.342428906574842,-4.23368986380537,-7.068162944003124,-11.009318560885692,-12.007075423118426,-7.060167770632379,-1.204441933632097,-3.6013754397353956,-11.219135327323292,-11.421781767209055,-5.31048580858341,-2.755458942910739,-4.369400372345922,-7.6508209558352025,-9.415809618119717,-6.0789432078903864,-2.6063755601775167,-1.7001520385686462,-0.18130111126456683,-3.018406419134024,-9.056425223751344,-7.1458349661628295,-2.0844922376474715,-1.736274748162641,0.20076360888233236,0.8303402316228521,-6.2791525464502005,-10.934551519598555,-9.616119511444007,-12.040794417720427,-16.29707066668373,-13.95395276045997,-4.198896777803063,11.718554706166891,28.133774031471926,32.150202170355854,19.284225825332847,1.0729097292851755,-10.574656755482813,-14.580250538018426,-14.712542475479212,-16.076083269359007,-22.934597112177038,-33.202493934891784,-42.85962045867588,-45.46117199953435,-36.34790835012416,-34.067917971164505,-48.725705586627676,-44.18863312751548,4.514399429062486,96.82244270246699,223.52939084953192,262.67088279391913,82.42231820656588,-147.76628883348482,-162.41087242634686,-49.18586910442312,-19.228928082276912,-30.322856561402883,-6.4143606750367645,-6.256697373023094,-29.855494846026176,-21.96969399262928,-2.29039616307465,-1.9916271472819034,-12.610957793560871,-24.625702625999807,-28.206328231137547,-20.342811506436185,-14.94577711172458,-17.33916216270591,-22.258879726271402,-25.864820764546796,-23.398598301287493,-17.666832979278723,-15.552134087430566,-11.637592997164832,0.5098354343262165,15.288886056329856,26.868538522600424,38.112237915798424,53.39456566970493,67.41919436555764,69.3352518218014,60.581540487341506,49.917381301846646,31.939024863028187,-0.6757781141610391,-31.408567175010838,-40.729907883871704,-39.72390380740427,-46.170785515392495,-50.06504376785976,-41.10462962302408,-33.06568685221897,-31.736515040936432,-26.883254808281016,-20.547039299440986,-17.8761473046109,-12.614954766570694,-6.282868372482607,-6.5168919054108585,-8.72910780003725,-6.027287822912088,-0.40732634230560016,3.4465444464675965,3.2142641481054444,1.6608763282059726,1.9378406152866798,0.47196719888956196,-3.827192268720509,-5.076811140381064,-3.6890586074600353,-5.904540265060675,-9.960151058213944,-9.019223380081584,-4.6355585262438534,-3.860151874008327,-4.951846018010709,-2.8008184435042267,-1.9549492812343825,-3.652116384541486,-2.26230135791441,-3.3227063587577383,-8.480705606652826,-6.988238627540781,-8.169399960256921,-23.34318170968703,-31.639675228060277,-23.81572014783828,-16.246777987771083,-6.337954881102044,10.999364469460659,24.518305996592318,33.43430658015166,31.633278364229255,6.5325377522397865,-19.522751296960973,-22.065585413060187,-17.098415934501737,-20.02543047350371,-25.989741533473214,-35.57811924922838,-47.21863248660122,-46.55966018380792,-34.91972647621357,-37.134962411192284,-51.181272176173366,-37.87779614504868,23.410434905770643,135.0737521104905,254.0525017900955,223.37644044235884,-12.026419297062759,-197.20982845156286,-147.25509570317527,-47.10751396034903,-48.71377799317435,-50.77381835872415,-15.158813653842394,-8.842146233682904,-13.39531937575477,0.3421616657815054,7.192734971340169,3.855138630992572,-3.5355698746091235,-13.737586711387076,-12.059513453192698,-6.101179958778353,-10.592580457685447,-15.497605021976673,-23.114073791845904,-35.935312430836845,-32.54622400107194,-18.494540683251543,-16.762769595055843,-14.715910715288972,1.3785938108354876,19.89951471932444,36.00988304457796,50.5221021919317,60.0614509145572,66.69306567996125,67.591255231889,55.208783161337685,34.03613857953812,11.496420853146732,-11.889283500822103,-33.802454316294366,-46.75305817988419,-43.852815830859655,-32.39337065615309,-31.839313680736332,-41.410290828622976,-39.56672468292019,-25.06323839981348,-14.936764301078309,-10.304510665429602,-3.9265112974288385,0.6955089799942407,1.460632100693367,3.1421636749574553,4.7491933872128715,3.54443738582299,3.255767557307612,1.6451623121806556,-9.150810388243448,-20.799037351149753,-18.219919914671785,-7.931727730197753,-4.661881595620285,-6.861369599013093,-7.80101219284996,-6.644901448921392,-2.9077150036421218,1.411496321174683,1.955131329573467,0.5394456267801218,2.234260525014525,5.379121382616157,3.8855605594053273,-0.9620309126880446,-1.9156265266532024,-0.7576586381017876,-4.208366062910024,-8.101084671959715,-7.160575901660799,-6.735620061636752,-9.889452403319563,-12.75553320926342,-14.0511833706032,-13.7351772595459,-10.96867401921166,-8.868141961539253,-11.362565292536923,-16.223161658607893,-17.58262467635644,-13.036310347586463,-2.8446212362622347,12.670970056445427,26.964446008063433,29.93362243208067,22.02502560951239,10.321692197057132,-1.4967769075214514,-9.448012684959187,-14.9208299163619,-24.30784768039888,-31.186630442481764,-30.036898638830706,-30.11705585945507,-31.575982074066985,-35.663770731979575,-51.47828836693182,-53.01006499303146,-13.976828148625371,55.18954399109623,167.58197273518846,271.96872280128736,187.57636446019035,-69.19504425760958,-193.50298907378112,-99.67405751808883,-25.805854741031848,-47.777291652755224,-44.73218955323891,-18.617454364291504,-21.48965184053768,-16.358555746447504,3.4489211694645654,2.0490582616984803,-6.014116491692114,-0.0767019146140342,5.690887656142997,6.495754452304639,6.181255664537779,-3.540756166021028,-19.59662808795288,-25.027761991302476,-17.61612759015719,-8.668853249300703,-6.526251461314132,-12.956070951501239,-17.599782480471845,-7.756704124897603,10.409177899341344,25.79197394127233,39.9041678939375,51.63013289415136,56.399084908272506,56.695778810767905,50.03892354931958,30.818822378980506,5.199995446720935,-18.349446351394253,-35.859676410182246,-41.89738971907431,-37.206062851191916,-30.604778227589126,-26.104259772626463,-22.670974103835867,-20.753313788592497,-19.411810060555936,-15.35375845098461,-8.901943908192692,-5.345263228922015,-7.202428170748895,-9.799923066839362,-8.488858193443521,-4.535153052270477,-1.8339638701983425,-2.4940663434040324,-4.853739341661017,-5.3617185578454105,-2.239717816980927,3.536753964862772,5.761957848993533,-1.0637375451241997,-7.379998568495917,-2.3845153256848564,4.967947934735827,8.068516749030815,12.612659739461794,9.744148465049387,-6.586726631895598,-15.660965110092548,-11.252551626797095,-10.870545077474857,-12.716700176110859,-9.225957021860285,-10.346685358172438,-14.5251794752698,-11.412658731495052,-7.583050782563969,-8.369909360952011,-9.127254825551397,-11.062919730979434,-13.650932288487509,-11.600172067955665,-8.347713636314387,-9.492537108052156,-12.189666105765786,-10.229807555704028,0.6467497409742711,18.405482672168787,33.48030794518173,37.964794689656316,30.78684323431372,13.365039140665909,-6.646589349058602,-14.668564734379007,-13.409854179603155,-23.83145235429503,-43.29308130420806,-51.439914680652535,-50.815956704923934,-48.7022605560107,-45.96562154676283,-51.68079952895849,-51.23981607485566,-19.68895267367653,46.45451075799096,165.8947264876397,276.48233609559037,189.20377803276233,-68.34748779269744,-182.8589538545693,-85.30585162136583,-21.256624840381946,-47.3105320901642,-39.20281532594953,-13.679975847277916,-20.88793831000543,-18.416787602036987,-2.3045414802742936,-1.7386879997294393,-1.9457287635210436,2.2906564372464127,-1.4701346199103842,-3.706329312133974,-3.7530165135839635,-13.016524001057602,-20.63365800716003,-18.037574419103358,-16.865936946514648,-17.339854061789804,-11.671426139135097,-4.330138109850502,4.480659879419662,15.902041432753268,19.956754249461348,22.738014529898308,39.512789007500686,57.03976242840606,60.4728977427221,57.68807919106503,46.793005335464194,21.913027128452335,-3.220367950920342,-20.88696923992589,-35.19596611848847,-41.55961206449269,-38.40657502489039,-32.52418084057083,-26.128584896513203,-22.304331104286195,-23.847364780090928,-24.50985746782726,-19.822234304436826,-11.94054025118766,-3.989140881340628,-1.408659375507984,-5.422319343775216,-9.342358729823484,-9.944316917025072,-8.086802556965122,-4.466591624913427,-2.256227016068884,-1.1349129949020025,1.6975920325867637,2.952328354084907,2.476239905548267,2.7726722130011243,-2.085097243225867,-9.323091959683389,-6.032511150184224,0.7268375101663374,-3.1713332772852922,-9.977760376909837,-11.086450702780994,-11.908132684345825,-13.639958244127957,-13.040419433960999,-11.644376538354539,-11.414180329633558,-11.898264144557832,-10.422542535067176,-6.389946478865692,-4.803825467866135,-6.155232574906055,-5.518934513238687,-4.183649854122084,-4.07654142027064,-2.9796827973658946,-3.4558998320666223,-7.59085858004789,-11.026512953723232,-12.031583858885021,-12.093590878628618,-12.066632429735643,-12.214855860641135,-10.349743483182847,-9.064237493236357,-12.157572209645863,-7.765171598458201,9.406007379002155,18.510487493435743,13.130168380669767,10.749637290097597,9.299507562251911,-3.4986782352000994,-16.767256059269577,-18.394618317212775,-17.86500326384725,-24.93087728675402,-32.25342764612953,-33.807854077679316,-35.54737741240727,-36.0492500411803,-35.709217053853564,-46.561159917609984,-50.734904275612045,-17.21746916370066,55.2915291236519,172.25779021975174,270.6043860027222,179.1325219705623,-73.2968374463654,-189.70172984864257,-96.3933783954574,-25.034958608463363,-43.796229535181595,-41.67373993231836,-21.075965094619058,-19.745379009907015,-10.302509642122075,-0.6009579489861938,-5.476984547952139,-0.6821090072706184,4.93556555662759,-4.810722367509977,-3.2554688935830534,6.75588633152449,-10.72882346355388,-37.56513666944471,-34.92867731583835,-20.458236382913398,-19.552855275166166,-18.973981096374494,-12.095224255539643,-4.845018327720973,10.270311533237416,30.42053261808325,44.452368769861934,56.051453294514204,61.41464954397481,57.768397924546434,62.97611608730411,67.57841730071915,40.542134091763415,-3.4839412986722404,-34.81814888744758,-57.38973292650247,-69.83387323189007,-61.67038841788322,-49.11213171711885,-46.344859131907214,-42.06209496051868,-31.116184589150578,-18.967756476414074,-5.917460089102853,-0.8789800384571222,-14.446344896701255,-28.708262548233265,-22.5431283020586,-10.513645711757178,-9.5580059737635,-9.060970441491829,-4.170818534855076,-4.153380186779231,-6.114778741184621,-3.0809156685572887,3.0557152188344396,8.285028328741646,6.845463571657861,-0.32529302246024194,-3.1111763639261696,-2.5950686494754986,-4.225966008443571,-2.3916114247699216,-1.3072841781395006,-11.156961744802873,-19.223235153118793,-12.81728119576997,-5.617277929568614,-8.40959701615644,-12.598924430184049,-13.396573690699837,-15.08152033714464,-16.92654738487594,-16.1886690448058,-15.106700881332142,-12.940142885653234,-5.459514432643993,5.675788088798291,18.086110216156797,29.353600355443554,26.513138457383057,4.95930520595014,-14.235391504056121,-17.715055670332827,-18.245652715803555,-22.575288317534635,-24.856040775737874,-29.50734562726624,-38.26035693884026,-38.00941118372867,-32.80522310581983,-38.675053084653506,-38.983965450615685,-8.878461953791508,60.52784779864808,181.74720133554564,278.09766949925216,179.2241622764891,-74.14719538142924,-198.10817055003508,-121.28055462447645,-49.77059041157378,-50.52484341144087,-34.994777557647325,-13.710900631723206,-20.311159388345967,-16.438721283316717,-1.6285374438013829,-1.137694115483125,3.141132061734294,10.506507995622776,-3.56696170597003,-21.802132297369525,-21.409407864779716,-16.741085546647273,-17.439790385985628,-17.2708611268272,-19.38141195058441,-21.951156257062497,-13.96802132835263,-0.4927949610986604,7.384489153944294,13.980081499323253,25.390430669561244,39.06977667962205,53.03090590891729,66.4959605927612,73.75493123909396,65.91608612562828,41.721401032474205,13.157424464340556,-8.497163494384525,-23.84570023610323,-35.41832354005125,-41.64407438852338,-42.539975742815585,-39.58530875003346,-33.63799072780654,-26.32032498811278,-19.629646111552013,-15.266384395984854,-12.878871211396905,-9.158625884302543,-3.793415647970493,-1.316094278864842,-2.6444760031202375,-3.344408515346748,-1.6263955361099551,-0.047464343703017775,-0.22762294035453756,-0.36838704005734524,1.3661679308761405,1.5392130019619845,-3.51864593192696,-7.243332201812588,-2.9467730207704896,1.8491968635516822,1.3118540458094015,2.2061571597312186,4.10766677127752,-0.2159430195618901,-5.492437547895136,-5.144961526481843,-3.114372669052548,-1.2649107952408238,0.4171992063027483,0.6518681612070338,3.418240734444919,5.439491947650369,-3.8384490500674104,-15.173781202477382,-12.522147655138562,-3.8403091031527268,-0.6404343014865947,1.232499693384863,1.8407572428054504,-6.035276275091142,-20.90840094041181,-32.69195533456883,-32.807730791453835,-22.45929427725425,-8.884887384178352,5.742746498442386,19.259909768629303,24.17004610075511,17.636869341474615,3.1373119045193008,-11.547115651426157,-16.668710674968043,-17.1030692793113,-24.100060526784656,-30.53126530405442,-32.78078659319859,-40.22877707749035,-44.59358777262799,-43.410913891416634,-51.693071377156315,-50.445426331505985,-16.38325746985971,50.914885082991866,175.82447669531007,287.5002068021253,187.9777906343259,-77.46200721537949,-186.1028105318588,-84.41290180377207,-22.503174798326413,-48.90295120976863,-39.68089346523246,-14.330682531878878,-22.573888740369163,-21.156173376150228,-4.6755378153235,-4.186995327185066,-6.078111945512584,-0.7630908533161316,-2.751392552518917,-8.22243178075557,-8.568663868715277,-9.019646519416922,-11.523662768057145,-13.430215284336496,-14.37234548068833,-13.318423269431548,-12.243681415568426,-13.517779696084581,-10.366911935929616,2.1870249980350875,18.1547618643706,34.07994188097722,50.444612821921844,63.017266510827845,68.82110301267267,66.08754662510053,51.47681989702197,29.00624621606164,6.6826280625591155,-10.96998024915362,-22.518222762578734,-34.61174018424235,-47.54002486791052,-45.33805759060429,-33.589679571404076,-36.40624581614186,-42.59472106819168,-31.38511003574587,-18.636473847448826,-14.877215273965772,-7.674580318894574,-1.2678817203540795,-3.212364455048398,-2.958147773599041,0.1866003450639866,-2.057192628100612,-3.948202975028739,-1.88899429500659,-3.6894824889303504,-8.788726503762703,-9.97631382511149,-7.66999644269746,-5.126362533215877,-3.960883929203563,-5.433079157809081,-6.127789962573537,-2.926008748370297,-0.3046286267644618,-0.44677338975495573,-0.2946442799596731,-1.149868265549463,-3.613973616695837,-3.67356683828986,-0.9788048854455624,3.5939515165254328,7.750699545831981,3.6307517586309785,-5.676409382965206,-6.990651668435266,-4.174337393287127,-7.472997454785835,-10.93498712272383,-10.834398953104046,-11.891152977393183,-10.356748852096873,-4.289634493354681,-1.1529589358110535,-2.4914626690608888,-4.721028233918982,-6.05791264141024,-5.261962594571651,-6.392429747305709,-12.318149483611263,-16.15938662279873,-16.576480436566236,-19.45386145927261,-20.00472571768904,-12.384144759326752,-4.0439720672020085,0.7085496329798353,9.696076520775584,24.52755083926623,32.69949927158557,27.08124996386642,17.581842834308304,10.552018761388485,-0.6127865257207006,-11.176311576198879,-9.273673115340966,-5.676498974025822,-16.049828851653537,-35.727488766965735,-55.66075673402933,-65.46380095680168,-59.40559649626398,-56.257269282020054,-59.46982404032484,-40.901497489738915,9.698193513162941,110.95135962975779,252.98953246724196,265.79016218973936,41.0749571562786,-173.02579351025636,-142.62842126028204,-35.46416044799442,-35.97249082178196,-51.01974868746225,-21.18039957897184,-16.280223830881738,-26.41710767009005,-12.933667762965872,-3.7188659353330795,-4.882312375130134,0.7616436648357539,0.6462255428405266,-6.579702822177115,-7.463059787280747,-8.281719918843427,-12.255035193702817,-13.19264869843625,-16.731042129435725,-23.28586887715246,-21.352950841088138,-11.20134241177118,-0.7021542198456556,9.22359345502755,18.418922306528554,27.114255426250516,39.37539173772099,55.72627186443992,70.30303009167467,75.21000620880062,65.82305230043168,43.80593417271664,14.290177751056166,-13.387678861033548,-29.43470278641296,-37.085159317643566,-43.31922358088687,-43.86175919284123,-39.5646657974747,-37.49820452295503,-31.77995974250227,-21.17283355450097,-18.093372420218735,-18.677425927269045,-11.499457103775594,-4.669063525459464,-3.5773727748208053,-0.5390942069581346,1.311057905046006,-2.3359066559771335,-2.0384858826673256,3.086628408776207,0.9776081088563302,-9.422270254126994,-16.30382774430589,-12.356337122817987,-2.886654035517834,3.2843581732927696,7.281763146616836,11.659174394930353,9.17259879358421,1.229963175543773,2.3005809191274444,9.183590301527163,2.259760679086444,-17.82037811025432,-30.954261845248265,-29.655323046872642,-22.989760395988892,-17.410100955984223,-12.563698810828338,-10.040041205374084,-11.936561392261797,-13.919534242460946,-11.170117084649835,-6.898783790262781,-6.556634068955361,-9.81234607844409,-12.685507203856854,-13.069959053473937,-12.624241878791096,-12.896895448926816,-12.571455247399928,-12.093983718818725,-11.549650648008384,-3.4472800700398816,15.518203076192052,32.33888589419015,33.689799238112826,21.83751317734913,7.896302113280977,-1.0762005024000096,-7.391210553367264,-13.693601996993674,-17.852501297923155,-23.864249711351494,-33.91455799128435,-38.869196359805976,-38.818581121718836,-39.45782467316924,-39.50465221347628,-47.17816219907871,-56.25606063347452,-34.85472898011802,27.081937293515693,134.8327018640649,254.96554551081482,226.14320361996084,-6.231048363748151,-180.31616155319847,-123.64742094075761,-28.272583209654414,-33.54533342473273,-40.305567642675925,-17.068870888778143,-16.99373348983576,-15.028451839227923,3.0653102709308975,1.2670299766368096,-11.926312373419076,-11.781384106925252,-8.115935964781094,-9.834004531390942,-11.145722936862246,-8.899033983420889,-9.267522154928923,-17.19793606973674,-20.680968606442885,-13.935878092938466,-12.602580449285492,-14.34782991801756,-3.1633470989821975,10.696498662422998,19.87070396688988,36.07244512392434,48.4491202033298,45.167321797863856,47.60017222185989,59.005540046662574,53.54877771469713,33.7273987751944,15.555906651155073,-8.311888962851967,-33.60762142008914,-40.926194897481665,-41.116137655775304,-51.54416990811258,-55.818582105515674,-43.941797757266926,-35.19217790696143,-32.529162948742474,-21.96345742007096,-12.06169317230475,-13.579143333594345,-13.299332591125296,-5.2964021060218975,-1.0801674834701096,-1.7127865712230932,-1.2704350574653347,-1.3059058427594081,-2.0590183992914284,-3.121235841918786,-5.815673216267442,-3.6441905722937147,3.2457552426020957,0.25282857179346685,-8.112126744756251,-3.4661690515768147,2.7926440368706977,-6.1365614671971365,-14.097714082250278,-9.47778648899229,-5.718399459886362,-6.985139617728009,-7.487101392738513,-8.944499689384909,-11.273711170568557,-12.083235223740493,-11.991697728568383,-9.24415133692151,-5.831116384907858,-8.50605746520055,-14.168832972626896,-14.58766372309427,-11.929766596922729,-12.38727778854465,-12.50890078526378,-3.422281582681376,14.491855071440568,30.039814418715252,33.82827110592264,25.32023146836476,10.668817987845525,-4.314944095504243,-18.08172581232706,-25.210210320163633,-22.490772268220987,-22.826205382935484,-30.798530598560447,-34.00117058905225,-36.59505393361674,-42.409933084677874,-38.20702629042632,-35.4457027418366,-42.50082658885745,-26.58847117058387,31.359824659379633,136.95218362310555,257.0091341399765,233.66852557804418,5.722750699771119,-177.13578187717272,-136.28403009995463,-43.704424597743035,-36.78647730942932,-31.092393115476483,-3.1899350794255987,-10.95721875625301,-26.588793601042937,-14.192264515016424,-0.14668963557567416,4.005281736087259,6.9584572784419,1.358704467518777,-13.345105099525245,-22.807359881012324,-21.08330651668421,-14.947588492865108,-15.42892318026821,-27.42021425906541,-38.51536577043163,-33.08227675163594,-18.11793696441805,-8.237431160322622,1.5078070666922525,17.361813341934972,30.454248180119038,39.754051284726515,54.23487264054907,67.94534274780723,66.94742102352176,51.48300598467755,28.97514620913422,3.3912446859721266,-18.024068824727557,-29.46372191789132,-36.89688756431576,-43.99637498223909,-43.01567300717892,-32.49727726465811,-21.085329197222393,-13.677769859319568,-10.485923412027944,-8.583949775844223,-4.25202081530964,-1.6901253819873645,-4.5065914722417695,-7.648332220454886,-11.182640244620323,-16.87583964216745,-16.58333492701025,-9.11463839325753,-4.26357986584525,-3.852972841575598,-4.7988144292732695,-6.188840665406136,-4.371617835834071,0.059653632603661855,1.738121891559425,1.1429810921054644,-0.07473367766291794,-0.6590545722139165,3.9905487702119293,10.41626851807497,11.550452583024324,12.225619389842446,12.910919470205087,3.4363102043714466,-10.055504058000658,-12.155795573202571,-8.261408430879206,-10.905636173162263,-16.56309796385517,-17.443273553116352,-14.338728511041936,-11.289112645750858,-9.400813595610584,-7.4746043817401855,-7.316163710621074,-12.391810386264385,-18.65048404265164,-17.51186949997597,-9.818464565457083,-4.605264446224957,-0.7829783185195329,13.692156820392366,36.567905785219224,50.1644308580249,47.802436752201636,29.543107749206243,-6.552959549405081,-40.55105229768408,-45.35423999959481,-33.06260625546109,-32.172430539202466,-39.28706430239438,-40.710231121630514,-43.32137259353411,-47.98321585285659,-42.66749046702171,-39.715471971147,-49.82990170708599,-42.267976977572225,1.1484445330527322,84.72982022178809,220.4232580200418,288.72098892605493,119.88021036880974,-133.77285809440622,-167.38652973128396,-50.92542437213183,-27.22256649001472,-56.16846463802736,-32.44143965874218,-17.77996022301864,-30.888108515270346,-18.895609575781027,-1.8404224006119314,-3.994305912188146,-3.6718255703147706,-2.0916031995568094,-7.96259900427091,-9.811260184303269,-7.736202927118134,-9.802469058914438,-13.455819867880292,-15.272096807481741,-14.672818568142166,-10.658274984890435,-4.601943477016833,1.0955553424696762,8.19913916910119,18.858956656957787,27.419563140063616,31.16614049139522,40.34832347147197,55.86781243596532,61.99167511106552,54.6611274925931,41.306535209205734,21.760402260745803,-0.4775306904891983,-16.2806304608539,-28.885507510842693,-42.22702753931711,-45.11644758863352,-32.00420635499901,-19.065450826966355,-21.361798387368605,-29.60927808401002,-27.404639185630714,-16.665065417516217,-7.232246249906764,-3.304914792557394,-8.950803657875134,-20.036028690650404,-22.449215679093427,-15.431628881548598,-9.651705699283998,-6.997358896067951,-5.739515650773463,-5.81825806686685,-3.9328492672153796,0.27661889938421247,2.5878934669224734,1.8205167075901105,0.5678924412402857,0.6468489265221855,-0.23443915832186946,-2.685945642564741,-1.928598327228876,0.32455416601804643,-1.5734652932767084,-3.4156603411402653,-3.241273040859319,-6.846167053320277,-11.48962142403182,-12.343492147249389,-12.501471095121701,-12.397919091987092,-11.194402677402891,-10.499895158797283,-8.087964540581648,-4.733832850238086,-5.00671858493271,-6.65901996763,-7.5997583157524815,-9.54774345865502,-10.118617802718655,-9.341370169249634,-10.718134075807871,-11.601413446813208,-9.411319095982943,-5.321013280303541,2.3742340703595315,14.64295517390383,29.43437215962474,40.86476950989181,36.14971346288279,14.035622549327332,-6.504534796254475,-16.129504424131824,-21.516501608538697,-23.761793746053876,-24.983721073744984,-29.51850202757618,-31.507084040375197,-33.38793756401502,-41.51528501030933,-43.18145002690554,-40.25811660756998,-47.00554566918508,-41.1191568351773,-1.493328424629805,78.55302236484563,212.43808126422346,292.5668406648231,145.43323127087064,-112.6944039790792,-182.48844734698926,-82.22598649072714,-38.5764284301511,-56.358946497433536,-40.08530899414541,-22.958875508803054,-28.802854872951478,-19.472719031898148,-4.683702639808645,-4.967522961159911,-3.4200632250307077,1.080689124146538,-3.6092444019009164,-8.887028714384591,-8.008130757399954,-8.883522204972834,-13.677776814708949,-16.154904649723697,-13.649475781114415,-9.514318755816426,-8.39768446154763,-9.784948392308635,-7.059577520802715,3.7838312930606737,19.66412112466685,35.65519687145518,49.79341594725236,63.58106630108341,73.26140635913754,65.42263088766997,39.00794223834981,12.744707859537865,-6.515167742502375,-26.310109751931858,-41.16532951127618,-44.64308358624955,-44.12783988051723,-40.77477182753415,-31.691210246099146,-24.789343159373306,-22.367775611279566,-17.04304645379716,-9.981331315472556,-4.171059853097205,3.7297523284477965,7.2056683985676475,-3.039860074251301,-13.511694568484616,-7.611198563685868,3.0922360616536064,3.609636702541886,-0.04940049659133727,-4.06299182042293,-11.813331005372635,-16.417753900566627,-13.490467552253314,-9.7764718848597,-8.554293276488197,-9.948788533393198,-12.494254576617674,-9.838053375153656,-3.0766066135242536,0.24820268081644237,0.4318246871526785,-0.31483951100313234,-2.000850950386349,-1.2551834286516552,3.1572231902981196,7.730227537585614,6.45685453066662,-5.355241878722685,-18.244638456479677,-17.66337407220645,-7.98719952586103,-2.239703822585188,-4.621382640012234,-13.432716643641587,-20.872059000699274,-20.339141127138767,-14.310809158286347,-5.375852051282683,-1.6870047751181225,-12.84194439242593,-21.830661885947652,-7.771360556366804,16.4794475210914,30.02768861494741,25.540538490442295,5.228290731231976,-11.382365602057384,-11.461584153497618,-8.8068881432561,-11.551345339036363,-20.426456496458908,-37.961278233245224,-44.75277282594503,-33.86024276328743,-33.27325017392875,-41.64592876385695,-45.29449406809269,-61.80584813581517,-69.53775380973293,-29.796434138964912,39.962374482966744,146.44971607363811,261.230360564237,205.73987912084365,-40.466787223641575,-183.05803881636797,-102.74862020605258,-21.617864447496874,-37.94897496362803,-43.44262374730903,-23.933900963481253,-23.994909420961363,-18.87277459383644,-3.876557449095138,-6.979162145238778,-17.390691551322586,-15.978274036388324,-6.832045030368656,0.3809145657751767,-4.013608883260082,-16.168553375032012,-18.946675970165195,-14.287184344894085,-15.236264160889569,-16.58390853024011,-13.697515613102912,-12.817111779180134,-7.303959057069182,8.778831958882149,22.78185272483382,31.613085267950048,43.969896609489076,55.25319103312026,60.801995987169875,63.489187876824786,55.90463137792446,32.306134454652295,3.4156011971910707,-19.307085053410873,-33.076488159951396,-38.409318007783995,-35.02449889367972,-26.088894220417686,-22.922169742979364,-26.60996529182673,-23.127768977461102,-14.521785890321055,-11.685008601998346,-8.217703041620535,-6.407208642247635,-17.06050365420633,-23.567071595402275,-12.226305531870874,-1.3890776813254107,-3.1308066226149087,-12.59306689772037,-24.296071655653115,-25.390544753472202,-12.185231928371788,-2.854943543020436,-3.686156873147599,-3.4928603552211506,-1.8086697488182946,-2.2953441995059816,0.6049147431455211,8.128443087789282,12.647161821380728,8.749534253722238,-0.9890993994082908,-6.953124467883168,-3.2771677016342995,1.4588007226696398,-1.3807051490192492,-5.273825810788113,-7.212459042361155,-15.356899263042699,-23.656454959290354,-20.960485615469167,-19.292393305969306,-26.987164128238128,-28.57427421665964,-20.073044585038154,-10.579714155109352,5.426589000285676,26.57940947789978,31.876415626325368,18.290777989851897,5.841019137321057,1.479170592149715,-4.26703789359258,-12.855728254516224,-18.94211869400597,-24.976623968701666,-30.17009412828448,-28.223611074437912,-28.571945831295643,-37.03795008177763,-39.20658691925941,-39.70478321921107,-46.060793603911165,-31.54068091964782,18.350139492048015,110.95177694744152,238.0758060079727,256.4494487085615,52.61397451859665,-161.590770715432,-148.43538507056303,-41.14646174359656,-29.051659876292696,-47.70909956089125,-28.29213796883483,-17.115994607171316,-16.848601369518278,-4.461033195169315,2.470137666827547,0.4877732319069681,4.469064818996265,10.337307961667754,4.758067450826049,-12.029092084321114,-22.082887903376246,-17.56229843156981,-12.78063163440671,-13.382627183307552,-16.040807235274638,-22.311828288971256,-22.224823567388167,-7.501055521303598,10.317483153566133,24.020509448643537,33.36732430957659,37.20291687662694,46.24648195126207,63.48567653557441,71.14897339075682,61.36868586285755,37.78981927960878,4.840978675744694,-21.618209872667787,-34.68150692361618,-47.55996189104671,-59.57281143193205,-58.75143768779883,-49.22162088228761,-39.45530234637586,-30.780027426344013,-23.181466577055225,-15.49207284329863,-9.515267618755175,-7.150082487326728,-4.103094265289235,-1.6980057655318035,-5.123740775089946,-9.095361845849695,-8.898586666695472,-7.318098192620553,-4.321014707390207,-2.170520504878427,-5.24102705464432,-7.461005860130204,-3.9716400356985826,-2.0176898628303075,-3.58172048937446,-2.027552889179457,0.9726867193645266,-0.1468707653769039,-1.2160113871609823,2.8235083483920516,7.876291431879014,8.773775960154225,6.135415132074215,4.312116980429338,5.493238593113658,3.5353315479496965,-5.624840970197342,-12.498969441707086,-12.77560818344048,-15.322135716322375,-18.23010583737547,-13.491515911398263,-7.979190148546767,-7.40134087830598,-7.147089995889949,-7.228655093585001,-6.873151555950134,-2.2390724494659873,1.9545503192357705,2.1072944024162314,-1.4873682102930417,-13.24494473137127,-25.1814732089039,-20.648830623970493,-5.096387215420281,9.204289784149687,22.447844717422086,25.256623807826507,10.59448579573599,-1.1619787423755508,0.8638690388905914,-1.7714178767722615,-13.81901121782765,-19.456192910270683,-18.183180537528838,-19.53574629320002,-23.81297964912119,-34.807218561872304,-51.16007308581094,-53.856359482779325,-47.84982523003432,-54.03929636946241,-49.05587880677412,-10.8453134380103,56.795260725581464,180.16821105887874,286.6202158937692,178.1006269982783,-85.27588360047389,-179.44314574785005,-75.31384096550804,-25.001921549374817,-52.98420948679537,-36.60097765324935,-10.92395097460652,-20.98542392476717,-19.554485051379295,-5.68743703495263,-5.5416824707460925,-3.8416522383164704,2.608273405399404,-0.004098286577391974,-6.676490707183617,-10.223545650224155,-11.096458750113502,-9.50951044965325,-8.360098019834881,-10.455754656335104,-14.415947474783879,-16.93475793621395,-14.09679646710162,-4.444865996841365,8.611963455762277,20.644881839144006,31.40447641127711,43.422671226651566,56.45293127924347,66.7255189329185,67.24944300219192,51.13593427048285,23.984027629805503,0.09804483584153534,-16.557808205978265,-27.41118070040219,-30.944069838751624,-33.51630235737732,-39.25951362142421,-37.42673838838564,-24.775275709375045,-11.817565076061326,-5.163873219984485,-9.71876260946356,-22.9305068832783,-26.72796783572921,-16.811429180626536,-8.975736476637726,-6.3474297538437305,-3.459888339409602,-2.6187235791312347,-0.6950007373251221,5.887872499772152,8.594084509949525,2.589146640419134,-6.908408041238117,-13.05567780244529,-9.163430246979193,1.4872039407163875,5.1458314096081885,-1.0772287467481174,-7.423416925614447,-9.639838634790479,-10.548704457671066,-10.097716001618268,-6.248519029026825,-4.159135640340949,-10.152091616834268,-15.645683626942901,-10.398122411137503,-3.3330535764794664,-3.945556443406563,-6.717909650429036,-8.36498280129253,-10.162117640017184,-8.52354786654869,-4.068613326291148,-2.4456866608599945,-3.708940372397443,-5.344292175864542,-6.041211713002562,-4.065812818873084,-0.17443077706697352,3.2250144201653725,3.556190170761278,-3.20747612495534,-14.206685914295939,-17.88043876191987,-11.526682608325228,-6.3624279079315365,-10.387036853357744,-18.36274680945974,-19.249839164085934,-10.1510853469471,0.5741225322277499,8.447483518828587,18.311154901506782,27.185798776900334,23.665707191270965,11.229544804931022,4.968900957117615,2.533175518691367,-8.409568163949462,-20.61585542667563,-24.152460909475213,-27.234643974770602,-30.691833330569487,-29.749402170856836,-34.155144982209606,-40.315937939518506,-38.881917505351524,-42.938515548734195,-41.187050578000694,-5.391058301232302,63.35437721882852,179.08101023830685,290.1342928720454,210.67021785886834,-48.353071892461344,-177.69840640615735,-95.04232595768539,-42.90363117796163,-76.89169421995341,-64.81680903262748,-29.597503523634817,-33.13718366704039,-29.72670605528048,-12.11761311473685,-11.721205639391759,-9.634097653256859,-0.42739615574711465,-3.89332880280098,-8.967422282290585,-7.545257219502071,-12.408405070813838,-18.09983168239922,-14.914957851379162,-13.03913706413689,-16.632374213273216,-15.537646099700451,-8.406652409600355,-0.6957038530125315,10.328587600133147,25.68634464755835,37.026986836786534,43.290805724554474,52.40690903357546,62.205826683795195,63.99175048844262,55.266066474975005,33.26742382784334,0.37279003302953617,-25.904275782582737,-36.42614350069471,-42.49908622265456,-48.804936215948246,-48.21461863888272,-41.11881452918849,-31.628476471465543,-21.498169699914182,-16.011265435465337,-14.877758545005337,-9.929975520630638,-2.83861159661601,-0.3630971732529815,0.8729718717584429,2.47060988955854,0.23746963565315404,-2.092277315187614,-2.365838852120218,-7.0777726927216715,-13.024807194925705,-11.74667449348353,-8.313686815018379,-9.057304757413421,-9.118668424081653,-5.163768061383561,-2.1323543143326287,-3.317148433034342,-3.269018110794894,1.9990939603269435,5.306694763906682,2.6737637766651243,0.46351814439309535,0.7834429520848953,2.666243572709048,5.210279735713864,1.2952300124310696,-7.271417978143896,-11.490733313624546,-18.96256136199138,-31.420389058080172,-30.989619419011305,-20.281869673300704,-16.977635403955674,-17.950176149755038,-16.770935402333066,-16.37089131499764,-15.695229850595389,-15.563906978677943,-15.618207417187744,-10.671535874775762,-5.340619843999548,-1.2903129533727675,10.52705280878007,24.492250828285428,28.292947265433853,22.475425230480745,9.200889808883886,-4.368537099721918,-8.101412334827653,-10.418786502732635,-19.740805517399775,-26.21226461754546,-26.955070228808413,-31.365985594917856,-39.78208744446712,-41.45210540345296,-37.81693665207143,-47.182875838752175,-56.994083366084425,-29.35278718166407,34.220002819041696,132.24810506335365,248.48497074823058,230.9581605448335,4.41697483983728,-180.10059791315663,-132.5039908178993,-36.84125085259786,-41.01908857274935,-45.77545117638709,-17.4200270271133,-16.18531723456776,-19.699199463361914,-4.990149866866302,-0.7006446511000082,-4.9912239923248105,-4.119750629760718,-3.039309718851234,-1.5894567641158481,-3.319285105254501,-11.691647204663237,-15.555418919714125,-12.125916890391375,-10.343550031999484,-12.067371919785527,-14.344535965391302,-13.068713977527837,-4.8387995648992375,8.331776455941512,24.05154727373226,39.10451556114806,47.604533929604266,51.372346353330656,56.27725790034434,59.131884783424766,54.601751036950894,41.950531472653736,18.2569599612078,-16.16219007553235,-47.21593761469916,-59.465858679147956,-53.20956932378343,-39.41920743206495,-30.05119427713256,-32.670451314897264,-39.04221219402764,-32.9567051377698,-16.62201980910801,-5.04864111031516,-3.4233570258007155,-9.481497856791961,-17.36295822650556,-18.022555263184223,-11.16775097079449,-3.3558323446840284,0.7716427893698388,-4.060393407110961,-14.324344448180245,-15.925946604691973,-8.818876673419101,-6.273737474409845,-10.06222178483194,-12.598361935472234,-10.426608602248795,-4.881459584767027,-0.6770935720273776,-0.5143790201930596,-1.581299902270679,-2.6668954340831874,-4.778773570779087,-5.55405724843299,-3.419790299212858,-1.8708703815057977,-4.338058638631695,-9.38764159731833,-12.469501016385115,-10.930543340549097,-7.171771777463588,-6.653001198963324,-11.086605559518734,-15.446912806566537,-15.592981895427979,-12.088397052188359,-4.79042298473677,4.626465909829232,12.834804997450929,23.37015356589268,33.566237181996726,27.986989302700117,9.717261444699353,-1.5245113145022753,-7.693612971604502,-17.351239922486762,-21.039569354399422,-17.75464737627896,-18.169030979815815,-25.727710727433625,-42.17051802726901,-54.47928514520022,-46.328451838043144,-41.688106538216495,-52.14088184618991,-38.03511835096921,13.483884011001265,105.18938127599131,236.0966060194239,259.43563655830883,52.67554762880934,-165.14929333018915,-151.39430206507194,-46.160541337046595,-34.08902491493337,-42.412862195928675,-14.65295899824325,-9.666082720610454,-19.615570843050747,-10.153116175428694,-2.000683475466463,-0.8261736535322015,5.161923314026936,4.8226640361365245,-4.6832776901269915,-9.592493262636255,-7.65838998818799,-4.169794555531846,-2.230900814410127,-9.321786190865833,-26.21610598396511,-34.33340960737619,-23.262773485784457,-8.97171653377768,-0.7040835295497687,10.62594705063843,25.294217089044896,37.914511823003416,51.82565556313915,66.48651420401218,72.67776855531113,63.27007992271885,39.89115091971941,12.490284244931189,-11.391727015225321,-30.516580416203297,-41.94174857691123,-45.22902562079098,-45.23960693573856,-41.76611071882111,-32.793757575048865,-22.877015078499486,-16.391794643329504,-12.481100047461673,-8.903204996431509,-6.6303610272518725,-8.645450573618392,-11.215781319646185,-7.687455392854041,-2.4411077373194825,-2.6153837747817654,-3.7143790225544944,0.701870873143644,7.908675528442167,10.418794131732284,4.096925963542183,-5.512678420135481,-8.448081192114829,-5.291335369242814,-5.2809811847240855,-9.845688660623646,-12.300833731147794,-11.27831717845729,-10.207570280621102,-7.632011415889213,-3.0190592487173866,-3.2818162227794136,-8.976818898637731,-10.708536119783036,-7.245790597569501,-5.442035285624906,-5.507261783476769,-4.54180444278186,-3.8604374163100594,-4.540031246011667,-4.142108229933662,-0.8340655778203558,0.9161711597353683,-2.331592958600229,-3.8829746667395213,-1.85539474269215,-2.744362166176007,-1.932640556649913,1.8641970606743978,-5.514083246074753,-19.254242719988774,-20.57518397306656,-13.83575001871079,-8.186157758992078,-3.543929082716076,-6.360406356533142,-9.858023690778221,4.452317918697546,26.38569075355219,32.115356346676236,19.953758583202163,1.5184091154598534,-12.640579517572247,-18.58468496495078,-18.806823895498056,-17.577892246985463,-24.75390104149585,-40.96687754096865,-50.245618359065006,-50.2161377236317,-47.591024863542906,-43.37356132723966,-47.11432055959759,-48.15638419482494,-19.12415703881144,42.9652728480321,156.0083783696235,275.7775959308404,210.62503306585154,-49.97422595733656,-189.74015558873998,-97.1158125106357,-19.924363645119314,-41.75363112758593,-34.850172377977806,-11.563008637349398,-27.405755100945925,-29.554139403458166,-9.033628232509933,-8.211422508123945,-13.04448451445546,-6.434477672929752,-4.517281428391412,-8.496064684545965,-9.545055795218508,-9.874360253455878,-12.591235417053408,-15.77415061572037,-15.112234031940627,-10.93490415662723,-8.789360353798145,-8.61179898537227,-4.970067768216545,4.870738556053089,19.699330726908034,34.83005530440684,45.64447234350477,51.94173724167759,55.60146549133236,55.81535214762106,47.74871513844774,29.146980463289275,5.332428443725155,-17.34684302760222,-32.95710148050902,-36.557856925252864,-33.629851164031486,-30.117781553957755,-23.62229300781375,-22.02350343136947,-30.457037834089462,-28.883187761492426,-13.209955446670268,-8.446111982590448,-14.440601262854896,-13.370917529336948,-12.309910293988935,-16.291386504912307,-13.10713132772269,-6.476853819599688,-7.5053457427384025,-9.953482881295681,-7.16180666213717,-3.30742906479718,-1.4412362742587526,-1.010009676862877,-0.9559481116726403,0.0027223093014665523,0.2496676862177054,-3.33630953993654,-7.909880280539294,-7.189628871444299,-3.52865734299335,-4.564141152417644,-7.437248843979999,-3.7845955830676647,2.956079347775379,3.9884209820245227,1.6535940994413352,1.6253035390088133,-1.2311256157769712,-10.359211943596408,-15.593791494338399,-12.92672492818071,-12.640991696236036,-15.541231545635908,-12.738838782566258,-6.89798850083519,-5.228562631484042,-6.590633826555351,-8.476725948068372,-10.091240891173282,-10.673769252140737,-10.77315060046931,-10.167830119705515,-8.91449827147403,-7.250781242162241,-1.2120185781753703,11.676653795046557,27.148640360044798,36.871872578239056,29.837203189303168,7.681577584675592,-8.168969292044647,-10.287390350092895,-13.241128817703444,-18.517889938460545,-22.118512693730338,-30.417432024012292,-36.38910639173753,-34.5088304067893,-36.2926831333463,-36.2134146944585,-33.439482734934494,-45.65370879872143,-47.781687052958645,-7.1752691035334415,73.22366883646619,202.9373189405249,293.1716210560511,155.2855718003451,-118.14885947840409,-195.33181938502648,-75.94940132272399,-24.710799827163214,-54.40553695971205,-41.29750573927418,-19.441529144466628,-23.029469522360145,-11.02730826993997,1.790614004856609,-5.462337908752387,-5.7472619632900575,-0.9591611780646332,-8.960302203429134,-15.470743826450759,-12.796959873868653,-12.451354141318957,-15.087953760008368,-15.755771412035315,-13.481806598169003,-7.294486854133208,-3.455910134817384,-6.144912717101399,-2.656837487423785,10.563080406393903,17.617304395652646,20.726171729006808,34.49673081796008,48.38411729599591,50.11520299162632,48.96345212062969,45.00170701879126,27.999431634714124,2.665602193013612,-22.37428899242222,-42.33800844429237,-49.17870423409951,-43.9376114863446,-36.08085677096368,-27.97546727550082,-21.147245306443992,-16.925049200993275,-9.730794852524955,-2.5540080044286597,-4.796914707110535,-10.708208181305672,-13.00051750439161,-16.370955973439195,-18.41259470212949,-13.142961644927233,-8.646989701312343,-11.324603229399347,-14.46871569717421,-13.251886734401722,-8.480727683291697,-1.7842038021981388,1.1822111357715315,-4.164845182388664,-11.359832387389007,-10.480162668195744,-3.8801595146804946,-0.9948809975167805,-0.5562717359630351,2.6178910976822927,1.658392365822177,-6.795844372352711,-9.472261745566634,-1.0991749067016343,4.344119991888073,-0.4643040557706275,-6.35660920332214,-5.995678675059565,-0.5720859651697143,6.159870906570622,6.493215579778908,-5.222072927201687,-19.041106486736897,-22.966159683678256,-22.272786456460807,-22.197434450707128,-18.253789792376008,-14.141234245433221,-10.831094423884153,3.499762350587697,21.941552202170215,23.52987145197245,13.259612642919995,6.433414621710508,0.9829005348137478,-3.7318123191339225,-5.737388573863189,-16.34529764192024,-36.219726867522,-48.338079458759395,-52.842458237607715,-57.068783324310566,-52.30121642039461,-45.9093378364204,-50.82993326959973,-41.99828759944344,3.9634617665032366,93.31143394764983,218.65089573358563,258.30848374108643,82.34774500925178,-148.20515186037346,-172.83490177257352,-63.69485456162567,-28.00256388740803,-41.732830946634856,-25.143034872468597,-16.748433754455334,-25.049430983566868,-16.077624828680168,-5.948669612009544,-6.584064057902037,-2.6382645245962024,-1.0709333941100496,-8.978494135230086,-13.511298231256259,-12.21700371677668,-11.483838700065405,-11.03148091898397,-12.58583048941018,-17.847448869562605,-19.604940862010405,-12.976276600263692,-3.8390552155242554,3.37554447566596,12.669297925315579,25.643837192825096,37.63813230265669,47.58016968077034,58.19114645256863,66.74242395975405,64.92111607557376,48.29783416725125,24.235979750492245,2.9389103212239194,-16.596415882694572,-34.37013765563997,-42.15007963789632,-43.198945480287115,-42.48325909954169,-32.86221280174443,-25.349077123499626,-34.862955014788255,-38.44227059165975,-22.922333132330017,-14.553375055375433,-15.785614969576855,-7.895751581726074,-1.9596967139456076,-6.307471809882745,-4.799844003065967,2.319583214462977,1.5894206132388966,-4.446900391154577,-6.745286668147635,-3.4960334868717666,0.8887645458270903,1.6658504805071708,0.30208775784910635,-1.2225151244229622,-4.683038350537309,-8.616838826065734,-9.414565106386888,-6.263732778652335,-2.15542522330289,-3.14560312222282,-7.383223353468139,-5.399745447168851,-1.5156339009228397,-8.057796093141185,-18.38106379075956,-17.66600172426643,-9.826674661718823,-8.638722809184202,-14.251238192385655,-16.1051015322029,-13.689330231993207,-15.100999253945536,-16.538765731421726,-10.569409468340737,-4.731484870124426,-1.4361068514867688,11.699462892503465,29.57640441447988,31.26123759517877,17.875728900527225,5.952545012427654,-2.704043599535412,-12.702164202777315,-20.351235010237144,-24.492441706144973,-27.348485913985865,-27.050203866175117,-29.636230337500734,-40.17169105221045,-42.81021853582838,-36.523315234575634,-41.89556086769574,-42.10903131116281,-5.0891149925607415,75.82567966764992,200.68670276172327,275.5576074601249,140.82062689224486,-108.88393307827558,-183.00237947089192,-82.30800279459768,-33.728918181739175,-49.56272083885962,-29.96808524269494,-10.338126415641334,-18.672786121583847,-13.427387026903705,-1.8745882488937209,-1.6527963366576817,3.8345755056322046,10.44425417215598,6.691154927908056,-1.2425021910226874,-11.032649563048698,-16.29352453537438,-10.396821036872204,-7.7992306792750465,-18.07650389477703,-28.562287858744472,-28.66896361946737,-18.100070741478525,-1.987184491864011,10.54509805823798,18.794395326130307,30.85649304860566,47.46575617648774,61.95007987721341,67.57523196015154,58.525491635445576,37.22289701279786,13.648253534901624,-8.014656739882508,-25.94952431850787,-34.99916895788027,-38.76849373112605,-42.776590599072726,-39.6583898532935,-29.4856422424482,-25.07618337944838,-23.29255325279231,-16.125924694327235,-13.415958233773177,-16.185587216813808,-11.260353373816894,-3.0393883211359825,-2.6543291507476106,-5.144432397425753,-5.364218506236046,-5.4778386485608905,-4.865546199283287,-2.626968541493625,-0.3453511560015041,-0.34307156391566096,-3.658239805453867,-5.3271195921048005,-1.4925923404654142,3.3351760767215026,6.9367257177982555,9.623287607098371,5.657261931462353,-3.858057712219317,-6.745655556858358,-2.302058710347863,-3.1123371992222904,-11.253622088768838,-15.984397491707606,-13.073323033247679,-8.743713489529036,-6.759338677056276,-5.598140182640858,-5.668681896110064,-7.630846846610037,-8.324639753048103,-5.322300061730479,-0.8150008201108001,0.4017360514255124,-2.952716274778563,-7.12872289444803,-13.038809809369315,-22.56446790819616,-24.99693430847539,-15.964694448207915,-10.71742233618685,-10.215376066053295,3.7654742326695345,29.607221567676703,46.19968604184187,39.91004323249804,15.511607818951274,-4.6256317609220865,-9.829407359407156,-13.92867352054509,-19.862544229374944,-25.685382762221803,-42.74660996477447,-58.3805995058155,-54.005293404452495,-47.423222535515364,-48.020795966937314,-49.64926159263503,-57.71518108216452,-51.44114164812878,-4.390664034047418,88.39030242545286,225.97059972024252,287.53873117212254,111.19286002697957,-141.92492927187632,-167.53670221364342,-47.59730399805946,-24.951626558639695,-52.789350390945714,-31.180155086978722,-19.269283629923,-26.815152494580932,-11.591117159937108,-1.6059757055951298,-7.850868632925268,-3.5090285485208748,0.700091470612735,-5.554837763373955,-6.0335413973184755,-2.1351819414419193,-6.609728239485669,-16.65893171387877,-23.233734697498438,-23.38975438978788,-19.466684653101822,-13.73795426881216,-7.454496924811622,-1.2466776709319034,8.24021365931101,23.018775716175682,39.00947450579102,53.420990429709484,64.29174915961755,67.45596781074002,62.471024562524185,49.68091850861637,28.06193104863258,2.343309306272707,-21.390957154948353,-38.351801945362176,-42.215150065571024,-39.237344644859135,-43.748403517172534,-48.63589756159439,-39.32389920907548,-25.504545569776024,-19.36204077439607,-13.578239661126483,-4.550548302666764,0.31987713498691406,1.6114146208220266,3.369105151841845,2.466503895093073,0.1502291685613173,1.239877993411099,-1.6072170341649183,-13.62985488460532,-19.852750819058365,-11.519445492572624,-3.922835294323672,-5.644500773917782,-6.987548664030911,-6.3202048610811215,-10.069636659827456,-13.002748175014016,-8.08374197057147,-2.173761178116104,-3.1734018367357795,-6.995240663514824,-7.873040659719269,-6.677198905117777,-5.1595267410558066,-4.5702668633111845,-6.46242107928672,-8.671904084430999,-8.62788562283399,-7.311602095084625,-5.159149328865375,-3.0853153024621935,-3.3629762071862395,-4.550563412979599,-4.219226483598762,-2.4442370328496352,-0.7357647019154001,-3.13908109956893,-8.743299060384647,-9.58293727978969,-6.567822597270371,-6.129093527412284,-5.844739274406395,-5.006324192447607,-6.715047230686661,-6.897112792778528,-4.92477231609956,-5.949238634994185,-8.121508379173754,-9.351174673289947,-10.695398320781074,-10.09999121461465,-8.986001341420408,-8.23471003336372,-3.2193709403018076,2.01831749573795,3.911307593137874,14.404759424695701,34.26538011318261,40.81065285262194,22.57486225178586,-2.763228799883384,-14.793396691884253,-16.828326927813073,-20.572561195898615,-23.602077458096225,-25.068830017720625,-29.02656404744736,-30.070432216883944,-32.42601255367795,-41.55937271687041,-42.879083765121905,-42.30802434214627,-50.62508349660417,-35.08545720013872,24.541302824336114,131.1457983255063,265.8296286168179,266.8058917791651,28.217713466951242,-189.62063166240563,-146.4473005613051,-31.668232930951174,-34.13868280851702,-49.7242656527606,-28.794491523138532,-34.05890587833676,-35.693856925268975,-14.075433736812904,-12.633239387061444,-17.34031483738231,-6.61484893791228,-4.83926725503996,-11.074507203249034,-10.206302848594664,-9.854863240684857,-11.540897728446287,-12.831631253502058,-17.067883024263406,-17.34934573902575,-10.93930488340442,-7.954962251990073,-6.718063565270274,2.830011182626621,15.568455784044884,22.602003221297547,30.662426510146844,44.989661577760444,55.02787290381619,56.418374041451756,55.274922763089926,45.246397893819896,19.246647097376812,-10.436987064988248,-32.01140062645773,-44.19909239530482,-44.59115300115944,-37.641134294018315,-34.30879587925327,-33.84439137597484,-29.78718093309158,-21.819758222982813,-11.73420872652544,-3.4584117574544813,2.2618695610390986,10.234146719729852,12.221967697371102,-2.6771695350193845,-16.927995312862315,-12.706318156957455,-7.062328263104311,-13.136970527870787,-14.668731950707837,-7.69768140402725,-9.079104272667443,-16.84604842701619,-16.29707458649333,-11.500118595484661,-10.29693794043374,-8.013657147594934,-5.444318096920222,-6.643109141190358,-5.798827334191765,-3.060328061126935,-4.588359459994685,-4.750054539835439,-0.6427544754561296,-0.6876114035148682,-3.9318297932425104,-3.190120543127037,-0.3290096701642664,1.3925109948011425,2.760782582186944,3.807221776441285,0.4281653159306025,-12.555369994528878,-26.009833856603606,-23.196556580281452,-12.005196108951619,-12.402238267117085,-18.90374187757839,-18.030164679239142,-15.26240610765925,-13.896864215797763,-4.023713644833977,12.715319215923794,21.432824436165387,20.164573912771086,17.775184846024636,12.085274752115055,-0.4140855242195123,-10.613794542772444,-14.455981720160398,-17.94069605336292,-22.955341148330184,-28.322774135199055,-30.45339859764728,-28.311999172411966,-31.51005681747748,-40.29480304191618,-46.26695561545831,-51.154307534212606,-43.39156529711964,-5.917791736922027,65.95287707299644,185.80953352343866,276.4387961238335,162.02503327578282,-96.2383834095275,-189.55973660919182,-80.70204656474704,-18.016855997243937,-43.222061281834776,-34.10987606756683,-12.818454917491277,-24.08952374975976,-21.2090327156719,-4.298439199718414,-9.687023869991314,-18.653046062302245,-11.930538478281148,-6.030135187281864,-9.30857753964349,-14.474452533435215,-16.956322882355817,-15.87264858934627,-13.47672463047951,-15.622853766865209,-21.685909700460975,-20.322366918848637,-8.977319366208265,1.1756353301116635,9.863980991835728,23.906547189730123,37.655611357333626,48.216220430034696,59.38054898903526,65.28877015860877,62.52761069856904,53.20411415933762,31.554783481262323,2.3282754593727315,-17.716484256513265,-28.712223028079272,-37.301819981665744,-42.171455712062254,-47.88251731755032,-52.260626017155886,-42.256190697373455,-26.45002723704921,-23.312273662242283,-25.949077668330542,-21.816316481416383,-15.327957187408579,-10.659663524832963,-4.304735983108973,2.6453701097177813,3.2293055938961537,-3.322607760251749,-7.667139427746285,-5.6269996465993195,-4.465540576491698,-7.025311730791346,-9.364560664436699,-10.821242159219342,-10.074003106783918,-5.925688581888876,-3.1296262355710045,-2.723809041310874,-1.4443597684291625,-1.8301663148869736,-4.224928959471448,-3.2585601804329443,0.41380715404799595,2.5910810486653446,1.9531160835132546,-0.7927444965381323,-0.7805160965330256,1.229941894723849,-4.5854676914170085,-13.947123010282228,-15.199952454755122,-17.22867476852474,-26.051890427792884,-26.506599405654278,-18.33069881032555,-17.057495917188696,-17.87059406139776,-7.198605625614755,12.150873726158824,28.676338022029825,30.903793548330462,17.79812512343568,5.249911082779214,-0.09222305032198186,-8.79406891590041,-17.61276233150334,-17.502924932702673,-19.98689962762235,-29.79503364240494,-34.2599472396862,-35.73087931600368,-39.019328107098424,-38.51339995045311,-42.937354083946985,-48.64161104834263,-27.048849782915177,32.03366885605848,139.98082952054875,263.82217375384204,236.62718624016807,2.17123198339484,-176.63778664607617,-124.20284784396478,-30.82773974215028,-39.46764551764714,-46.617693271576094,-15.207465926222248,-12.073595778313319,-17.91273180883541,-0.3767358616108627,4.863406105236171,-10.41692600884214,-16.624899600530146,-13.131830934034165,-12.857536095929007,-13.593225165278506,-14.150730032187395,-16.88435517498833,-17.905255031098832,-17.28433194145127,-19.07687640079189,-17.612549619262225,-9.280534129475846,-1.356016991695672,6.448632668063821,19.72269562543955,34.97551696042618,49.75641404389639,64.63779052684347,73.91349203729258,72.36426314673326,59.67967144084954,38.67214893868587,14.451890387217702,-12.382855244785372,-39.55354878818324,-55.19136852403744,-55.91224848246972,-51.40221452800656,-45.55681341809449,-38.00911233193877,-31.080337492799377,-23.982851918769825,-16.300718284594353,-10.5418088355814,-6.876722061680159,-5.110656707672412,-4.248817923466788,-1.533802688043874,1.5544683957146574,2.76301121427632,2.9438319368138224,0.8132544015915109,-2.9004032620869644,-4.162134510385,-4.819921076700316,-7.285583243088203,-8.666833678113333,-8.823671051094372,-8.354695481680576,-5.149360632297039,-1.1097899223095613,1.1743230548631765,1.7267919165431609,-0.6987350328397959,-2.617063156505046,0.3131502548833023,0.0889881521613951,-9.008479053286209,-16.523096038487505,-14.999564548152932,-9.590837510764565,-5.155337787287243,-3.3418613058207622,-4.633671343535568,-5.006440101061384,-1.0227203491602035,3.302069248587453,4.7467319280269065,6.953028256129082,7.059912278075968,-3.763095727149123,-16.89410021027806,-16.1410138499145,-7.263196676463643,-3.4106473237325616,-7.060405545153923,-19.387090511289305,-30.098260802864715,-21.401199299395657,-1.8244287886319999,12.018058079520841,23.541230607948442,26.825876466832433,12.346069105851235,1.1809494632823068,4.723727033787285,0.3495109326560808,-12.30995602191284,-13.667243375367805,-18.40550311360831,-39.20632341094895,-48.38979242235751,-41.894664721138476,-47.22971703904804,-54.81454045030561,-50.784827325061585,-52.18706820538251,-44.972602997727726,-4.248175411024661,72.88360359120882,202.01816533776483,290.6360942778093,153.1079526464971,-109.85918133940906,-177.78109341881202,-66.31513663955619,-28.149938872344848,-56.73174854032973,-34.77648521193218,-11.512929807454054,-22.021283945510397,-18.050071319172766,-6.355495966087702,-6.642857914745143,-1.5005012302584975,4.814525769839035,1.5455170169143555,-1.6676341687385712,-3.396902953036184,-5.892403822559091,-5.531599103869176,-8.124963640674464,-18.604956580959325,-27.535806876552705,-26.46292232654057,-18.2911907154727,-7.414965192548447,5.714218811490149,18.083593674372196,27.016654464111177,38.17837655427838,54.70143187333214,68.02432215631559,68.68020548039425,53.621177681014565,28.096094511872426,3.8972942708901464,-13.339241604117595,-23.060712854754094,-24.495205321321933,-28.41567971733066,-40.3683965241871,-40.02162498824374,-21.172645032232374,-7.484726057298687,-7.099588233624907,-13.745629680919517,-27.923414911240187,-35.65809799162599,-24.440816920647393,-12.243209316020597,-10.046928417146475,-7.219181352286412,-4.678753795047889,-6.002000183679716,-5.241277863766452,-6.966968252914679,-16.06272079966785,-22.389379973207895,-20.067707678157177,-13.667484779518112,-7.161233889170402,-3.7891489182158473,-4.573171839679109,-6.39132928817642,-6.649777677867688,-4.520527510904245,-0.4924132173300837,2.8229527868287327,1.571356815685574,-4.711136865959519,-9.012105284001171,-6.855677570063689,-4.046407222966231,-3.5210156908466885,-2.935985287226279,-4.0836171493991,-5.242154388246718,-2.773875343519231,-1.8069945439202293,-3.2180253674501103,-1.916608803380834,-1.6833433770017017,-3.456760015119656,-1.6037081688763468,-1.6989026585669045,-8.000113126172419,-10.952885494491245,-8.515873404570337,-7.861951842405089,-7.845422865295573,-5.1482027649550055,-2.918748007467771,-4.94965630402714,-10.832492227391832,-14.349525456411937,-11.151573031893651,-7.543197343117556,-8.43067698778821,-8.443884471900239,-5.134468671584372,0.30309633615604326,13.114048656995909,31.10369679782034,35.95071021953517,21.043750757902814,4.317855562283979,-3.3034313720357407,-10.261109400426012,-16.95519178616886,-17.33589932837226,-20.481094686625276,-29.015455102210552,-30.935088631773468,-30.676840966810914,-32.20959573976873,-26.251727652690334,-28.540666319526927,-43.12692488998217,-27.196054637688714,36.74313444690892,143.29097770788735,262.3975626543949,239.25246520649162,-2.205888089696167,-201.82872519914847,-149.87413185241735,-38.97070949753883,-43.918468659960816,-57.01553554467154,-24.15727470975005,-17.482804254371096,-25.03054825748887,-12.802969152559816,-7.013017578805616,-9.241064402296587,-5.107265469107762,-6.077898652340753,-10.546855975761213,-8.287211579454993,-7.305304019437484,-12.065372631031224,-15.913933574731075,-15.730572942269214,-12.991467650043418,-11.672870051858762,-12.467078415965585,-8.406811869356671,2.987595214418741,14.527928155118433,23.9294366084028,36.99682968859564,52.2851163579785,60.75466813821302,61.7571298632249,58.464115585100764,43.367392476016846,13.911796546690589,-13.193459627983076,-27.911006523604563,-40.00973682150107,-50.93677158573028,-50.046869628255564,-41.81662342846015,-37.823442711386264,-33.40341031161508,-23.14021980058962,-15.28316653794284,-14.013760762209827,-13.439780422110818,-9.989493706366858,-4.942894120027713,-2.4896007847193076,-4.92352001740783,-6.627066919801109,-4.376658856414991,-3.7825859641732773,-5.90038803285071,-6.255560805741933,-4.837364230341384,-2.2930464549354834,0.8239256883968515,-0.3146962809720204,-5.9304796697607465,-7.494756343895471,-0.6970571949169013,5.789293140786867,1.1963902982801535,-8.913311459704811,-11.006041921946379,-8.951589775340622,-11.405279900289576,-10.53456407722939,-5.73094394407971,-8.791621607921359,-11.550708273850372,-2.4943394799907743,2.1713550725272324,-7.0170286634476895,-10.26633843558416,-0.07694759048498057,5.005220688965533,0.6385398805233304,2.3629486812392226,5.314623078450694,-9.299096269685348,-27.13612127588452,-21.861849512868957,-5.731757269454617,-1.7395112765737828,-8.423522232345196,-18.43617109429958,-21.63644741248065,-8.011325184992614,9.80318730561989,16.76960400834147,14.306821227240151,1.8745094603827184,-13.223500696872556,-16.8866458821648,-18.24915462926548,-25.533562969765192,-27.884942775206213,-27.997917941113798,-31.936175296140174,-33.51121329420657,-35.501563676130885,-38.90324539449176,-41.332279077567634,-47.658629131688826,-39.646464505685174,8.636712143300258,101.09364400305667,219.19573702618192,250.43454491794614,78.06179289120658,-144.92577564690572,-167.86139431038555,-62.23647101263433,-31.584036271300853,-47.071107368472894,-26.996791551133732,-12.689090083685365,-16.201340502420877,-6.3241333716212065,0.49277283974772956,-6.3560122589507895,-7.367760112849126,-0.9276613392289619,2.9386768346958245,1.002398741195334,-3.038946035119947,-1.8100232493236001,-2.095822750545288,-13.711232928005895,-22.20693737163849,-17.095437453574032,-15.503356092397183,-22.347073758833293,-18.450346632407932,0.3051630643760206,21.629390014971527,38.93797085754258,47.16859677870469,47.452976714810596,51.351110116230174,57.24294209438004,50.88302857463288,28.051822310033415,-6.493901798900417,-39.30961114783231,-53.24467069971446,-51.67207411818875,-47.31586291616518,-38.98598511278082,-29.378527063034703,-26.192151985647644,-23.45702192920522,-18.776213147884437,-19.30847708275129,-21.76136312099267,-21.499216699434427,-20.614937606989173,-15.697251336224134,-7.961271077558461,-8.071169090703833,-13.788542926821513,-12.754169965967202,-6.050923764852744,-3.5808067854440466,-4.771301318590901,-2.0060681783931607,1.9579908829349648,-1.343007475116984,-6.636821260719337,-3.5525843594324407,3.0318043858341017,3.2739541935056824,-1.7017756206209107,-5.705866539618672,-5.474101203638335,-2.058168207819513,0.8949569067787913,1.3356351984930006,-1.1338024901801518,-4.915745466180265,-5.376523368034755,-1.141197597615693,2.7537402640577753,-0.34932633396100066,-11.007461342615258,-17.72167466535963,-12.167037252125144,-5.019523320593645,-4.924265249053148,-6.404441255880672,-8.727325468704677,-11.548141612150173,-7.269325433711911,2.408248972065242,12.694595205843887,23.560776139176244,24.080065166237077,9.422588909997078,-2.517675465043985,-5.684397321843157,-11.223580310465216,-16.610458023119158,-19.633091242213826,-28.42297374580646,-33.92986902787115,-28.389337447915445,-28.866634463334726,-36.51898197075737,-38.4289575,-44.96534316446805,-48.485789610858404,-16.94471090426767,54.56512753622136,170.73646239327468,282.2033399326586,216.61953353104386,-37.506520946478645,-184.24699984587502,-98.50763388723865,-18.574775537765312,-53.24372321815571,-63.68370210319474,-27.807153539543805,-21.002993476319716,-20.875006225878067,-6.606042543533947,-8.001524993880917,-13.478518010163649,-4.773394278902915,1.0880685118563882,-0.4239543788131712,-2.6412742246133893,-8.003146764387097,-11.827808858004282,-10.148422594042643,-9.161954628209159,-10.527441523947454,-13.230408273437277,-16.0910269992751,-11.221351196967424,3.135073238277494,18.711626607592432,33.2201778154149,46.79041479123539,55.54271836735967,62.00005347309618,68.30036320894823,63.15357412766477,37.694156179249106,2.327929468282788,-24.65789922092655,-36.944222568939466,-41.66444126640421,-42.268535339998145,-35.1929966551033,-25.871686997909872,-20.6947660682964,-11.771386989281645,-0.6181519823953678,-4.25396683362608,-17.496528310311863,-20.34274499866409,-17.0580356921435,-17.696278905915616,-15.193990144798246,-10.033801934182485,-10.681643829670104,-11.84650695735911,-9.186346571964862,-8.360954130033193,-7.595326510818744,-3.60437543256168,-1.7219389964931047,-2.3761378935399904,-1.5989841189891525,-0.42163427045981017,2.1974079399949957,7.306024853941402,10.008279892421717,8.61524471258955,3.7069810055260586,-3.1664538390826884,-1.8853251766923922,5.629158310148812,-1.8786716903577645,-20.984326262430997,-24.409549704834347,-14.138872649127121,-10.530527540306053,-11.363773147096946,-9.404463540184949,-9.732217513183912,-11.140010824838576,-7.6593960598443935,-3.5000505417279406,-4.260632139207933,-6.504028451185135,-6.07272695398062,-5.07622349694064,-5.280009330286045,-4.823647016719619,-4.263932570264231,-5.558784653178703,-7.699101039989822,-9.727755740551368,-10.31537107260288,-7.144443428322107,-2.0766153886832144,3.8875465187216305,15.392149100639337,29.90708180786465,33.909641665292376,21.415527918566017,4.020168310035268,-5.9213565895391795,-11.70714763454346,-18.521138250528566,-22.27946042382208,-24.797044960870693,-29.003515920666096,-29.52170986686598,-31.134951018170128,-36.084413129214354,-34.60611914107074,-39.45939528825325,-53.387530839910745,-38.02668827625297,22.77540282598217,132.61496161229599,264.1336498644244,248.15451161924418,5.967742794085588,-186.82657611406864,-126.68080804109098,-23.61394779375628,-38.5577003793898,-48.72769622530346,-14.219413830132147,-11.771986721227577,-18.108319345348352,-4.604748408132713,-3.367719134645405,-6.296004412243663,1.1395167472629018,-1.9508286262675636,-12.346995035585847,-13.17421650562129,-11.606847555384029,-14.516464709916905,-17.048106098048383,-16.328392971112567,-13.514655923258722,-9.393997696971416,-3.5642368045243686,-0.8426601906765951,-2.919369304944362,4.038900421394722,24.999967681255896,44.72745536777308,58.08569012076957,68.3330260988464,67.75847263404322,55.41687500384462,40.40189726700049,20.878320622624464,-8.068096381017012,-38.98266814451469,-58.43465352622742,-59.974154234420524,-50.17772345233138,-38.37060247017376,-29.351182257120183,-29.891623211807328,-36.22560493734517,-30.41542099732029,-15.698106993233782,-13.58645248060865,-20.616801396596834,-20.013416238588693,-14.376611324697976,-10.518296782470674,-6.608192353221298,-3.6332346914227003,-4.132702912401641,-6.433832007475717,-5.986660786699538,0.023121672139433613,5.086558236447017,3.5007977226680556,2.6180423365454466,3.2475281148355286,-4.681126036718327,-14.020003588334701,-11.233289468913298,-5.8692092749835005,-8.867452855460387,-11.660527060616642,-8.446662406566052,-4.1501301062360945,-1.2261493573647186,-0.9378023783875769,-3.49703995148157,-4.690902557182614,-3.656884176585864,-1.7407285843859714,2.661305589051471,5.452998429756404,0.919598599921402,-6.193727411256052,-10.97436399279207,-13.32965484817293,-10.20576715788199,-5.350048124979526,-7.6380419913195094,-10.713032470939993,-5.327645868506705,1.3405782058517985,1.9937670010910296,-0.5731066216504397,-2.239499134638071,-0.09839560373686851,2.961076491255128,2.4757619414689565,3.259089754737018,3.039839117433644,-10.612456836941787,-28.185203127354725,-28.56094388710333,-17.135379091518562,-9.052206342558458,-2.1259487950712685,8.866381731432773,21.030312996645065,27.728747580476455,23.24582713941911,11.986388162310366,2.1167316395573668,-7.0523563195333825,-12.996827099200576,-11.71340674494595,-15.41958477615807,-29.123793828722874,-38.10891874772168,-42.332920509471066,-46.78073763357114,-41.73521480888547,-38.200742126307844,-46.096351671565586,-34.6651012855907,14.587038080305469,110.1322480426235,246.4630466320478,276.3445958223547,69.07796378454327,-163.03505044907143,-153.92521996480843,-35.989003248110095,-27.735769325179362,-57.9502697455547,-36.52607435243102,-26.388367268940087,-36.54158924866455,-21.31528913811691,-3.302379890925735,-4.670759779109645,-5.896385111026865,-4.678324107004448,-7.3449326895797515,-7.1480839881957525,-5.403244816556082,-5.709957083427803,-4.511195565466453,-6.776771342685884,-16.302455262833377,-20.125147027588067,-11.937522195910866,-3.7136201212055115,-0.9301827114839931,2.9514291549386136,11.68433738050362,25.982659000801203,43.67546951160321,57.06753533413104,61.325130146000944,56.99255922960993,43.73396040785393,22.208134434027684,-1.9140625980119554,-22.21023317941504,-37.29386508937878,-47.04834247417941,-47.91363346095652,-41.04964794229127,-32.884897904151494,-23.908906906022196,-15.639917807630336,-14.436186790445513,-14.662235438805752,-5.915477502877863,6.625667780687934,11.15001409467569,3.217971650557679,-10.084042424069487,-13.989722563389707,-7.4615733398149295,-4.2541922509401395,-7.828467856586347,-14.155816002324535,-22.1774040570887,-24.271721192633947,-16.12272324771551,-8.186397861312495,-6.702496377706135,-7.06480392744856,-6.4539659469977835,-4.041188110674428,-0.24767730122672482,2.2364893773013375,3.349709444871948,2.34098929185342,-1.1825681537600978,0.04325523844628698,4.754875711971664,-1.868100804744003,-15.90640949321071,-18.330909263940605,-12.776722074766985,-11.145669861256954,-8.1988599475122,-4.485753487577334,-8.267965726950248,-11.612381927032159,-8.244483905289245,-7.423642503215479,-8.974654568131726,-5.911994862875746,-5.101107467306978,-11.890938191825935,-18.16739463183597,-18.212518078418828,-12.104708857914046,0.060098899126712624,14.2431400508286,24.38251304706091,26.81753090845742,20.122526152263227,9.185096045356055,-0.1073640877619102,-9.764733538965805,-18.563312001580044,-21.642715240054727,-24.497009113361507,-28.906855519963372,-29.387829823727614,-33.07042256522893,-39.566043403137286,-37.6826668562186,-40.693465066577915,-48.40008145322847,-25.75700122749605,32.75379516795101,126.68965016908703,242.50856021783693,236.94933947247787,23.68985267567266,-168.45863389391803,-132.1152796379069,-22.903658127488164,-12.4710425300716,-24.001483295630106,0.6622206487509956,0.4711734670001064,-28.15072943559518,-39.160885541107845,-32.05898466795669,-23.989934200792167,-18.430754432771607,-18.210095132376185,-22.42053424844426,-21.60854773035161,-13.435676488026465,-10.04142900378616,-16.667453015865295,-21.112321843502666,-16.979553574348433,-12.02838552288035,-8.54729583008658,-1.351694500487725,7.213794352751009,11.969408384657548,18.368909439817287,32.27431131862207,47.891724034440685,60.128109025114185,68.63617585944995,67.73797480625801,53.223592833744306,27.649568845584582,-3.6662304648810506,-28.765766108822515,-41.354025445894266,-50.84957272902746,-56.881014848782115,-49.63418538582213,-38.43770716333442,-33.734513509761044,-27.853914343277005,-19.434674377158046,-14.286299085026656,-9.561940360649636,-5.762273158649197,-6.37592253465937,-6.833795279623352,-5.708643435866119,-5.444611235169191,-3.609951345409261,-1.6335098569137418,-2.9906473617561176,-4.205221753849749,-4.202903424578103,-4.497559162534191,-1.7177246232531198,1.9248359108968494,-0.24954311109016203,-3.555661066066336,-0.9570662048194203,2.611610625995242,1.9970528993185725,0.9857869233129808,1.5634314552507504,0.5539750808157446,-0.3901095952027518,2.078696397237405,1.7336121843556054,-6.249751898310893,-12.64000931303271,-11.389345270547855,-9.531120167118615,-8.841807569869456,-4.251452332513965,0.509946126847324,-0.4497571754237599,-2.575977563718263,0.07576731242251089,4.578195164408327,6.89237343301851,8.429287337776247,5.9975169551401475,-6.722674693683839,-19.169037298086725,-15.993348287268066,-7.05837235734639,-6.652529949747109,-7.185069793656094,-6.254662594378347,-13.930685498339571,-21.70376676216835,-16.543306729756534,-9.939004052566723,-11.422918737891228,-7.404246415080975,10.801584690074037,30.95499829900328,36.95652493509492,25.070215880200212,7.085860700473564,-4.491562893834825,-11.387087545172857,-16.241529076528863,-16.44238426571024,-19.565725329461156,-29.38395390997349,-35.010162351853424,-36.88419301289228,-38.090135505959736,-33.45595920271707,-37.991165838567966,-51.507801284357,-33.95836173471567,26.510386404367395,130.48949547815596,260.1454054149453,256.785757314247,26.814245703025094,-175.36919451931303,-131.45535141835887,-27.32475711873875,-35.79913423016997,-50.464509819487176,-21.072971762628953,-18.178372920030757,-23.766215735004728,-5.054694684438375,3.0380941281102363,-4.308394100573178,-3.613404615014998,-0.3798450724177602,-4.227197675912281,-11.27106903985557,-16.052482205542788,-17.943089292476884,-21.311464362443232,-23.882879970759657,-19.44753862720665,-12.019659550123228,-7.0901321986624035,-2.968200078290738,2.8685907885074977,11.75971155785819,24.067722593155054,38.407092577724484,50.26440106556247,55.07689094779106,57.03701865419237,58.35386791411603,49.21005350068658,28.742849764876787,5.878221708824288,-17.240391903724166,-32.631136878377134,-35.43528003961804,-39.92358453892295,-43.9905339298668,-35.11546353028349,-32.6617623650496,-44.393513134209726,-40.70747713660562,-20.308475005943453,-9.917311211227506,-10.691233087944553,-13.149497286516471,-14.767423165358167,-10.190321707217365,-3.4412420369281804,-2.1496450914349428,-2.182196269775014,-3.4433786814014518,-8.173133183736429,-8.393547179668193,-3.0711638350971455,-0.3228051785185091,-1.0442632562942613,-3.3522138113140265,-6.013948115016401,-4.856154611413346,-0.2128938966412024,2.766838526818841,1.8068090096947298,-2.2615780753927837,-6.166796286427919,-6.22356474694809,-2.6417588671851266,0.8339590716497991,-0.4925700900730572,-6.251111011432796,-8.754661312605243,-4.862567178081826,-0.2123204714287512,1.6165774022897832,0.8546099597599479,-1.6735840734770075,-3.8268559335957564,-6.147419680532314,-9.223936701707341,-8.566772485368125,-5.525859534856,-7.015776962076455,-8.888642486567692,-4.9445002231775215,-1.5348293767225272,-2.4678421739556367,-3.2354441495334783,-4.687134067490653,-7.704051523049582,-6.624539431005557,-2.230533987659947,-2.125124247793364,-6.773631264290195,-9.927651648919062,-8.542724081602284,-5.358865596349646,-3.725933072859142,-3.6005560404482875,-3.607952918546168,-1.2969841202271803,7.17504595922796,20.4146085078571,30.425486330932173,30.65509799008132,21.186019448519247,9.2261358736935,2.5143441153590684,0.5432090357824535,-4.211206901053144,-21.14622626681974,-47.41868957867324,-59.6706214431632,-51.46400902741565,-47.48256921744352,-50.617584638920206,-48.54139288748777,-53.57663448703188,-55.709490305425135,-24.061643337062833,42.5895998052889,157.82928221731595,275.7739977004116,210.61272684818886,-46.499968349363435,-186.96667115936415,-95.86031972497962,-15.474889803982773,-38.852620273241484,-36.893042346780604,-9.233357520545983,-17.182012858160963,-19.038677064043895,-3.632796607043705,-7.645482824638254,-13.111893927282344,-5.739933864088243,-6.465372952496367,-10.057586715166789,-6.353601515146032,-7.294550086385566,-14.267408534403021,-21.145929441840728,-27.3512688656491,-27.64432522430373,-22.474917763472497,-18.34373212162609,-11.701885119216485,-0.5540488403277694,10.936653427721213,24.672657195346932,38.88821722678498,48.4211117506259,57.91859392161015,65.77518195182945,60.31646801219864,43.41363013798267,22.9804846885336,-2.428635543955993,-28.00148919616386,-41.46679031214793,-42.9521649729508,-41.49798247015469,-38.73084294500375,-31.825145457408148,-23.40814163045582,-15.666713301117245,-7.244851953686892,-5.577422356473502,-15.347694086557656,-18.5878609807691,-6.64939512602823,-0.5300765685480862,-5.939866760076438,-6.998955277004416,-6.334369599169536,-9.133016889202096,-4.587494172335793,3.162388096674622,1.3299059836264213,-4.24120766788036,-8.604784177259983,-15.066735933502116,-17.092270377565086,-11.162663313299904,-6.371601136397162,-6.367141786546702,-7.651458805754384,-8.078694732174773,-5.365164783231624,-1.4891505306489154,-2.0701148282749546,-4.823591769407791,-4.763647008559545,-4.705717753476916,-5.948626359483725,-4.557248032154341,-2.63590559339654,-4.326233225779225,-6.299080853385954,-5.976918289974332,-5.326144580803616,-3.616089582611698,-0.4452311861872964,0.5969845813800916,-2.166368665747303,-6.798667001777719,-10.082007695069889,-9.590135372016148,-7.40230010607069,-7.640735176171566,-9.733066459421671,-9.585859891770895,-6.572537385959956,-5.304393195951038,-7.523481079928425,-7.985240605783289,-5.604645005075788,-6.4170072857681735,-9.76848180825784,-9.572148226605858,-7.231737976811711,-6.180612022221435,-2.6843818705589118,8.147726947758377,23.773315476695434,31.427276267762974,20.563346999416133,3.104843300926863,-2.570454656574853,-3.6025796309686466,-12.310303584108071,-19.683114526060965,-21.931296752401945,-29.32227435517674,-39.27225586424099,-41.87440076454537,-38.09108767012583,-39.26050454883689,-53.42676660366646,-58.90306408361722,-28.328471171086633,35.68302219379703,142.94505951629446,259.59213271298836,221.07544001571344,-12.51894187709999,-177.84139710244685,-119.15865374800842,-24.985017650599016,-29.555202014523942,-44.893642264954146,-31.391944847968738,-29.528257837975158,-26.699477223756965,-9.461477762267847,-3.2394153920176976,-14.631740549746834,-25.229424301455865,-22.764703863375296,-15.255043134898337,-15.682575383243773,-18.42709999311225,-17.32658810623887,-18.628476493092634,-19.454057104677474,-16.06877096652785,-15.794652036272392,-15.920320435906465,-8.74556205295942,-0.5347604955302163,5.048347932159566,16.97561079557237,36.14519899032214,49.40798028801912,52.088345194233035,54.99643135824746,59.72654543989582,52.874765116779116,30.237041810131316,-0.2559964632634131,-29.675019876697235,-46.87274105423073,-48.19902597355995,-44.31070535155769,-42.48702026135668,-39.878473573892606,-33.66850632674462,-25.21196713652536,-18.826055715379542,-14.11829733738452,-7.54211277131818,-5.256239069557754,-9.13983276347603,-6.2592673996329395,2.3857317217659393,3.8628915505754016,4.107979253057362,7.924537420129583,2.5106610298597296,-8.66276302128161,-9.257679615625978,-5.309487599429705,-8.860522698834803,-13.590724201440688,-13.435848158664928,-11.898487804486583,-7.891189801206023,0.2243873223510242,3.823980675778577,-2.1711524096738266,-7.335185561958735,-4.20951660097194,-0.1476584305056079,-0.1978210773686957,-2.236392158504353,-6.352002232868662,-9.10894412695065,-6.048837307868624,-2.1370880906242053,-0.2608503583061328,1.83576716533132,0.33823002795393187,-4.079912299765388,-3.1747957321239753,2.542616859239602,6.312812773211286,0.20444582819820845,-19.893266802652306,-35.44540165701173,-27.260211818198908,-10.539770011932603,1.5356934545202154,20.282823513328893,34.30355328259625,20.87609895072387,1.1284961957833266,0.8826997983708402,0.6544262822419533,-14.053968287880963,-24.062003245616292,-24.361806867485924,-26.28879065415176,-27.75682906180759,-29.82343277351434,-35.59586088010592,-37.320592314,-41.91589819833113,-49.63390053601014,-30.71626058050867,23.729667782300083,117.27497378795525,237.34302610909,238.6551498366867,25.74187418328963,-173.32093228946061,-142.18145762304496,-38.28973112434259,-33.27930627058212,-42.131137388239836,-11.735287414987347,-3.0680500719899904,-7.384694720792039,5.837901467331716,13.255689942411383,8.221962853065904,1.7725399188526527,-8.131965182667935,-15.368465284064161,-16.068906616330153,-19.63498997580949,-26.040445499119723,-28.05542352537087,-26.22983424932003,-24.758055580335228,-24.837906410465145,-22.55298329694416,-13.291586368065637,0.15505732322191268,12.024887169730302,23.10377850187827,36.40088941337139,49.82337354515519,60.58407770876166,67.15745998610505,64.0475665669759,47.33551387315331,21.615519867089475,-6.310383549968277,-29.19629546651042,-40.01871950146527,-42.68653185950993,-44.658776572867,-41.63230124802179,-32.18508680039723,-25.10938861656019,-18.907064910511696,-8.024086687582974,-1.0197411069485156,-2.5058218061633006,-3.5435032935969204,-0.5355135798617408,3.1409553829006,2.7735206137707955,-7.27513789315552,-19.233664252687404,-17.95141898821347,-9.134111355227562,-7.8434710295417,-11.449588966819213,-11.300052213671204,-8.263203007833766,-5.885758550682953,-4.269303730498798,-1.6917907251468218,0.4946661069634821,-0.9673855438083034,-2.9650525095645,-1.2436651424956446,0.47822641059611115,-0.7863346905839865,-2.253557184568411,-2.8116376435248718,-2.890781733200617,-1.996148514798434,-0.45330001331068726,1.6542484592614137,3.370839198591617,3.821564650549379,6.720892156762071,10.264270635276317,2.057695780180806,-16.290036228012486,-24.183958582712336,-17.472012808981226,-13.098454658596467,-14.668592357647004,-12.401946503403794,-8.07958966133812,-8.012450347906583,-8.952192912172102,-8.244602423331939,-8.610578133701301,-10.627324296582259,-13.107729828795224,-13.893135582614796,-9.946843381370654,-3.0424696066569865,5.6878094156073855,20.594274450455494,34.3991197373373,