ECG,1.7643128155978935,30.55946453125183,30.389188614696337,5.718318044093831,-13.941938286441015,-23.33717261175334,-40.65241789218037,-54.780910340346935,-43.555620706953086,-24.76560274232045,-18.30459642262243,-12.231146637984622,-8.184757117322274,-18.699938755115525,-25.503324787433776,-16.444050174484243,-7.16867752388865,4.110320444692377,19.435295656793016,16.220447807109913,3.429083664740218,9.383508844504618,12.890624006776832,-6.800517229568037,-19.423226490732006,-13.094133610481645,-13.277717703246084,-21.747287950414023,-21.766498118479923,-15.421852036100107,-12.528522407062816,-11.388895989368772,-3.8512687635891716,6.153661131091079,3.0460105525595083,-9.975939041794064,-12.794694554628602,-6.543558380555218,-6.685408273895048,-10.450509857982993,-8.138580904351329,-3.434397943685328,-3.291072287737789,-7.413853034504447,-12.174991033643888,-16.175044626484073,-18.93367206521491,-13.512104337030468,4.742135422159406,20.19705302649659,18.29706719175127,12.54431497067076,11.181565825619586,-0.7732566245487931,-18.86089396977506,-26.20354961586949,-29.69938568470338,-29.502819218917306,-17.27625577694041,-12.243175326829373,-21.759250768220017,-28.013404578036585,-33.157960061996455,-32.42981459397991,-8.824439110038075,35.2682090676871,115.4633235819308,190.54185620248128,111.33970726079335,-92.18777655556318,-158.9847003514743,-52.231240823698556,5.835612427836801,-23.828139114972885,-22.55651913312845,0.07608102192859079,-4.463384176579108,-7.706856102111679,0.6179066958544022,2.0292686443313954,0.9905966341760157,0.856004548149274,-5.9769574309685645,-16.63732049924364,-20.525193925525357,-15.230391219653317,-11.406714091327393,-17.45602638405724,-27.79791235745489,-31.603640127065823,-21.11828026906786,0.28624393531905135,16.93830441205187,23.039822871994105,28.377879698483802,35.48181094902032,39.90407565336025,45.07850912161581,49.43819722030002,37.60387694409528,7.843197418800909,-16.703019831683733,-25.024830149468507,-32.009919771481194,-39.95914813070694,-35.055084428885586,-25.335258038995097,-26.52884883745377,-27.57677010158051,-18.005817141983478,-10.925553414375798,-11.225399810673384,-8.45839159072343,-3.5745561768149763,-2.722504064904559,-1.965582753600616,-0.005782433597371295,-2.6171596451281616,-9.379300714618449,-12.432301906400824,-8.08018194546373,-2.9902005532590277,-3.6614397325691304,-6.0575351478775,-6.905121083857772,-9.092080967465456,-9.22320450765257,-3.9834689928796827,-0.9306329936472277,-4.020911825968167,-7.619102347885569,-7.840257653108846,-4.3804155424364986,-1.4818352076437833,-6.375757697827252,-14.766707185894603,-13.601600229507094,-3.3280043579815075,3.33512381279232,2.3356643790888416,-2.3515437476385905,-12.83767761665712,-27.768323746253845,-31.074324877758578,-17.26469650734383,-5.858988453235522,-4.53006335080676,5.881359011484948,28.27884664035281,37.23307753554725,24.034653544233098,8.44639837600612,3.233168996871659,2.2954450640707575,-5.5920162146707675,-22.306432688430956,-29.976664896287055,-21.155774784969605,-23.245714383879164,-43.78544347633806,-54.658916093150154,-51.44334812626569,-38.17496250548365,-7.318048599405291,28.211800741442918,82.64401614097247,158.4686092149273,129.6857701518991,-43.075595524332485,-140.3333618640222,-63.23081479644825,-0.970998309255485,-26.24927254211324,-26.00176208923539,0.4099614427080276,-5.769511128803831,-14.22386659504061,-8.068386742868121,-10.772533762320677,-13.815127210180407,-7.744024358536514,-5.818588525143586,-12.834181966790645,-21.732847971255325,-24.036109393497913,-21.15721147737727,-22.299336122106688,-22.787606406731623,-15.070791173591514,-6.760705546927662,-0.6495475512460298,9.040934082326824,20.97946260878151,34.384427092477594,48.29253167331216,53.13191938137283,50.57409102717569,54.46975440507583,56.81892141534908,37.048344342543274,3.7492285221734902,-19.636402638259447,-31.25897992738975,-37.89779007333741,-40.706725767437256,-44.81641954057308,-47.978563534836375,-39.05956846287309,-23.273863128104534,-14.699196901087106,-16.055366870292122,-22.37002068999059,-19.70397908779342,-1.6076862663858336,8.43706997599211,-0.6936736911434895,-0.9961152857430537,15.24455249919878,18.561176737483287,0.6800484937708369,-16.568098491726218,-19.983257148144112,-13.493681346506328,-5.394932645179525,-1.885211429886521,-4.651989079038579,-7.445557506960716,0.12166015703136246,12.77897951505655,9.249505776743362,-11.462763437779552,-24.46428380109931,-20.355126730762844,-13.40282430640584,-10.061707875471376,-6.756741076645131,-9.817136348455648,-23.87144950230576,-29.320728296366845,-8.924306944063996,10.628314577165531,-4.112287498569948,-29.677479185337727,-28.21554625911002,-13.937814158417272,-3.7411126853888836,19.165741362441125,40.06640534103361,26.318446038114054,4.937274930332762,4.511189733417155,-4.647782500854703,-26.191246013112668,-25.63483733223785,-13.18823212267632,-11.89389009188579,-13.209001775220298,-18.248245965960574,-27.80894503900972,-31.236485154519798,-35.526974912452,-31.475235034639525,-6.756092466944153,20.332979521535872,83.67268639740988,184.12043213769505,150.68602377055853,-50.37833062746244,-149.34081227929596,-58.68684356341247,-4.608784098233965,-44.033986698994475,-44.267112308783155,-14.085760367717977,-14.169624876204352,-13.947645394515938,-5.470593660321297,-9.480697999151717,-12.210044041097934,-8.338925684099447,-3.9747026557449985,5.445331043552143,10.54681128150342,2.7590441792639595,-5.604733053814433,-10.268276994339782,-20.02516099134528,-31.780105552800876,-30.755315672466175,-13.467135830441457,5.41298784545318,16.366423007059694,23.447512579085544,30.320410298362784,44.775233039763414,66.34589775039892,68.34992581550954,44.93408336479166,23.347170878009308,0.6423225810869972,-33.73703123633053,-50.34877237269538,-45.00855238436398,-48.17742006353762,-49.58295333430331,-35.149752186170346,-31.95048955490656,-39.714127707211816,-30.05157157467772,-12.680925489415806,-7.687504063719398,-8.95541124038142,-10.769997260915206,-9.742611069532662,0.0029689136808705996,8.05948364862823,3.4408867172365554,-4.507934298408291,-6.040854636260708,-4.002060219956762,-3.6181822576337765,-4.848447091366101,-1.5183771011926837,6.077739466831328,4.7776473886670825,-6.774947897315094,-9.856866480594162,-0.4407715393535083,2.85003034868741,-2.558587770017943,-1.0212789786214787,3.085368085429825,-2.8567732437282327,-7.102230266796976,-4.961415544175784,-15.773071857133319,-31.989851939403113,-25.489823957175577,-9.27711033553866,-9.920119373178203,-9.43692457160931,12.422893271181568,30.38082439902661,22.49610568341989,8.96891351024302,6.089100720325275,1.2398475744090005,-8.643530587108835,-12.3401028957306,-9.539926931219412,-3.830563928351612,-5.230421096021704,-25.97662165776481,-44.31730091188858,-39.016597200699266,-31.485044112646833,-26.669261828061167,-10.605010383242828,15.440253453391389,84.12493454299683,170.6285371055986,116.05099216184769,-74.10952637725391,-146.38016141233174,-47.97926015845981,12.230477982790529,-13.79108646890568,-20.543005634188127,-8.29747134358415,-10.340374139265627,-11.558386123000364,-18.764865699323668,-28.802065355808505,-18.961505078530177,-9.698384415078982,-15.048599333975162,-9.651238874081393,0.6859614178715141,-7.511588452768548,-18.250854307330727,-16.368611610601093,-16.353668531182436,-21.45398767516355,-19.57292968545825,-10.933702833524066,-0.03903126098600951,15.471039817965046,32.092848798398585,41.79985136881453,47.612925198136764,54.38810231642952,52.6301066942763,36.555498860722935,18.052911861801746,1.9532065593675183,-17.16714396730461,-32.57583064542261,-41.23119709628419,-50.1524188210049,-47.37339890220068,-27.45166454943494,-18.18864505609002,-23.61312333093577,-17.27884419264067,-7.886033106600362,-14.8384013706125,-19.18601144085128,-9.151326210298166,-0.9416930198280831,1.0593611423881448,-0.6080878798590668,-10.306092237026961,-17.875451206563095,-7.492968061189276,13.593369301391405,24.57011980167456,16.629838679546577,-0.6813037238290374,-12.12146100710886,-12.930850441947651,-7.876623186965127,-2.6136213333844296,-5.216139153698478,-17.19035166975285,-20.746221191457078,-5.182460680309678,8.867667769831133,6.445887804281618,1.6474975063962791,-2.296814931111008,-16.997844864388274,-28.230679502651746,-17.8445842918063,-3.1820556080906854,0.3544532925287678,8.370163172185338,24.83812318233392,30.87739149295184,28.108260739410746,28.053950864450016,12.679971901963729,-24.204158750516896,-42.86299213495016,-29.12696643720334,-19.30570151038741,-25.1985697414074,-30.19057250934227,-33.048553815726635,-32.489556438516324,-28.37841551473852,-26.559287615456324,-13.709434518814998,13.281819768778668,53.212844159158415,128.924558686056,170.25365492071802,55.81743306586417,-108.49314624548884,-116.55194749894105,-31.99465055530993,-18.484532489861422,-36.97336619265995,-18.091242148220182,-5.499229165948371,-14.228189420535264,-13.135032236737556,-6.449315323659299,-6.251544533036526,-6.682680066711304,-5.068297014927454,-5.593107233662288,-10.344493887826937,-11.78919749629602,-5.543558744333456,-4.095960305454304,-12.401115245431658,-15.398903716221401,-6.898685928661616,0.6038772144772298,1.9892181572846166,10.491095375903798,28.978504930294683,35.79297771696844,26.967016188816913,31.04566884670579,50.56246275163117,48.98338578922738,18.64500555014351,-6.052406439586495,-14.524273103445864,-28.069596813888126,-40.79914518254668,-33.55598901600899,-27.70032545554072,-37.311290023606645,-31.883428491936243,-13.444409166108137,-15.334141285800506,-19.968462745826848,-7.085220393874069,-5.622552374987823,-16.845354306229112,-12.587122990126725,-3.8991203502745666,-7.275577114509449,-12.979905527422734,-15.116725039107346,-7.847299449252253,6.229759548956156,3.684707763730872,-9.12904973395293,-4.432358727919488,2.0331557004828413,-6.5584340729373585,-2.5816941918918856,17.388251950948316,19.266626195819946,3.1136615427414727,-4.152442051662079,1.5906136989599045,11.101218413277183,17.840100362817644,13.08214847094249,-5.0678190778326115,-23.272811749752655,-26.901734995268633,-20.841862120652678,-22.349116224988528,-29.57975851573915,-27.13642502565655,-17.952387422452077,-13.29720117546003,-12.384347760348444,-8.242923202803347,8.15898017999528,31.29942310391217,35.186975163797854,17.665260723052477,2.912453598422892,-5.882261555472766,-11.334704789475733,-7.716519969627116,-12.247543285637262,-29.281939592653053,-26.907707058812157,-8.115505616947818,-7.705306675573517,-26.772635410009986,-46.85467124691033,-48.41171542095352,-18.658998550252885,32.05187739245009,108.53570082512813,176.958052440014,107.64662625187415,-78.37601873879981,-140.33699925490993,-43.88436518367253,-6.751234398750903,-50.59151912093374,-41.39810640335951,-8.41479037791511,-13.991064341773097,-12.160627148171885,5.036394076201571,-0.25520143078819757,-14.857357109507213,-11.812044572489459,5.892297655314194,16.117647126275564,2.5336647528198366,-17.48818768047477,-23.517186994029153,-24.70755956398749,-27.982634552623118,-29.1698920906946,-25.426101876350028,-9.03067696564232,11.816609217483808,18.41742794881631,24.009194264961362,43.62322658575535,58.44244389250612,58.616399972560146,53.74555612779953,41.98822557838617,21.4482636805405,0.03997457115697278,-17.886147517217033,-30.43531202196572,-35.41887919717352,-31.14222830363191,-21.8978043369324,-22.82439983035669,-34.60487783784997,-35.41077814094368,-18.893395582090516,-2.4387348695128317,-3.962179725843505,-25.646983739023625,-41.019740327278285,-29.3213375818487,-13.80412501400189,-12.706794333355148,-11.094632916724695,-5.754399827856922,-1.7332850662079444,5.4670699144641475,7.346644493245746,-0.5837186997701984,-3.45986104730307,0.9711258236442895,5.5954455836115295,8.059685882877595,-0.38937152693947574,-14.741015337068077,-15.415364408360647,-10.703313585505743,-17.232883157088608,-19.144940647179915,-6.233239182782594,-1.183662843047376,-11.47181399710377,-13.571007900450763,-3.3961602172004,-3.7592407331892996,-15.2188058972007,-18.66914612327922,-17.356115537014233,-20.866473941997228,-18.03805516113554,-2.5945605728764196,15.38293503975347,26.697873162699615,23.845687379882197,9.288113139758597,0.7324794249034934,3.677408840939571,2.865907599919659,-14.203378517548444,-36.13867317384833,-31.02361511546673,-2.5184245318613723,-0.5031344643275268,-25.441181275003775,-34.22314236352076,-35.93060515077529,-38.86093847076101,-12.132484951499618,37.212600766649864,102.47235134091841,167.51204236161328,114.64521256508269,-60.97526620637843,-136.21096379417324,-52.436634206981935,-3.077019482682898,-31.635453454099014,-31.504431281107273,-8.38746478924148,0.708930786104915,15.172777064202727,19.899051027228232,-3.591569639293823,-26.915244069386002,-31.28128075624539,-19.014931605646126,-1.4431376621526724,-5.067247032763298,-29.554048793475026,-38.43089955506371,-25.152988794031653,-17.626475196756843,-19.447639963751584,-16.97418510045936,-12.628587844422775,-3.4224773421742247,18.42242771679938,37.37483795119024,43.00817495318331,44.10123869723257,37.39419837840081,27.92306652381985,34.42228813615994,37.28692715228473,9.559235854651842,-26.306154103011085,-45.65423410566725,-51.72455581169544,-45.82561681879368,-35.31077433379611,-32.52359295490085,-30.709179177090924,-25.744129392065208,-24.4446653617779,-19.533487159334246,-7.241307244407892,-2.2961104070982223,-6.230806378756018,-6.0755623164022445,-3.14880541195307,-3.470945083010971,-3.386058691880443,-6.9435595937130365,-18.479822716008258,-18.559279330700555,2.7373617999021036,17.055377731548553,10.458093619654504,6.3315299667789,6.868558548937511,-9.505228399610461,-29.45885629660561,-19.599965547480398,12.56413533479195,26.351790900010556,8.53293028392542,-10.106524264936908,-13.121672679315658,-26.70464018260254,-49.136072625432426,-35.14626946671359,6.1633066236432965,19.500624985293086,10.103537116339593,9.398917427291304,3.5244831124967284,-7.500706155476822,0.7521281940802158,8.39942568749221,-8.729164918682727,-23.17930410355218,-17.43943486951354,-16.860547920984992,-29.678101720797837,-35.02687297119829,-30.878814453471392,-22.647547952234163,1.9852594938702381,34.895341733796215,69.43336146098436,130.42856834776887,155.04160781821346,35.71708000459478,-120.4063895300379,-122.6547078909945,-39.81459846059476,-24.896262607966904,-35.264338889864064,-9.686967434274376,1.3418327634492755,-20.320174078564797,-39.046702674233224,-41.57158234778173,-31.051018385900235,-17.356083905781738,-11.510994070424236,-12.666388077234686,-17.837175943939243,-20.869718521617425,-16.472909418564733,-11.89862513937738,-7.712508063570258,-0.3120664816610219,0.057562948084715515,-4.268246246456353,1.4429775913461311,10.563773732439266,15.280899690465624,24.590899476360384,38.07702504451514,47.69038365524783,50.02529188087077,40.64567336427673,25.203957652577472,11.580375974447987,-10.723060479976361,-38.63828648583369,-45.537212785636825,-32.80643747079498,-24.850080590068824,-22.663020257400348,-20.070323064204718,-23.43326204108479,-27.951084074053163,-22.06556939471883,-12.149663053997013,-10.478217223271688,-15.022660422264778,-16.26137973827831,-11.671144393805815,-6.883961671979561,-6.343397519048985,-8.309982317449489,-8.828986005366312,-5.2766654062485525,0.7049227118484964,0.8998493160529168,-7.957933580362701,-12.311177037310284,-1.1996857267625725,11.774314976490658,10.164201410800178,0.46018355108127906,-2.3654987936502003,5.358811259484625,14.378822172132526,13.15389687662052,8.455151460944283,13.748448073927243,12.171339942562348,-16.542233703672256,-46.00760592266929,-44.0430583282111,-27.538010429630916,-23.133029619734828,-20.20351252637542,-2.057858703579516,14.35880272106592,4.471750606993259,-17.28480589667155,-16.494883234675086,2.423149614579134,6.578453260992416,-5.962561094681083,-16.857041352750446,-27.515557692675557,-32.43425345444148,-20.734900937585905,-22.11126517052037,-45.38508607164251,-37.760871015938676,4.41349888673823,49.80095569293401,119.4775333753728,152.42494356355195,36.39342528254199,-106.72555772383687,-90.09339276270777,-11.661199494948022,-11.155543325599105,-21.820824171644553,-4.342925422777682,-6.21870756369448,-8.21088272639262,0.1445169155695094,-14.647749677087852,-30.530611864300603,-24.048722823028143,-20.31863724164908,-21.535958480457502,-12.724978145084219,-2.9486615673977195,-2.5967815170322126,-12.356962363236958,-27.907817049955696,-35.67092284191509,-23.33064406223344,3.578346668144377,23.4189822677566,28.509797448020876,33.167141399822455,37.56939244130433,37.867819789695915,51.47599390121789,69.09343580497982,57.11084773715152,26.84458460752429,3.573708515994552,-19.933564443714445,-38.23141831558376,-37.051630154245416,-31.885296251552735,-29.778231841242686,-17.821233235647828,-4.216615205576858,-2.1564347149257657,-2.4376880506383642,0.0641936747357974,-10.281636784839726,-37.65826187786723,-50.57204540296398,-30.666004934952554,-13.650267040001413,-19.661061015676324,-18.413327376503076,-7.792233845544885,-8.847460344407061,-3.8443745291942157,11.834082442110628,9.401180311843715,-3.289958417527485,-4.116821179269076,-1.6843778669641996,1.3105013027834609,2.7997338267346414,-11.901840228161813,-23.05546546812512,-6.021902941799429,9.691489870759732,-0.33436519801441555,-12.552801327318349,-11.57677037768001,-6.818130433142194,-5.529749547221396,-10.707111311262548,-13.442530274423302,-0.018458130941810147,19.236588909599043,28.861301347405394,30.116146588353814,17.40055129902854,-8.841818402085327,-23.760668401754188,-24.763179305038904,-28.96443497752391,-26.273285775206304,-19.108735602506602,-29.117381708948557,-32.51166244615227,-16.55555504805365,-20.789141999897293,-31.573400400340944,-4.918082095169076,48.05265465357358,125.22862780328848,180.5539208751777,84.19658758269782,-101.60831631419563,-139.37858360634004,-41.913621518460204,-3.1818893650411297,-22.19356070799077,-15.135574817218892,-4.57988413351044,-4.3424301333921935,-0.769248380572761,-5.6629056246608425,-6.989565493709991,0.9989481506108193,-4.981787478375981,-8.97365751411657,3.40893844383711,-2.870972536049697,-28.84955990431056,-36.5695356624234,-30.480739510701348,-31.575712093195335,-25.837150213218028,-3.491277597033841,14.144050494416845,15.787155253231141,19.353030513363127,36.8882210609289,58.21948787305625,72.97509013900071,74.97986297284513,55.83829225540487,21.92175825391947,-5.551186029126033,-20.756481683449508,-35.50249858282017,-51.08268333507887,-55.996259277920686,-49.78659313213546,-43.34857128024649,-38.43317322183868,-31.99141566807463,-28.049781945585124,-23.681870278547535,-11.637870951806306,-2.9783442631898858,-7.183532552455347,-7.564112716382006,4.036924911340549,5.332384307032065,-12.41394091204257,-22.510733925053113,-10.242950493848543,1.3432148658308236,-2.6641722494166515,-5.894514797603094,-3.300692818700302,-6.400103387630303,-6.588853131275474,1.4422799581178225,-1.991211651649909,-13.193042265951046,-8.637332372423302,0.5559192782952742,-3.239566522551936,-7.657940358160687,-6.670560748400186,-6.991426391885172,-7.365552697506395,-12.247441773556206,-21.85936320939903,-20.802930893167066,-10.487749200705789,-1.6229121928572194,13.535070526615186,30.762333323296275,27.632003880981593,7.821214912246859,-3.9578567668039906,-3.1711699201227592,-3.412182775235655,-7.380809983059533,-12.697724071075417,-30.155974334049514,-53.13447867461362,-53.619837551144016,-40.72317895714103,-36.6757239345861,-22.824221115327006,12.669445769543639,71.32712727268323,148.47101925423289,142.76661169995918,-12.167456691539126,-141.2759895278589,-95.51603918372479,-14.245535014997628,-21.133460364246595,-31.528267464451332,-1.8107067462391768,11.3707962777817,6.696558618409899,8.287564959220393,5.895512384322545,1.6689826477160032,5.451175878732754,5.3636273801926615,-9.150993672149673,-29.68940985052165,-40.34261744163031,-37.90876920333289,-31.721283462834748,-21.616382665051223,-8.171133215951862,-7.128308706471234,-15.385874620406398,-9.870917186541595,6.943971063315113,21.16418676185906,39.27504303186703,59.15718449965388,64.17014686450372,57.371185645120775,47.533983675180046,28.23195670663634,3.1958611799585928,-13.183956182533205,-22.099833281329197,-30.22518944028374,-36.8502792874379,-42.38737161252652,-44.296570493331416,-38.85501537258385,-30.921145312359073,-22.012624231831047,-12.629555302642792,-13.525670458058286,-20.09084383703844,-13.669280777875827,-2.5404793822284937,-2.881972435880243,-3.47526219368752,2.3952165359157735,3.4254623184114337,2.661719658414654,7.1363135883714754,6.624923943922414,-0.2165516284518354,-2.3782611213434173,-8.128461809508352,-24.689900996579894,-27.26232244419905,-7.969393838840432,-2.83435771326587,-20.516879330962105,-26.902382369459314,-18.198814603107394,-14.407260621921345,-8.000107262619927,5.759608130039343,11.205193421206118,12.30565673190293,18.6125100617034,14.496319046939586,-4.388970673078926,-15.71146576472242,-14.76831810670683,-17.60997285644428,-23.239161554279587,-22.598218638094117,-22.630484380176075,-26.6175456793289,-27.806555824657686,-28.63484652611882,-26.936593006673892,-7.348931007588654,44.235719539346235,131.5510355583725,189.59181866314097,103.10584444413678,-76.93191916721622,-135.61063093622113,-49.10869297086977,-5.168517765036693,-39.33373590753168,-43.04965685086629,-21.925658882558242,-23.469783113357764,-17.90511407493716,-2.892113616027043,-7.024506874802871,-9.769567534246175,-1.894392180663031,-7.0448181880104634,-12.093366634365584,-2.0885322845042147,-2.768171475420326,-15.221520500972865,-13.540809849637055,-8.959254064769528,-15.626635248378564,-9.96277891671415,11.94155363890252,22.99831612813695,24.204470465805475,32.995670724782386,44.21260599046684,52.57792430287108,60.80301841225373,58.30798131317992,38.031064810968054,10.477728381407312,-15.03422393880018,-31.55227850583556,-34.286129520674145,-36.28775288365763,-48.886126847500236,-55.79070662982089,-42.583926375914416,-23.24101871313077,-13.826265226470488,-11.178487567274548,-6.630258276140765,-0.7651085202030021,-0.07355846199258842,-3.021084826828208,-0.8754118200578063,4.172180412074102,2.922227099180521,-3.0518589171818427,-9.09883555441558,-13.777647803987906,-11.137345603605285,-2.5952933092747585,-0.29558151756614137,-3.6392809487534574,-2.4648118130179535,1.4351442032286297,1.3267192483658956,-1.5727683512670128,-1.8124690600631688,1.2768771349278225,0.04108954419226052,-6.391931353887507,-4.9207304328388926,5.463064485208661,7.341090636176112,-6.123167246931061,-23.966292213879044,-31.116732706186358,-19.556936933979497,-0.619153528788301,8.839618152801972,11.287273717558742,10.042459721761338,-1.8059441283953426,-12.380886382924638,-8.90170359915663,-11.519323914271915,-27.85968145640792,-32.16167795180738,-21.957187444717306,-16.686917822647914,-19.962081089874648,-29.13062666305374,-31.817835937170983,-16.248578705310045,13.547282053402274,85.96533365961653,185.0783554973196,153.85078919240593,-38.16742072598554,-144.70432972168044,-64.63365335981915,2.658044571915987,-22.917680423327894,-31.19150124736295,-11.579699697057325,-11.366541346203157,-4.6789867757589185,11.383631638157008,1.9806219876713804,-20.84117648919775,-28.74188015504961,-24.863263219570868,-19.036257082597423,-11.847232590289071,-7.7409846379030025,-14.628414275132283,-26.866870582440253,-28.300245906276423,-16.34965938128541,-3.160520041415228,4.067888697433114,9.398571004775302,19.309079110832446,32.66260728285702,45.364145815609895,60.01258326711046,73.24052569905392,69.2300240612789,44.20035400092178,12.84148146449532,-13.414224340913844,-30.711373976058383,-38.662669292158625,-43.2313406035978,-45.41419631131029,-39.063913100247575,-30.004437031042855,-26.084759337117116,-19.486790835797382,-10.128217078270424,-9.46275209841122,-12.13080929314669,-10.186364741054426,-9.66650462089246,-5.996772039393194,6.978909979298345,12.103087843541624,0.3710254895081402,-7.289458990818039,3.241722746155506,16.96215340161868,16.93480007424217,7.290553934616487,-1.5350332979115437,-3.1903854539984025,8.644507906314384,18.50052374790645,1.4570005474281835,-20.529754902644296,-17.40616499353998,-10.854513384228653,-10.60779211275889,0.10640187566157522,-2.544178198413441,-28.055086864474042,-32.249564876697875,-15.907142234089314,-17.9333655378708,-27.026862533417408,-23.20938024005705,-18.295285753587223,-11.126614037566522,7.633947799456235,26.383866393346963,27.812199263029687,8.52543425437543,-12.362458981384176,-14.967385720869057,-11.828493217743077,-19.19622921918342,-23.847860235476414,-20.08234942997716,-25.211147868322595,-35.673595046786545,-34.18490333289243,-32.93735355845863,-36.62430885219912,-19.656512586299005,8.589667143316515,43.51408602018896,132.71712704766819,200.82374605137875,84.58531914217704,-109.68380155173816,-130.1748084217233,-31.946344012301818,-7.099229045519309,-26.66327011634604,-17.911748622451498,-15.312639860875343,-18.917070024638896,-9.767747958101003,-9.334716096982145,-11.463843068030538,-5.041176182781513,-6.925755178005662,-10.214854802387244,-6.501152752683485,-11.677657418640155,-19.652038844111466,-16.553182442856375,-13.389060578336755,-14.27216662239514,-9.14267268920763,1.7200749625103064,12.071693478288847,22.461968882784465,38.05480549877233,54.8367661651366,62.1745969749946,64.11106657147383,61.24390832614917,37.18209267667412,5.98111561773909,0.08991193866616731,3.2464803399644047,-12.98464151914946,-35.00306875097746,-48.535114998543804,-55.90927845565153,-53.77491427419218,-43.828952532334995,-28.040547181224298,-9.356575767146268,-12.948443771535445,-37.538281542517026,-34.34491571067295,0.2627956341679152,19.411496491813395,17.161788730018667,7.975880464263426,-13.694156016912828,-29.234598271889908,-19.590762863941425,-9.909794893771773,-10.4952265612695,-4.589466973303146,-2.8500965879954947,-14.065943414535013,-19.236517717350868,-14.138748787186696,-5.764995388301077,4.475512404029493,3.0165949303360975,-12.790595452175815,-18.12704211616497,-3.5261709798055243,10.689373109257646,5.4642304784871225,-11.967374874232737,-15.03498610261435,-4.479244555953393,-10.190099066426225,-26.583487484783554,-23.592793887956212,-10.594556018177064,-7.138873501761559,1.3412073089269967,24.308553929849744,38.20834065234895,22.592425948720244,-7.452539363810526,-22.169922523262077,-18.873373564335516,-15.111690180207026,-16.499592713173385,-21.149134571568283,-25.47483616090295,-23.427121531794157,-25.814019198726758,-37.34000309719289,-29.470558433218176,-3.4119381261980797,11.00919444570036,55.26961469709671,152.9128488368563,168.4990188954754,21.35774043835835,-113.05714154855661,-88.31576417614562,-20.636958553327744,-26.09259659706388,-35.007588322742286,2.072759201536199,19.077747637261098,-2.4938924301598355,-9.327632342975392,-2.0422855326944998,-13.256122325600533,-23.673999314186798,-14.584494106314132,-7.937066446565691,-7.666993271189895,-0.43698782778347844,3.459678835975966,-8.709492356653172,-32.22820325726798,-46.9484142844839,-29.704076991648154,2.3744920953515045,11.587265866824284,10.820193594652629,24.965542687826094,32.71059547932265,27.196996299197835,37.791839178238014,57.21199781588063,50.46489751473239,23.653374778310578,3.8150122813179954,-11.341460994639394,-32.314568315669725,-47.09700403031602,-41.30583842837973,-22.37311005261094,-11.477891692884356,-20.229220965488942,-34.14924435903465,-28.824289444831077,-11.209299086848496,-11.207777154658393,-20.553880366518325,-5.750274973657762,14.662644057179484,4.533836754832919,-7.7267858911014375,3.6802138375003075,0.9974239384290602,-19.17850999868833,-13.500893798022663,1.894543739044721,-5.359886793096619,-8.406860813355506,-0.025088790383041015,-5.410788691148859,-7.606035701974042,1.5484438446913025,-6.3592513616378366,-13.603508030340533,2.669697795755688,3.79333046278958,-14.07688097594796,-7.322952016167915,6.8753804321232685,-1.800144618464948,-5.5221884052915495,2.0646714405970465,-5.518766347076639,-19.639004588958805,-25.25002893047656,-24.27269872730665,-9.75228792871508,11.278776120552479,20.97804397809147,26.642201102122627,33.30414614678534,29.909379318258907,15.410749837573391,-7.790395877566336,-26.723180423511973,-22.21183879992283,-18.014958148582767,-36.0657961595561,-41.34165946522314,-35.65590395169357,-58.24564058507743,-64.87933703326117,-16.79609351440859,31.61678521565461,83.24781470336676,152.52369070940074,110.66419772802747,-59.98482347099947,-136.2891570110578,-58.243432736813034,-7.939508434261821,-24.147796041941476,-14.152653775390043,4.539345887283236,-4.248503918260731,-10.161269443107976,-10.094753930545851,-13.844123531181138,-9.993794748566849,-5.381615918963015,-5.317580415386754,-2.235438208098426,-5.570169685813374,-16.05694439133134,-16.16049604191705,-9.73062242925398,-11.869177243916326,-14.958266579580751,-4.629332496808297,8.920708235487625,7.938302976723389,7.157485300527937,27.123943768059867,47.18200933404431,48.028010261029806,47.49455177099299,50.88689704998255,42.58106805239111,24.282748613972846,1.9025044051768343,-23.528438789120592,-38.39155837405524,-35.80884738460574,-27.549070117506517,-22.38545155219108,-23.88357252936631,-29.444752549822294,-25.500415850253194,-12.719549848885514,-5.885531102294829,-0.8602077773578536,7.207019700717588,1.7481960229772113,-15.177618449091785,-19.56875005743656,-12.603393348115546,-6.304253570461004,3.3081230067750145,7.450917628583862,-3.2617799314713913,-4.846491647280359,9.51253504697976,6.36794692287336,-14.079354138254127,-17.223893535329122,-8.56571058307634,-11.003327179927192,-10.112413968709209,3.722480694519387,4.253565946993827,-16.959513974373994,-31.123344539456834,-24.081397443420386,-12.678733359615201,-4.6183789227682395,9.630648723892278,24.12688140547472,21.181954699797434,4.5324820006962305,-9.350193939907196,-21.37791959485262,-35.652758600732014,-35.22568243759605,-15.187889296460707,-7.622507900272403,-23.120266499269675,-31.255952520536283,-31.661814844126685,-38.71956663710158,-24.18668764916165,20.77088716343277,76.22721285161494,143.82046816752245,155.89032279732854,25.771016934717814,-122.10898641614769,-113.31332251098084,-30.278085365519058,-11.990014587682317,-18.39817838180342,-5.757524068552726,-7.7463303056771515,-17.097706401821387,-11.454172795240357,-1.6668099405419579,5.684906364996928,4.6083403212501715,-5.498810402474852,-5.98416906489276,0.6470679774062793,-4.020173406733883,-13.603859176594788,-18.029486415542642,-19.39722771758837,-15.284319484332418,-6.873900854104507,-0.00676451651076615,8.803138243794706,20.727815023823133,29.696616675497914,38.34046446815759,50.85627438156794,58.67327484798602,54.83005977553453,42.892841733743396,24.609423938041566,4.452040171196829,-7.703491866942743,-18.217322400020414,-37.263436709110714,-50.43673358807776,-48.0720629749939,-43.14402423693969,-36.039268236533836,-21.795926487339763,-14.207937976260578,-13.429736601059453,-3.2720518634474463,7.997305042711687,7.78839966663853,10.057066995024552,18.299765443921586,15.167016481532642,7.227633772189474,10.886957964886122,9.223265553086051,-11.13440980217782,-26.740563108472006,-23.351608919853323,-13.323776171586601,-7.153145462507236,-13.082408719955634,-26.30625984231258,-22.063600563146238,-4.316260854131032,-3.6419897080169576,-14.397411490372669,-13.753362666676775,-10.681578273504297,-16.776848229939244,-21.41433623995235,-16.986999144648763,-9.816277881316262,-6.53576820637748,-4.083962940584941,3.639082936704054,15.431380717203178,26.304571278729025,25.916394129216663,5.776340112805365,-15.938524539942232,-19.004123984043698,-15.52570583513931,-15.34704888149,-15.30424896870679,-21.722438752720272,-26.62703918601879,-23.351037270738793,-29.66368376351505,-31.68211787110729,-8.115622229981128,29.173374871687635,105.14646751947228,187.03305001356583,112.92520071655878,-85.66440655963447,-143.09047299597944,-42.50723663553536,-1.8888111831215983,-29.404897611878205,-16.999903631254046,1.1056754266689808,-6.271386954768959,-2.713308926717989,-1.3818588404160188,-14.634634366392543,-14.969326465209008,-8.439382938048716,-11.8300324645772,-12.8239605750196,-9.67670770293139,-12.062592582152142,-15.387421891790245,-14.071444571198871,-7.171407232449257,6.042694859574915,17.226825745721882,18.127943204161348,16.963122277654392,22.13153105956956,25.85117970473491,25.376260075958154,33.42974745981519,47.42275864226039,44.49248310405335,21.145733267120022,-3.1095984801523597,-20.828882900044803,-35.37171604279216,-40.75690477179156,-34.962390248170735,-30.51376246222626,-32.38072515546994,-28.93480954276127,-16.45416807470266,-8.954060470565336,-11.034243911589488,-7.937023777174334,2.6360220954454032,4.667098899584854,-1.3431446601298553,-2.2068399905561726,-2.9129273866023873,-9.780046849105386,-11.293275529592805,-4.950760134752924,-2.0888559185631195,-2.280885438714172,-1.6273021055045245,-5.621437854166366,-11.425297454013883,-9.321385290622175,-2.34121397679486,0.44249334294235076,-3.540937743659496,-10.520092839173817,-12.299831063024143,-7.782426397947139,-5.492500168889203,-5.617019192773026,-3.3939896343119162,-2.510500113916075,-3.3497049488891975,-2.1199963984146466,-1.4596161239477432,-1.641004253944514,-2.7195032607134255,-8.645550641694767,-10.100258833518996,1.6529359138072417,12.569803652838996,14.698383935839086,15.457221692125518,8.101095014420682,-10.831114050156877,-19.476023430626412,-12.048445865629462,-12.318594412174342,-22.733703374176777,-24.63896042269195,-23.808526903661893,-29.323052264852265,-31.479570448433204,-36.91645398949005,-45.484761884384675,-29.89092501105553,7.651765421679855,74.43801371255982,185.1951754834046,202.93099388146283,15.28171478516466,-153.04374418610854,-95.11295985874679,4.69916427613001,-10.154392281940538,-21.772277635292294,-0.16237953974798813,-21.582227916667666,-36.353434704708846,-8.36231069003358,3.9809533305943496,-2.4032073588035505,-5.1468521170905905,-17.55525245812899,-25.390882300189148,-15.361806227392673,-10.468870706270922,-15.51445856133075,-22.29155544363313,-30.828615683204028,-28.745301873577347,-14.454544568862609,-4.504813739850107,3.45332443496877,15.829743752777762,25.376286999392605,34.87229075067597,48.51902067976608,58.1449166579843,59.39899770928377,48.732879004305545,23.422420782964835,-3.1438417494540136,-18.95374065873333,-27.287125823628358,-30.950944551071593,-32.32020596593077,-33.16413299801559,-26.377466450326523,-13.437945540385261,-6.430042020301173,-5.097828257026233,-6.151095230439633,-11.245793611102762,-10.53803489646645,-0.7862508361445197,-1.1226445834566263,-15.993196216867029,-24.672973743854286,-19.23003491823323,-10.781631558474778,-5.73673058927951,-2.7232090915806655,-1.6228866473108958,-3.211838834651429,-5.548732676563819,-6.659329788061367,-7.2433562742743725,-7.265669896798954,-6.892565082395624,-8.492083658166717,-10.149020783446858,-7.581571103028617,-3.03027938033569,-0.9511305469450573,-2.5820086008419647,-6.52241406365528,-7.705809421649012,-4.117539029814024,-1.1952339957708098,-2.174393193670463,-6.017073778697505,-11.695579876120911,-15.243421643122488,-13.421571302824903,-9.015908998262331,-3.679375589772661,5.643131336290295,19.032246300932574,30.52578835229495,34.2292787459984,26.15080094204197,4.389966700103701,-20.836765516924014,-32.825802911020844,-31.118137419088036,-26.227049992129807,-24.610918548318054,-29.455491431229426,-35.110925365503974,-38.06288380397714,-42.29447581934056,-32.847246649636574,-3.933006172412,32.875571561358846,108.70170169562115,190.9729350548593,121.20219513182712,-76.01930968508181,-143.67600025624682,-50.26665962839404,-5.958812391178082,-33.83644294299309,-24.722280457362217,-2.698988122855436,-9.380104232513201,-10.113691389850052,-2.0089683596669037,-2.672948937214718,0.19226906143859068,7.231740420750719,4.946828266356352,-6.230887295919093,-18.22183248287662,-23.00447779722633,-22.118589351892798,-26.258640495039195,-30.316153795071713,-20.409090804837568,-6.373393052603036,-4.201848060970125,-2.9484622768739923,10.341461211930445,25.382243281195016,35.7343877046029,47.493535638606,56.35628603131156,54.70740251798436,43.202725763283674,22.4306574985428,-1.506405279085123,-18.56701461800381,-29.159736550635373,-34.657491376935816,-33.949583431609575,-32.690957056421304,-30.97165814234036,-26.727098155818073,-28.378823305728346,-30.554980687787587,-19.39829870468817,-9.84487871005711,-15.107497789837815,-14.350857037069897,-0.33024849856914074,5.426992821416846,0.16873754568741006,-0.23169741872276362,5.115972187208578,7.454982559493812,6.891059837362551,7.918892569421279,4.782560395000498,-10.773189805888618,-24.81859282722117,-19.604934522683504,-10.281656711700254,-14.461385526421845,-17.960666734806328,-11.614825604287821,-7.426457228989081,-7.8438090081208856,-9.262736223568623,-12.470098032550615,-11.301937764333445,-6.133714614643257,-7.779685908948965,-12.000872665771935,-10.871379273033348,-11.165813355370794,-12.002415174041664,-6.3017844490728105,-2.8310162157170105,-5.104939522330117,1.972026090421731,19.973609124067462,30.13732802451364,23.51044936205264,7.473473686548032,-7.933677227159722,-14.878507179206192,-16.604049942474653,-24.214841365367608,-30.652903893337424,-26.493144278205286,-29.22058434949745,-39.446255260939104,-34.02029639739577,-29.29718646612473,-37.03211399931682,-19.30678424253221,23.969765577842974,73.88417085982933,140.36964152244954,138.79224411511908,-10.347662563511562,-139.45885958951217,-91.03134222180556,-7.180910401878577,-16.95279370604403,-32.12359173029618,-7.324305842518516,3.109203023563804,-3.132278835599813,-7.840051910662444,-11.75138468038417,-6.422564482804971,0.41261415259227174,0.12241380810159441,1.7446376936334094,-7.514030082479302,-29.770413036059868,-31.576909082336623,-16.305190145157965,-12.404314323139529,-9.325021143201143,-1.7944396143667767,-6.368399765377316,-7.9301904370759235,9.372341945097094,29.46948588885308,49.43232293791975,68.69231808215747,63.5234171358565,38.41660071373811,22.675683899486735,12.51531233826326,-4.239631396257119,-18.636698885727746,-30.857632091416384,-43.94703863683349,-47.06401388951087,-42.61022778979369,-40.95847778700501,-35.07925735515197,-23.581637308455022,-18.786258821641752,-16.82607283267285,-9.413805729633658,-5.931822636004085,-5.860467192736444,2.513214737442894,5.955735794263067,-9.107398900148166,-21.14122715118227,-14.955146542246535,-7.774237523534186,-10.31943754429199,-12.782702693280514,-8.244493290920587,-2.7708253950000437,-4.488771526501367,-7.671488655936244,-4.42478635557552,-4.008917942931836,-9.742539558322804,-7.458115700030515,2.0611967456066225,3.4177682265539424,-4.608832749562001,-12.965355159319508,-16.56593877917711,-15.517371403534762,-13.474548421974704,-12.838752249095474,-12.630966943917604,-8.144149813997116,5.054275116527204,19.46952681025192,23.882166186516166,18.472245209171096,6.116726072344591,-6.5922456630413375,-8.189664307487842,-6.6835337674972894,-16.089925307251512,-26.29312850925169,-28.43198417235267,-25.91822362013152,-17.683590368614777,-14.259342157881896,-22.47464245289628,-20.838221434392967,5.077591333411245,66.30620333078319,152.93692365047534,151.95507258218797,-3.303364693513167,-138.5972813550215,-104.25569348672897,-25.647435731415513,-18.671715388646028,-15.944716835614349,4.77249246728411,-3.4542724456158247,-11.513889168574844,7.644156347067549,21.82245289729408,23.486519978030483,17.948551201649195,-3.756151790257385,-23.446693653387797,-23.31986893726734,-17.603625824386818,-14.799836511885493,-14.028073329728489,-15.44144649991239,-11.926329902668966,-11.04461404674747,-20.664773055645117,-14.959839437173217,11.40202782257841,23.03403789582167,19.487078644512724,28.70697359443421,45.71710260743502,54.804607602276,51.07179008013811,27.739261153897353,-3.4709447859166858,-19.368456042278762,-22.714465609698117,-24.9020085097004,-25.842972653196483,-30.25707518594976,-36.51546045398854,-29.339862088964722,-14.589980150453727,-14.577273308106015,-23.782303010198987,-22.360803630805375,-15.436234691858479,-13.17566436828372,-8.085221347439079,-1.6414844838840068,-4.49110896413778,-6.406364329205648,1.9525127465885355,5.19516085271315,-0.6918895124686948,-0.4740036420205884,3.9614501843828664,3.317973387173484,2.5295503681256903,1.475271425098068,-5.06507402920715,-9.74422291365127,-8.613470713784423,-9.702792353219312,-12.322584203068002,-9.169294727590374,-4.490613575631887,-3.1767372009091126,0.19253243737455072,0.7649003227353113,-12.300329525930291,-21.331832916289088,-7.344276577211236,4.959321670455515,-4.208467757928618,-11.547794461242727,-7.441073821441382,-8.573127650862473,-10.083080989372215,0.9273089457146697,16.62035808961387,29.41365225100394,40.906527568391866,44.65616668920655,27.218949696402507,-7.041839988455996,-29.660844004675678,-28.792476016454614,-25.084667253694782,-29.414849981570633,-35.30895986315053,-40.288466517070646,-39.240586106941066,-33.687357721038836,-31.9169126834331,-24.28983257095559,-0.6733478412715321,52.72147180761165,143.64815339586164,172.48309752084165,34.257487469053856,-129.34989659430002,-117.40926017926299,-16.339508412488524,1.9837993770360747,-26.252761123873135,-23.398770612800217,-15.384941379855746,-14.69962228823354,-3.4832774443170154,0.7546778436844015,-11.992478039593095,-15.7149738329178,-2.9799462635323177,2.037690382450652,-6.128703478375284,-10.162440074093475,-11.890824226773919,-16.95230145890148,-10.901242001944834,0.3251045690416752,-2.5651188470348245,-2.191157522754544,14.29202713388801,21.934067433919346,18.358207218732428,26.129017432788743,39.80731193592513,46.31598296308624,49.36395450413203,45.024667312706995,27.004383896343583,3.350434632392834,-18.366884022931547,-34.332030622263346,-38.47503750776046,-34.61937462092358,-35.12422160302556,-39.9181670856771,-37.28323603828599,-25.597597045742695,-15.202416702804227,-11.048452785328504,-10.899279942734584,-12.109499587304503,-9.009039772155798,0.41833722798351936,6.520199509487885,1.34803266493984,-9.778890769013845,-13.144107411282157,-1.5760186888681336,11.022062128222245,11.172604494650303,10.769926382158731,12.983982221001384,0.9967318708508497,-12.955429781287075,-4.326409450561409,10.922507775260659,9.564816782050878,-4.136989773636792,-20.44197430705338,-26.30625711685836,-14.473630601999666,-6.102188770838788,-13.154971021064867,-15.688822339410471,-9.490510449486067,-8.691342069515393,-6.787880979265205,2.2979482499267956,0.9319812408271044,-14.019972242149574,-18.104138716808492,-7.090218114973206,-5.730062208977422,-16.675527786790624,-19.07709547770743,-12.980237919944084,-4.905986379813606,14.639350155169337,35.58975784937886,34.2805665591493,20.521264306535464,13.167135635071824,5.517185070006086,-6.325828412497083,-15.15757474215815,-21.15871609233301,-23.43587328303997,-23.61881304608216,-28.572849130209253,-26.81792128271067,-17.06741228524916,-28.298069004261848,-45.554793968432286,-25.007833552157894,16.74217409849028,75.09584967910509,162.85606242675232,159.12653821148942,-13.34813032418321,-147.44878702205975,-88.5376126662824,-2.6470620334932917,-14.445237779388828,-32.079463838128845,-17.780961940057097,-16.573405257430913,-15.462358434453451,-1.7578809170985616,4.444049301057367,5.764457911008217,5.459452926442421,-1.9209859016571844,-3.714663592227742,4.667415365586663,6.8260097795000405,-2.560184906544701,-14.05544971560055,-25.36278138616555,-36.93742683152714,-35.98554863789686,-17.9204963736535,-2.0696191017375827,9.00582970886936,30.899135403900395,49.28525988744963,51.272372995621176,57.200868283903006,60.94236232840309,37.541108429758324,5.197578493928452,-15.606521404151437,-32.27404629364729,-40.20895112624055,-39.58604159340871,-44.449230894508965,-44.98321182253228,-34.86760887344336,-28.360959194544314,-20.296417083861083,-8.028403401734398,-9.384152578532085,-17.0897874396874,-13.62564111243438,-5.676017439252385,3.5546173425752077,13.055163185189302,9.17584740117523,-3.0629178591550215,-6.189121922868459,-4.44166934301672,-5.599166051377539,-5.398447174352468,-4.446430623736804,-4.68096969553242,-2.70185845074651,-1.7850605145808363,-6.070138234988981,-7.777177037236107,-1.9560052316976835,2.063290813079618,-1.9707365248962656,-6.370671285618965,-3.6938997322710527,-0.8439813065436308,-9.192817458586772,-18.661795369387967,-8.23948521280361,9.161192419203777,5.08904533521736,-7.985334809368226,-7.538301347475695,-5.717609158208791,-8.89216781667874,-7.108006924097087,-10.088424663202316,-19.351980195918664,-13.721822897242417,4.43050903464819,21.46486149177167,39.34565218828837,43.65098778780086,22.4390296046295,1.9042762370242876,-5.909442983130283,-16.500799322203605,-24.598782974520745,-28.056220941484426,-40.315142330739576,-46.32705829906868,-32.81275374938177,-21.189946025709908,-23.758845192188232,-34.37784297926263,-39.674152999040196,-21.567434223162866,17.202666830736288,81.69510405418961,164.50591338098718,149.26294594207528,-18.418004975102008,-141.0194048747359,-85.00582738678021,-8.299643945547022,-19.729490053848657,-30.20746168612999,-6.204040544953138,7.7038583453135026,14.615417448320473,19.71698520461269,10.138811828570995,-6.485499624259376,-21.712691939912673,-28.511550587011698,-21.94088705732213,-20.31320832959569,-32.746366725464014,-40.360816683699596,-36.01536335925722,-29.487883791027663,-23.287858881142093,-15.758343513300545,-7.924256973260583,-0.3044501213672266,7.822802021667583,19.105163766079613,36.10631046276301,53.85208479120873,60.378569954005656,52.64854445913551,40.45779126826197,25.294552459959945,0.9474807725529164,-21.715652472167886,-29.02906793876621,-31.85766995844042,-40.19683461779563,-40.88580905794194,-29.991284345520576,-24.570056623319708,-26.11406700260268,-20.14941665130282,-11.096110416632992,-8.549756800565328,-2.0840786512606737,8.961315699631285,7.728643861696392,-0.50134321703122,-0.017936557846878642,1.6735961556921488,-3.6687629159098307,-11.598299274677911,-19.22121826030431,-18.611064977833603,-8.163609444957537,-4.27364618641135,-7.464965778188693,-5.863394367382236,-7.486016404060496,-11.804836635460298,-2.8793330113021876,7.487085245440515,1.1648154175360528,-8.80903254774125,-8.12745706599222,-1.9270963410616044,-0.1429533200248212,-6.817175950156431,-11.451230408205172,-3.266528062141644,5.934431538704198,2.5398332430519064,-4.74668514086053,-4.0029447112045755,-1.1749204575393914,-5.7931012019327905,-8.23958934935856,2.291088049132613,13.01156450181173,16.159907949464298,19.321667839822545,10.276769047189713,-16.86593361761618,-29.981496313616205,-21.81989829645005,-25.890792683031165,-39.000149859339444,-32.961940469436534,-25.226317561703816,-36.24614344754191,-39.768596558250906,-28.307414298960328,-26.376346930194046,-21.291824524345614,8.485340881377553,57.47259214221168,123.95848127525704,144.54316685748313,26.862257681625405,-122.51356262270477,-113.83146709114311,-19.072510583131788,-5.062214913650092,-23.67651443652028,0.3932268272404933,9.2699533539095,-10.27742225133074,-6.89632060984816,8.848024930945346,6.440468527158995,-5.46943532367786,-13.502053382161458,-13.796334300988027,-9.246095851918088,-9.44680831143378,-17.664921309359414,-29.674398685746137,-36.29188534909695,-28.49114863505161,-15.662318181046258,-12.605746419610814,-11.215492690000511,0.35802559142413837,16.378717900931004,31.756390249220747,46.707289813090824,55.31915837101154,54.217465397630605,46.565606581562974,31.58393097622517,7.89664998532521,-15.50830581182958,-25.985765627482746,-28.182309618621304,-37.76090931769297,-45.19532367701194,-30.74187069092945,-14.194115239468864,-19.508415291789728,-22.057024267287414,-4.129310803078424,5.126380424155961,-4.739730461569469,-5.122287881593781,7.539067092925796,5.297370303611906,-13.458886315585799,-22.17126238530512,-17.711417894832483,-18.41980935136374,-20.02691665927278,-10.351289144201283,-3.85671738550025,-10.062890384641307,-11.430373059810126,-3.3823424320736386,-0.16533337882365728,0.33644337491248066,4.975723525588883,3.913396581270783,-3.3999600135400296,-2.7090772342776184,1.8904709772494153,-3.18014131787662,-9.060853586298505,-3.7184949444401827,3.0011907317421818,0.5360420419595417,-6.568342922654644,-12.540498358225294,-16.575360029658377,-15.79696762565888,-6.003553776933945,6.548923097116071,8.371191094594218,5.1691562907997195,14.334896786243107,25.416659983245523,19.742386468302662,10.486321303834515,7.935984707383952,-5.396363801525293,-30.088237427590002,-41.04965293758481,-31.100915639764185,-20.983997966596668,-25.808508105143993,-32.72022653838321,-31.866956263232368,-36.67271307133821,-38.44378126140311,-13.522960311091328,29.682857463132894,92.01014184499907,156.71469582526288,116.83097417555834,-42.69306943405875,-133.18038376971555,-71.64188261542522,-9.811796368389452,-22.65504537938301,-24.782399998335176,6.166853211235235,16.788396075751255,5.637220845404798,-0.40293910931850085,-6.275643803977811,-17.707893891967515,-17.285241134512212,-5.48349493890799,-8.835488913460395,-25.59063933559549,-29.29655901200117,-20.58798154692648,-14.084424860625848,-13.047989938423232,-18.02873873719542,-16.663391302362722,2.8494293740226824,21.71663354098533,28.413338204733385,38.16921394519136,47.696709075521966,47.534297278152046,51.80200342406045,57.39384456814324,41.59321596815997,9.853691168813782,-18.697682364038382,-39.31505044588303,-49.08687541877427,-48.96920310653692,-44.90539887872871,-35.84113379331092,-27.651473347922547,-28.173236570489482,-23.314847241886483,-7.422378760679933,-1.6023449156768734,-9.790833194777512,-16.87066434264267,-20.263105205963157,-16.23907007388521,-1.1065320007756458,10.147935604148891,11.835947572370419,11.868111936275707,2.260116043159483,-15.413194044666316,-18.545132983572152,-10.78968558659821,-11.870663924511963,-14.845840906333475,-9.434978210862031,-3.0156021287097285,-1.7205208312505853,-5.766485871357878,-7.9557428732727615,-0.4455038064578023,3.9831681073593206,-3.763027735185897,-6.041592436861809,-0.774222911080571,-5.234096966251782,-10.355819697905373,-3.138018281998244,2.498135078557315,0.4362768409138926,-1.7052921692217478,-7.009680830773668,-13.853256281488855,-13.262605208381572,-10.251447991645877,-8.941026553133732,0.28987358030046906,16.472023151647424,21.9504746645035,10.782444660669565,-1.0801637093029424,-3.7176339280376087,-6.215408806513285,-13.896679402511877,-23.94326092157565,-32.3208405688858,-28.319085987822913,-17.576879328088758,-21.544057452409426,-30.110242792002147,-25.575778771855695,-17.57458483550968,-2.9910901338624254,23.663583625933832,62.06630453421789,132.49185909259356,167.12635370659598,43.9792662251934,-125.70610258822094,-124.97306600194537,-31.724724865748847,-25.192866110698695,-45.9738346465932,-17.465939814729282,-6.820316159966559,-23.200322556464666,-17.682340671441153,-9.183872112615537,-12.372997599550258,-6.427346757008046,-1.0659548246921453,-4.888524159379749,-1.669565420393333,-0.12058617302669106,-17.25458780439773,-34.85318153161571,-33.36326731076916,-23.56291651254132,-18.650918203287798,-14.640141116317215,-3.7959889825360404,11.360385806255048,20.585421073579518,26.60591583185185,44.030670873800815,63.89231046354459,63.816457760834254,49.98504453547823,31.669752669751382,-0.49356797624960524,-29.867346346752598,-30.201810584802203,-21.46299700649952,-26.677180823228177,-31.9498272445642,-32.21227140410507,-34.516618413175316,-29.161368848976018,-15.559219084964031,-7.367423131650078,-7.081588918413971,-15.577216413113588,-26.163573653957233,-16.49475798816116,5.813439509005406,8.88467606634678,-0.9240991919117274,-3.248484899016633,-6.237588027815558,-7.701487258216075,4.591190356768204,12.194653462116364,2.3142644472045912,-6.776718228141993,-9.289778615710361,-10.320423220416554,-3.08129367449041,5.211109696915775,0.23648163036313186,-5.547829219238071,0.4546289753990429,5.128504276719308,-0.5564882312770294,-6.37476073527508,-3.0344978481312355,5.389841250865977,9.192958659069188,9.393017237216263,13.156053971193167,10.713931132216635,-10.324276673835055,-32.4188988562938,-33.06179219292481,-23.05385519415306,-19.742824600750318,-13.875693997442198,6.480022029072605,28.899859636977904,32.67738849746019,16.852040750376815,-1.9189756944613556,-15.216415146981877,-25.20012045304351,-29.17784523287946,-28.144321732189486,-29.24015627765653,-30.45429460006011,-29.243995109852293,-29.159012519381,-31.103981551899842,-34.347456358541244,-28.707366333499728,-6.155486818070521,29.683336870485846,103.50954110515895,193.77036306202754,152.21737213681962,-41.087820791624296,-146.25694543541357,-71.2107723963524,-10.641872949473978,-35.25935321515766,-37.39356461520519,-17.257202473582993,-22.994336452350133,-22.542568833973757,-11.370929065161175,-16.247025096994435,-16.822123955529115,-2.7790490510454475,0.9626563955422967,-5.682498454731352,-9.912306534477695,-19.875078658866457,-30.943097385687025,-20.581155864001133,-2.3224953279974248,-8.755077123949043,-22.521150331884435,-11.45466872782745,8.670871071246207,19.563012072810416,29.09402137572525,33.88989343114049,36.4284428163494,52.66910670625256,64.04193047920883,47.07763261645459,22.409107126772724,6.207329213930914,-11.921450392307587,-27.249276882837645,-29.90157974699376,-29.037496880787153,-33.06891363017016,-37.84001671663358,-34.076499176798244,-21.495226841122573,-12.673301303963349,-5.905043519295674,7.1858435031833565,5.897902706971074,-16.751226593982608,-23.882045352508705,-9.336971696162534,-6.384552241171381,-11.888284501950748,-7.455282861311533,-7.275661231294155,-14.63182532149821,-9.382640599153687,3.3668191444313074,3.1500804146513595,-5.8632262481859385,-9.929140598124674,-9.791549859356785,-6.937241534858565,0.6377697616258295,2.701433010907765,-6.441769796125273,-9.68381144065842,-0.1789889321989886,5.161056135259166,1.432255176104098,-4.064526979883333,-13.290548533559447,-22.45431957868723,-20.52239030901465,-11.464367088866803,-7.186066806834857,-10.932806971895175,-16.046154353769637,-9.129748021871656,13.022358323794407,33.3513875160174,36.240825424959006,19.898255640966298,-10.204304988670545,-32.8088474758391,-24.098581694930104,-1.9215134023761493,-4.324110419921244,-24.55992919262038,-33.570276522203415,-31.294107878848905,-26.252449579486658,-23.46651094179459,-28.039373937220727,-24.654083005039098,-6.239054193138941,26.141119074854174,105.30055961195342,178.7254796339427,94.05819683244798,-88.34878247005979,-122.50543551233733,-22.09882001969549,6.971390062404289,-29.55080420515447,-28.70387883167482,-20.51305789791048,-29.932492865778265,-25.212549397276405,-17.70441613383418,-14.449520108321416,0.09074635887504279,4.123181048030666,-12.541040842259257,-20.26968034766493,-12.39143710817538,-3.350000451454024,0.8978900597468797,-8.506139478047539,-26.971270927963836,-27.396162483019864,-4.995608316192714,10.820987656753394,2.424266590971028,-10.91234736788958,-1.5000091776384314,28.783972956014654,56.03982867862706,66.27596519932862,55.86102609346035,26.966844578586866,-1.8218701502604313,-14.840691773429127,-19.72640001745434,-25.467585368780213,-32.29776759600201,-40.74922812522144,-42.94461248822931,-32.49553330307296,-22.056993664651934,-19.724486659286082,-17.7466521151138,-14.148641968681478,-11.075463307089759,-8.637518257461721,-10.3582102234895,-11.909710518377427,-7.631050057773118,-7.77116764724186,-11.70502250007607,-1.885285081828087,12.395771998700782,7.746443052277194,-5.1905000714264755,-5.8371789705734045,-1.430918286685122,-3.6953284162280298,-6.7560678218031995,-3.162166518951185,1.4590153572048195,-2.832323141923844,-11.133678543918686,-9.17476532310328,-1.0543478310205803,-2.204417941871025,-8.895826458974696,-10.03944316376697,-11.421301881652607,-16.741090310052,-11.178934847312547,10.430036080317613,24.975907788006623,16.22208985959095,3.8229092406608176,5.256043493736415,3.0535355687196235,-13.25117585125442,-22.385216764005875,-14.91374194235052,-7.186870842613513,-8.867547657319113,-13.225517350187253,-13.995166460589367,-22.354248534146084,-42.93605024266333,-41.62467655689404,-2.902204926193983,46.192723740127846,110.75487689303345,159.54225801006677,75.38946183694352,-96.14907273556294,-136.8577497322126,-47.84727250693801,-17.03908915396547,-44.35192208333295,-32.713318936245976,-13.444341947379868,-15.697174497651176,-7.042863077280526,0.2710678050523132,-7.792896905405367,-6.347697720406741,3.3590951336509463,2.8427362901195927,-4.339555884469851,-10.60825652029233,-16.390432417682007,-22.882927980675284,-25.326876037544487,-19.224924320417003,-14.432306723911317,-15.587789810918375,-9.445958584287627,4.290766887100978,15.004972205418591,26.221947988359013,40.03279691561923,50.82652621371011,57.94780368582745,55.54204329105376,37.162841536910136,12.076708146886347,-9.172463044684921,-24.90917417996552,-34.52206698191605,-38.54680524551061,-37.720511816566166,-33.790624552045564,-30.124977548160384,-23.345969451600936,-14.300463493949767,-14.27335904083418,-18.531807896495703,-14.679483170462678,-11.15401726792018,-12.284079743732732,-8.057023260203163,-4.061315348507048,-6.926462069403868,-6.401236779120367,-1.5690027288439268,0.7381195519510637,3.6926574673345947,6.754144706791868,5.267831040268765,3.7326794817849067,6.651366148001024,9.398464671240204,3.1343050415282505,-11.990092120070303,-20.861189892956396,-17.228837218960948,-13.661239057783584,-12.714736656235749,-7.65915280622653,-6.367068230609693,-13.940342800346762,-18.004694965722265,-13.805810668321385,-9.014790273998097,-0.3089074871948423,18.709594422484173,32.18420809098683,24.44774049529124,11.679080825329846,8.49091002828938,3.9193561896312503,-2.644493527065576,-7.518661836442863,-23.710624947118113,-39.621819271909004,-33.23831288079115,-25.138216269419097,-30.612740459699847,-32.880705464034094,-31.066477809152623,-24.800099419252362,-2.5897980387247728,39.767133680023235,115.17512849794464,167.1442040774242,68.76313164371928,-113.1236019867721,-146.1872781862742,-40.954793175714016,0.5223987816061424,-27.432682249989657,-20.430521949786538,-1.6804693635721435,-5.615709972577212,-1.5481261423504273,4.402327805030139,-4.990137701698883,-7.308354276265984,-0.8867084510091097,-5.845623881510967,-13.71146628211779,-13.731397914562315,-17.291310659074597,-22.719475416940476,-14.606765191562957,-1.601953614758271,-2.619647062204015,-8.54176516815557,-1.913978756886698,9.879349677481247,17.06333376860214,28.42050299811632,45.163228948793986,54.2868942251192,54.52292270058582,50.51007290478441,37.81363276165122,18.127135283847224,-3.7387009705872973,-32.1360580281864,-57.3173026048372,-59.59032401931534,-47.608949166270605,-39.811011726987616,-32.32006601008205,-22.790095626518696,-18.89366695422511,-17.115674715056773,-10.481992804870973,-0.7827490610227894,4.12422358686554,-2.7545578258359207,-10.901522216248091,-5.653057273443336,3.3530973290213453,7.6011640472633655,11.922118855500015,3.721140023606649,-19.113382403657816,-24.891994880122816,-9.214654199699226,-1.5049909933503756,-5.614583569763058,-9.008851168413276,-10.200576759789675,-6.976348921447981,-1.5638089482060415,-1.0087724251940617,-3.5660509056786562,-8.974142512509435,-15.77171227139168,-14.502254797674265,-9.139171950769674,-9.00536217806222,-8.977680340180209,-8.075527008951191,-5.496817406773496,11.523070570632537,35.070376999836974,39.90964221535539,25.28355279971978,4.223935263935768,-15.291744705408416,-22.752869277196762,-21.798861192827765,-27.44876274379225,-32.81039288425549,-30.583960391236346,-33.76088268964269,-36.39891974694756,-26.07540329573768,-21.22240163560253,-24.402902507431087,-12.781389823313663,18.149091287669073,84.689254696488,166.93716606549157,131.70861401479402,-45.25580950614207,-144.0173439440995,-66.54411626232441,4.420978930462366,-17.48233735866842,-27.7396611220604,-9.148263543322887,-15.733525041088964,-22.443277578281343,-8.051824057411446,-0.20069723287310381,1.09336161287424,5.264847315890601,-0.762308027363229,-11.824289795026942,-11.046560921624302,-7.2790538168030565,-13.361708833988267,-21.604163155281576,-24.027877076014487,-22.50019589996499,-14.767342957755774,0.9459557371296663,16.061348740755204,26.356448659534866,36.539300150648245,45.65497461397532,53.01850529484873,61.18388887285483,58.617965123105535,36.41020818474873,11.266956798783736,-4.771535644848104,-18.002812166856813,-25.920620651213888,-28.0685462270297,-37.42368222197898,-47.625039333939,-40.39809414975691,-22.44045758614721,-10.705839978839812,-12.60946309191803,-28.508108035784836,-40.41583234503486,-29.118595122895602,-10.442946960974396,-6.603743683691857,-8.29264075034525,-5.887500614211753,-8.851304007597598,-14.380554836565143,-9.741613431623884,-2.1879253947687793,-3.6270909312506916,-7.452217652386036,-6.334339619658284,-3.519168868860918,-1.4414993787706791,-1.986525081903583,-6.4500623549929905,-9.996459447439051,-9.819786372608846,-7.970771377465191,-5.619411883006251,-6.081205422414277,-10.505545679713219,-13.893852307205766,-15.206173203906143,-14.783403873940046,-9.61968780879908,-0.7976564601804075,11.24711220232646,23.116743098954238,20.45999481781084,5.249617514342585,-2.494292821783313,-4.794726073101955,-14.097464034526952,-21.712394306364857,-18.567798457654735,-13.366560048035376,-17.576215637218,-28.52362444643054,-34.69787166932379,-37.44335133605727,-36.83624127379848,-19.148993055093374,14.19116729882894,68.92207515810253,141.18899142987812,124.59605704083623,-34.41713345941713,-146.71319840140274,-81.42768326352918,-2.0631598884606124,-18.270205985164967,-24.453200113728137,6.441876410650053,3.5340409705797633,-10.447145492652533,2.099053992427029,6.817387744150926,-6.786234675388442,-10.280347271240437,-6.063807429075254,-14.855987462823483,-27.768680896786577,-21.62617110255475,-5.31522247091732,-2.8803304517347623,-6.61042272932897,-5.042826319469778,-13.227489482003538,-27.58736909974106,-22.01145805122257,-0.0072112455530524144,17.28879538576316,28.053384300855942,39.108606877763364,53.26901427693075,62.70407094493143,48.55489027501439,15.311676589605534,-7.2862586216334675,-15.627660051733802,-27.54228411078452,-37.05064962608343,-33.407146761646366,-31.410617694772277,-40.44784134936381,-44.08396651068421,-33.32000486587628,-22.9299977362192,-22.391042473755334,-21.86550453077627,-15.15652572813854,-9.95841889558378,-9.636380510696142,-7.050951500361258,-1.0411391114623072,-0.48781121876486466,-6.402671802494757,-6.603980535876024,4.059074384300072,11.202930380683977,-0.6091639992614546,-20.717818075592014,-23.05948919173447,-9.562355693223678,-5.627081706946644,-10.485641419418524,-7.818286985718892,-5.283738010138412,-9.49359327659807,-9.79373499242347,-8.40266980351883,-11.480701570722342,-13.218920347966133,-14.504993514592973,-12.236731236250336,5.634488423529728,27.41189766709737,32.75795150366038,23.035640916621738,5.030590560995555,-8.248237778719968,-5.36009822599922,-9.713253361390413,-32.56399161330693,-39.80938490079263,-32.06226387437024,-39.41673045861505,-42.11290998701705,-27.09471525122228,-22.93947836859322,-18.440861679116193,14.366251859279169,69.04254131350727,135.31066677232647,150.1934306139254,34.99440654297824,-110.19187757223348,-119.71774323212333,-46.524965678464866,-23.662167181048535,-27.664002687832692,-9.287692243768902,-3.919726008483998,-21.88707542632152,-31.08665314078098,-25.19660864944396,-14.942204281698205,-7.918231061841963,-9.26460769833638,-14.348235122142327,-16.61243743366698,-16.289295726890536,-12.308137848253661,-5.401996235764907,-5.477482260934906,-14.19617167471411,-13.964068085419175,1.4530999220522807,13.105294042350012,15.104410479280178,21.347562909834927,31.813731089554974,41.96507503510171,56.03874764055664,62.07883887644363,45.38033648119612,18.37360027329784,-5.054386147337329,-24.885066689529545,-35.623967088344514,-36.14327156182786,-37.70841660409183,-41.53793592563726,-38.69025319605393,-27.591955299696295,-15.16264143404279,-9.634132104052998,-9.190169643934123,-4.556211734206061,0.4410860337928071,-2.466709556050782,-4.681550074481608,0.7491448404156529,4.518606787490432,1.618617729950012,-2.7909238382533665,-5.444260104268032,-5.461661295145587,-3.9308097590142186,-4.798605448744954,-9.657632766847115,-15.37882991304077,-15.754308360425972,-8.205593883294016,-0.7445943018442485,-1.3558176541225606,-6.277805730730737,-10.29232136217481,-13.360531233576559,-13.141984899244623,-9.885336528894253,-10.960231206320383,-15.935059181110685,-16.600295716402137,-14.496900508358879,-11.812719064656838,-0.1893256910698451,17.820651397919818,26.916479375110505,23.83647923823596,14.354174414281603,5.584343635468681,4.239154022734675,-3.3869984569889695,-28.2883606672889,-42.48086337131538,-33.87757399752758,-30.11019905573888,-30.954939095430856,-27.30303075647214,-37.393598577597686,-42.12796068198118,-9.365916511859378,47.26483753691197,125.75899414049341,180.21325722090913,87.16047879047538,-95.27728170213996,-136.42769362808787,-42.16025763915429,-7.475135290921344,-33.82565044435013,-24.47110831573169,-9.293569189832528,-16.536492561999168,-10.08127826565911,2.0623915815906955,-2.9822321642601786,-8.793734217998958,-7.2587155819944895,-7.9041004369758845,-9.497610095579883,-8.842872334710748,-10.528962258177872,-15.113023224738841,-15.446282933753322,-10.813166062326331,-7.074548551767786,-1.1099899279772596,8.565331336620032,14.66263115641432,25.6530282781611,50.49307878461438,65.85373123129597,56.304025443000356,43.360997284720405,35.86754484099963,19.702626187245176,-0.46030318991212815,-13.452416645815685,-26.014433544207982,-40.15788318179085,-48.07574171142111,-48.7901274402941,-42.150416907691486,-30.225950992675738,-22.799039548309295,-19.295263174212508,-12.510762436643253,-7.731298593533413,-5.761712174516626,1.0424372909328259,3.9578940492730776,-3.8954261149472416,-5.6351625795030404,4.976943355183417,11.945525790520442,11.678218100112108,11.820067815050415,8.41512177391855,-1.5319571153788152,-5.856650281877706,2.6775007253182332,7.423956204267589,-7.525373397686147,-24.790386164673297,-22.198531337928394,-12.71516143575672,-12.427771540245256,-10.46366197367911,-2.818526667422951,-1.7657028877555767,-6.36963846020317,-9.585787938313501,-13.556715834761501,-15.378142709011467,-11.536139880245926,-13.648165152916565,-24.539447595195696,-23.066718347147997,-5.237192011953699,5.146392268700474,7.68193218393189,19.62511800326694,27.201390506821284,17.204501113163108,7.905440782838868,2.7677634667822746,-8.205978652279153,-13.895642188404722,-13.390920812246595,-18.45000324338239,-20.996333963237326,-20.56922726276157,-23.996345811167338,-19.549820976558532,-16.179021955878458,-25.25175760720904,-17.832050041235615,7.099138827730275,42.488814139821784,125.23563757291788,176.19298066067304,50.93978875310384,-125.85740424565708,-123.4221915869513,-24.21384851664373,-9.869611766536263,-30.364344928978234,-13.9975862968046,-9.30803414976652,-17.57517497461232,-5.551415966816147,1.3197323686227431,-6.927987807825856,-7.138076427142013,-4.999662950582359,-8.941500815849931,-8.845534096279437,-8.387361848299754,-11.893012576728754,-9.551338622334045,-6.120089646000054,-10.71923051279977,-10.560272539003783,-0.5464180882203045,6.185953785334488,12.5527529242168,27.10960923377457,40.706450523682975,50.46454606140526,64.16006302340853,74.31671261358582,63.95332211584582,29.65591956809011,-10.242391235295926,-32.32430106580843,-39.30102225028679,-48.340120767368134,-54.1177020942122,-46.24101341628719,-35.35129730758696,-29.21514553094795,-22.032681344822898,-13.443821342190631,-6.647188032187948,-1.0687086613859265,1.1238130492663547,-1.339233765795786,-2.6574660296185453,-0.5966342134487839,-2.481898553289483,-9.940369593545224,-11.917458295658662,-4.346410983232698,1.8029162692268486,0.5000422173253334,-3.229249427124632,-5.82438969874276,-4.971043402191702,1.749014438568759,9.543676382411727,11.170861178873555,5.241800755185395,-6.174169834573895,-17.021284201856247,-18.889809053250058,-13.975913304074961,-13.83565071109,-19.872793011990865,-22.411947255060376,-19.726610695307343,-19.6113021461465,-23.061222295865207,-20.570674323140146,-5.284596622083349,14.999965849016135,24.452903315017707,21.172411691054037,15.57212495987968,4.8309450640909475,-15.105900525987888,-24.086409975989444,-13.611435591640433,-9.174454087051672,-18.30119790633212,-24.22705584572968,-29.63164871879927,-36.149871847784965,-33.26968844189054,-30.828345579777853,-29.420940184976093,-11.886167859339375,17.37875568324465,73.98137092719749,156.93233388694517,143.52748915226903,-17.698021106866673,-132.70191749928998,-80.95594180289382,-12.505624363587387,-24.37059266185019,-32.822104077757295,-11.313986764144495,-7.866352003625636,-11.89221729870313,-5.413092813043573,-5.800928110151521,-4.1326983451659505,11.873024319988062,11.796133960796414,-16.75215590286202,-35.491995188448506,-26.20193362628109,-16.850507312124666,-22.876035501580795,-26.776630457008597,-19.04811290596883,-13.268713912777253,-12.931845521489324,-2.184061542038383,15.741499283318314,23.12282229600895,33.215494414725235,60.01083521602091,76.06466967149119,64.70581044257587,45.92709639554472,28.29606036768974,4.876464154591028,-23.135053740097838,-46.23193184289829,-49.19645601229522,-37.83368206818657,-40.02557828618005,-48.043905224030446,-34.425537794034284,-14.139503536421483,-7.677662559115213,-6.124062381523412,-8.231069450347444,-14.113787636256344,-10.551744577785072,-4.420351836677149,-10.742716210724197,-16.824004045650433,-8.37701245207408,1.03115603104359,-4.999014227217742,-15.975784361553579,-14.497513075985093,-6.785897573027878,-1.725517808987627,2.4133961866134204,-4.132618168236432,-16.020343506437424,-4.924428834136313,12.785685962602754,1.5849618769354912,-13.925850296498092,-8.54063703969198,-6.399613135706446,-12.220930531017645,-10.645751168792282,-11.40297313960749,-16.07081867908582,-11.298358138479147,-1.5193516594291037,7.082945881878517,13.11847469490974,10.260238699301144,4.118342324830903,-0.14354468757726835,-9.916162528113059,-17.08223820854772,-14.527227438066934,-17.244874386759435,-23.642000554722166,-24.086833091044742,-28.824442425176542,-29.279589931388816,-14.789003183775897,-13.468446260400885,-25.022564935555305,-6.4531981038081,52.92626314421189,133.06570358589642,170.21924828074782,71.51540923746799,-97.68650239253506,-141.8780775307266,-58.265316590253406,-9.3553174293389,-18.377995837660368,-14.046580852327526,-3.2894154136606133,-5.58374490822456,-9.621955923194175,-17.940975562454803,-23.707004288519713,-18.66850206414353,-19.513468073897833,-23.73567264804226,-15.767750548406639,-8.647623917808437,-10.482623899974458,-12.275684666788697,-16.811838822788758,-17.51440575316458,-1.6711446094321163,9.574461737296788,0.21173911210053342,-1.5032602071250247,18.283973824210037,33.6846910378333,37.51186408042869,48.3200561254187,60.54496825024533,52.958823045033135,31.148097296399563,11.624015618742456,-7.27780366496908,-24.712566492234195,-31.2290773929115,-33.24385997502005,-36.50627072459981,-29.690360106545512,-15.749206876985088,-9.857699867699948,-8.515724853288074,-7.320192220213713,-12.9952794740407,-18.56062375420572,-13.510652000448221,-6.729362749329216,-8.603162224299655,-15.230549183527502,-17.921969467196583,-13.659276350802887,-7.891884249693367,-5.5376510684174765,-4.992121665312595,-5.271467911191856,-5.15650596814562,-2.68672201885728,-1.461471166654885,-1.6194321152207465,0.15787858639245833,-2.1240707683042857,-7.652717792047875,-3.862168456533965,4.642862781943917,4.080181373787168,-2.378172821441698,-6.071481421007902,-1.9149942172915484,8.615174588347791,9.694610369153363,-0.48329217773731425,2.0809475261391737,18.410490113059964,18.757561877871325,-4.853913121650409,-26.85051995386345,-28.61541523033908,-23.161170910930455,-26.576633110844654,-29.580670781007708,-26.744292458919695,-26.698644952110314,-24.96463790642793,-25.069525433679537,-34.40737443593902,-26.843300807588534,6.21677966451513,54.295220068833665,135.57431570688914,176.70098191776512,50.548020794433576,-123.48896505253688,-121.18735281526543,-22.008511182639314,-10.451600217118234,-34.16680644002548,-13.33282917157306,-3.5360640006920185,-16.068636112241386,-9.063557406296775,3.074373005106298,3.5847511876424365,3.823521498897683,0.42432893128455706,-6.1233042558959365,-5.810704634986234,-8.38878390124987,-19.735472354456107,-22.737343601828947,-14.065362925319246,-10.345740699873442,-10.43542254400787,-0.9873911094213272,11.84749259181908,18.335286722179355,24.948046742314794,34.02218526258175,41.75013391145643,52.265434205860544,59.22364025202121,45.38847698985255,17.104339463050206,-4.550389697602116,-18.560866349743584,-32.12760350351199,-39.554770911048735,-36.66285469289244,-30.886587820500786,-27.521322048317305,-23.090033668161723,-15.014385527910424,-6.556733770669348,-1.0462047918542385,-0.5529366307390458,-4.737119282413503,-2.9779333549390516,12.117047538212166,21.985277341870248,7.899859772247147,-13.22342120341213,-18.080211804384703,-12.499384985855833,-7.533758151643546,-1.1468531022906987,1.6661080630004665,-8.324452761010363,-21.99261004438513,-23.65233175953532,-15.165607260749747,-8.96041012952293,-9.702006474261527,-12.609129927644197,-12.521094946931575,-9.915843593604958,-7.19394419491843,-4.626608694482751,-4.526804501556597,-8.528157430056105,-11.411074961789376,-11.21581934035378,-12.722056679935164,-14.043153427771198,-11.310586476579502,-6.955896317312907,3.1792180589569723,22.33501476868215,34.08400431185063,26.16510446486187,10.04834982126592,-3.279557329728539,-12.895893710546705,-19.221925704332193,-25.895323472755184,-30.074693049555357,-26.530499119149567,-26.127439739142574,-30.894395531811252,-28.49775866999407,-26.676447507386687,-27.537386956164305,-15.513387041099943,11.10012800507192,77.81283176930917,177.64914606941494,163.3929419757952,-18.01990753530468,-141.69438623776622,-82.70837595105935,-14.646163312647488,-27.694174192519824,-24.88582583090169,0.2124462762091781,-7.658151252254978,-17.642056858636067,-7.25429880975727,-2.793914304880559,-0.9314558201173853,8.103825026595809,7.386861947095622,-3.542759743651633,-6.442938730809052,-2.9984071481469305,-6.08433213205317,-11.43423637014925,-12.369077106150455,-17.62605650575426,-25.98570501806782,-19.231188777872095,1.8390678859065774,17.799369836338,26.49644849241584,38.57946298559609,51.51546696921075,58.59240640641185,62.196669570685245,54.932352803986106,21.627426302973866,-21.724549120441424,-41.63125722190762,-40.765281117250886,-40.982389576719115,-41.277431851608746,-35.433898638913305,-27.482385545307253,-19.123941166054017,-12.021154776793464,-8.855313826429558,-10.06305526517102,-15.526644123645813,-16.88745614972956,-8.42054184122697,-2.3640501592882934,-2.5628043743187234,0.9190617331687498,1.2875936443202907,-7.1572492780397,-9.044964300738332,-3.210374584843523,-4.370534451560966,-9.273244728586695,-10.287941058833587,-11.659620781102833,-9.841529539526098,0.9488549189587516,8.832334599636262,3.2594799475967626,-5.48827824590715,-5.641420342509118,-2.0663679951025475,-3.032661514614544,-6.027898794708966,-6.9086442544536855,-8.585154618752814,-12.151376169779127,-13.235191461322449,-12.104549091935574,-14.287549086815934,-18.52364922964279,-16.051352876802593,-3.526109534829666,14.300885107725003,30.114493001880614,33.496058162383264,21.60918893706465,8.524676975592415,2.0304245700429497,-5.336908940493003,-13.417609249318659,-18.755243949631154,-24.56208367784737,-29.697052497347954,-35.411990032074016,-40.716845056977846,-36.02125404824975,-33.99829482752533,-44.13990536491637,-35.85435269170853,2.276192367523759,65.29035282920417,153.5181932263691,167.27034272858296,16.07627188261764,-134.4859000120183,-102.62758506937074,-11.646891176053497,-10.447677723040414,-26.444244545265022,-5.138198366811505,-0.05767327585528648,-7.7563063433171955,4.890509380055084,14.640441001440985,1.2439044470902232,-18.899165248959655,-27.72959733206335,-24.288935778091712,-21.689458812703542,-24.47084645982384,-23.807214726052273,-22.858576758562265,-28.308226139916925,-29.266166970033908,-18.49188821802271,-6.193279782150944,0.9918067594246316,8.471898908554818,20.771739550794802,35.64043822548911,50.448041465701635,61.63522486574006,59.259915661512444,42.58027845082526,27.035609609197934,14.100989680737491,-8.161347924845884,-29.51199677572053,-35.05720818266755,-35.41407846377171,-38.32733736870109,-35.18998786739246,-29.056944480698704,-30.500523544090914,-33.26571644983697,-23.94217011621703,-7.090836316012133,-1.487800723327009,-8.851392264267758,-10.572005007506192,-2.3111803929760413,2.4822802334825553,-0.7376830330804971,-7.9834318585967665,-14.308091530634517,-12.029439335189029,-3.071217376400588,1.1802463271120338,-0.8461094658705548,-4.0603587769739065,-7.868844462859975,-10.673238886697854,-10.986408929622659,-13.761449583201628,-21.359627261715183,-24.592819671991023,-14.116815100336403,1.4922287316928013,1.90275557582709,-14.411450248747961,-22.9694424063521,-13.229040297377498,-7.5114214434627105,-10.998964367262364,3.0593561734285997,24.44705662083898,14.411632709904989,-7.2121474091693525,-2.2830817079414336,5.932414719800094,-3.4834038563059018,-10.057642756822016,-12.858639375030322,-21.731203283619337,-28.478375086958494,-30.495314512808733,-24.379198982373882,-15.644208603712169,-23.371236276089153,-23.350731394836075,5.9813667521479665,34.79369873461964,84.71377891205223,154.71829012372936,100.73559966198444,-81.49734422009529,-153.80402180712326,-64.46667218691114,-5.193795076302962,-18.71970890222785,-17.270484586377606,-8.0053386070778,-13.831163657145439,-9.685530106634245,0.5530832033905924,1.2880146786164168,-1.985506955958284,-6.070712786828039,-10.369005869015432,-13.007105210276647,-9.692922593770652,2.8754322304942264,6.589316248384417,-11.409863516326746,-25.064074346001544,-15.8218493011819,-1.502038509603667,5.319786320169342,9.87883324147001,16.620502192168935,27.711277302599115,41.07956930835145,53.66891490595601,63.105464952172014,54.001160849310864,19.713062472039717,-12.26165507950061,-25.572947563981273,-36.38493145550959,-44.3726886524389,-39.5298845729928,-36.61302559167885,-37.41038104431121,-24.649187723576944,-10.144257679082198,-10.226721937422607,-13.186686165989805,-15.801487634157914,-20.79731224812304,-13.76466390725431,-0.09017891149625434,-1.9368428720905477,-10.341134172402462,-8.800096528031947,-4.57230555191418,-1.7901151379944338,2.273331819873359,3.0680928505404133,2.5829268545671358,4.408447968659743,-0.3833706942188524,-10.114310980616045,-5.037282279839346,13.100327393440562,13.556360238171676,-10.266884609768615,-26.2777229933877,-21.051944245708878,-15.145155690270714,-15.793733692962787,-14.387155296559758,-13.460096631347811,-14.806317280076449,-14.227757418692399,-14.071567798247575,-13.368520536250577,-6.098637969168304,5.8803509977428305,17.821681826047794,25.41310287798167,21.38940814779104,5.627492383260636,-9.413699145812945,-13.307860203931128,-12.421562886658124,-16.48534839799966,-19.06384925490251,-16.175530010635384,-16.2923298952051,-18.72374661914573,-23.32768140015176,-31.00126386654352,-22.88478508947099,7.188894583510393,59.20276969774163,141.3156680380696,164.0257384122431,26.013192863640185,-126.71559479336193,-102.79667708488893,-15.178538090864503,-20.938575972810312,-40.89316554476375,-13.939016714171059,-6.1877089706522135,-15.977468381006032,-6.815090049518055,-3.2739641420305805,-8.776710305844832,-2.667218366919216,2.0631902270389664,-2.2856518995657398,-6.741950849557245,-12.030489389648828,-12.045247533005641,-3.818312752098925,-4.655124804851496,-15.752558277749179,-18.62566238763846,-12.170252837410711,-2.357201724155642,14.991427165853096,34.01024982767155,42.81107991835314,45.89931236885139,50.56532242544151,51.61407604821427,42.76306180923375,22.699651852736995,-2.9950361898869255,-20.806313212874898,-27.172569429760827,-30.68130287948691,-29.449642116607002,-20.57372528698541,-15.522024190623423,-15.50986838159336,-10.605299444492882,-5.019001480282178,-2.0516739655779688,1.1753941572553295,-7.0962297287108065,-25.547350774021144,-28.160376957700045,-16.724247598191205,-13.380922567605193,-11.30226729341535,-3.769224024838687,-5.787554561375609,-10.965101733312348,-1.9175419942634395,7.845190783191887,4.10977166855727,-0.5571063534257323,-0.38789734541695253,-4.477736046531211,-9.339577382113413,-6.29487848647001,-2.1492133356509537,-5.923638532764427,-11.736014135332777,-9.38179556408675,-0.7020213787276361,5.440786443658787,7.613185697759316,6.048495197062868,-6.190375407130393,-23.95657173506261,-26.45137653168299,-15.07859440095727,-14.001203772952374,-23.54331439639028,-24.099692688867986,-14.141434647730513,0.4600565636181182,18.969112173679527,27.149612729000047,16.386452283869897,6.386526425902664,5.449493393302645,-1.8268661082400257,-12.281307567410536,-14.222664294777271,-16.258530747582334,-21.936983053980676,-23.99461971818561,-24.28714872096157,-24.55063859587146,-28.03722800529306,-36.222943700639654,-30.277880372433934,-2.8444250071687556,45.45363155452907,132.18284076113528,184.9260353651487,72.319788256149,-111.65704209995671,-133.63870131802275,-29.926615843507197,1.4597278782074632,-27.185115282087036,-17.770941542892082,-1.8132997574310927,-7.183129608398769,-1.0089371228990571,8.253838102196733,5.118927588636558,4.495690718941342,1.4028432043222838,-6.326561660041762,-3.025015089001652,-5.020442573545747,-26.667330858277815,-39.073641569997825,-31.474609666226158,-24.254408517717955,-18.153845902703925,-7.735053201986812,1.0117714776081568,8.837239216174215,16.88645217476291,28.482656841437738,49.42220488361291,62.881765672719474,57.75724476978701,52.74729598563323,45.339626652028066,20.26938039211366,-1.8748294391990075,-8.403295237641412,-17.858469648993264,-32.62471266253123,-44.85258502522733,-54.961289889431406,-54.92360595932283,-43.77473127302308,-34.72535452773349,-28.54103006378635,-19.761186544989172,-10.70807143743723,-4.474036665442142,-4.332913021068915,-7.242752150813423,-5.002004168187504,-2.024041841420214,-4.029125194593195,-4.950873629704148,-3.629164611029365,-1.4014635525182726,5.004863823205561,7.037133787573701,-4.106785213003068,-14.85389053385212,-13.589732447538067,-10.821126807990442,-13.05448790532383,-11.204036893775887,-4.8685381889109465,-4.615323205075111,-9.186290216408803,-9.576810084951763,-6.83830536711819,-5.354974366491293,-5.279349025300185,-7.967701043579956,-13.264560901269734,-17.273608060684165,-18.768952355669484,-19.566045612793914,-17.674228247206454,-4.6225091065495745,18.6355128793647,30.962720853171188,24.136301767825415,16.84482861124344,9.804587625040043,-8.940025204270025,-19.050395939709354,-8.090206089548927,-2.701420251088779,-9.634480324317027,-15.39935563101595,-28.21635698764845,-44.5985549142261,-48.568631780891586,-47.44794547144156,-36.83961529888028,-5.7754381727994435,35.49795419201437,101.23617476422305,159.68342533028235,85.44134331825612,-87.3247632067404,-135.25142342507715,-41.34004277072138,4.945534163835115,-15.416766766741995,-10.762202824636919,-6.973759150860474,-28.25868824765682,-28.86400559294912,-13.740497502689895,-11.591272095081383,-10.57034626162761,-8.675918986655766,-15.633982807004951,-20.69666543537996,-17.911644347385653,-13.123321069364472,-9.041037915031957,-12.232209520091901,-22.222481096900598,-21.434253521557924,-5.482686901196574,7.881625445438416,11.778345377039182,16.783503739679233,29.116567598190088,45.69837327006054,59.05036802722438,61.578453622941666,52.377907607729625,34.194053763234585,9.693540964881935,-14.62846624305321,-33.447907650903744,-44.80121358807043,-45.410940426221444,-40.468749000637715,-40.77434399971153,-41.044750409811684,-32.26793951484184,-22.863148592360645,-19.0342711505742,-15.364666522024216,-12.999495325335204,-12.35538100093125,-5.2446584695008305,2.8981471418416653,-2.0337530550394263,-11.674788847179354,-8.58187838323413,1.2160319191115327,3.355841468862099,1.4959897384380039,2.8232705861637086,1.8470912303043647,-4.313855749625695,-7.95216013032066,-5.936941632420503,-4.392223274800719,-7.243357077799445,-9.810056241092493,-6.481678484140799,-2.123745672513797,-1.6042914964323334,2.7954544769274374,6.992706943467304,-7.416439419908542,-26.509313609269565,-17.504599314010143,9.604020547881436,22.8358051713104,17.411522782789643,-0.5599468551357987,-22.898784216344854,-28.423947816170973,-16.40280715921449,-14.218981565268571,-24.47341876540627,-27.82858642054238,-28.64291110881436,-31.892790106409258,-25.526713632620087,-18.662841037598408,-19.459437996409747,-7.019394673238219,23.332643926769013,75.87329090272442,151.00294693867679,143.91664492809855,-17.99471470455113,-156.4447137354349,-108.70898681512902,-13.869322406411918,-12.218343282246074,-23.198019457859367,0.25799758987172083,-0.8450913573035912,-13.335340782950068,1.49524561837868,12.172054601635672,1.341520714972816,-6.715004586184329,-8.814288688285993,-14.042963916948775,-18.261831604461506,-19.19790574988425,-19.025466421185303,-18.63137432859885,-18.815574235033537,-16.822795094066837,-10.452207800784723,-1.9366742882597023,9.354458803300425,22.962704692850533,33.56604356779973,43.46162607941207,57.16833122185159,65.80070527125851,61.92485242364814,51.89502234891218,36.21799117133956,6.8740551551426305,-26.609175749036616,-41.65004274636497,-38.880236934256494,-39.49323497398359,-46.05891098726772,-44.58057363704208,-35.73644820778202,-27.20455985001559,-18.584801245777804,-13.64714277918317,-14.35750970093964,-9.98043633916377,0.8048425496336193,6.036889173505708,4.886976542994537,2.7051504628290743,-2.1628151683457837,-5.397391398161883,1.019368663391024,6.979375383146429,-3.834269284564087,-20.541373561495142,-19.066268272508633,-7.012593259142015,-8.19706585488604,-13.6483122275898,-5.8743568555720245,-0.5366967548645896,-7.677547908601607,-7.645055408140941,-0.3680253292518696,-6.058871576799769,-15.973611653609165,-12.729431634903197,-8.835845419421911,-14.28677958706242,-14.468385390387434,-5.863538907752773,-4.429169504078816,-12.285151441198542,-15.203997217699701,-9.1411372757841,-0.5348509513361099,10.354700293922356,22.606892345896107,24.745671019401534,12.292801219906114,-1.2716242704685792,-6.360866888182599,-11.062751763048183,-19.93630539035364,-23.518425265271155,-22.858773103659196,-26.22318713545137,-23.085166129480513,-15.656873380386273,-25.642168261228633,-31.293839856088425,-6.488700114434513,27.591620976537577,91.4036017760328,180.98357021779367,140.92853349026518,-56.568563796579454,-156.13911408707932,-66.54863720874424,-0.05216035783435835,-25.359135148967304,-23.844708879234076,0.74785708062252,-6.490021815131843,-9.777271821207286,1.9050166050139659,0.9340214408346039,-0.28128566062899196,1.7991515555595892,-9.844198784280074,-17.934723803515606,-8.51636718082986,-1.8766510011767754,-4.2242304138724,-8.767151466618662,-20.617507754301606,-29.373889693876997,-20.834144273605297,-8.871126092278633,3.3915622540777317,28.04228862115783,48.05085538173288,52.97917499100021,60.911432798794465,62.329459173600696,43.02301326210026,28.23158536078027,20.52893933565282,-5.898220436870156,-32.54442539342441,-35.26059038481705,-37.948891444799294,-47.731329919181114,-40.71889880435013,-28.81362226101395,-32.03186744060637,-30.05548784542162,-17.37295162707792,-17.569285768299736,-20.926659882353114,-7.766814711542054,1.4068939949170645,-6.518521953329568,-10.696534625284006,-3.002397635176255,5.170282706222785,6.25966974733193,-0.8133173474548734,-7.507685869043707,-8.963058131520107,-12.59550417854814,-10.07437579782095,7.995715683970903,16.720745866769224,4.356907573483285,-1.1582502169285158,4.309739706322053,-0.8379220253781696,-8.522735408222587,-3.965907097437799,0.9445230461743259,-1.0178153499616984,-1.8563331535779772,-2.0680938141210845,-7.204290787385525,-13.52048674590951,-13.743251341689247,-9.547086461657107,-9.361807041603203,-13.636486204442484,-14.886967842052098,-8.791046798669587,6.126553037202431,24.347150642694373,31.25883317106863,22.765512191343884,9.559195701368129,0.5015613208416516,-2.7525386490647032,-7.882339851969897,-20.318528570362133,-29.428377398921732,-33.19795048438378,-38.79984963698048,-36.76329834374439,-31.320975567767565,-33.50418458397031,-18.136484084876994,15.8648085332585,52.41295497852987,131.89444512210557,200.39793417639265,95.92903727487523,-101.10940175253324,-136.6903842183157,-46.44461827207186,-25.889314990992744,-44.097877165440536,-18.348901181097936,-7.420899512730077,-27.460294751044444,-25.81512551539393,-11.915178781460147,-8.15778033454702,-5.308145767583886,-7.840594511904829,-15.21100900329912,-14.35970124906331,-12.325790211975336,-12.773022516176253,-7.928084227231828,-10.106324138059612,-24.26569444019747,-25.06837752544088,-6.733824349574425,7.871594173490179,15.96328866623172,29.699514972295667,45.11878512565892,56.51542421398796,65.11118393584627,64.89155174432264,51.93548496913454,31.867663978932384,6.79390917958326,-20.35847662231432,-39.761406106963534,-48.5717195408659,-50.79940487924279,-47.486326987434495,-41.13998934743715,-34.6475891056414,-25.99882955386906,-15.956608567480238,-11.59182002486304,-16.297042063507696,-20.990207516335992,-14.658180866279015,-4.242826594299229,-1.1863563413441263,-0.7498396992743928,-3.4183470674233263,-13.127072786882174,-8.175325387556107,17.026600618171596,22.982452176955537,-0.5457914058252626,-15.252908011383148,-10.979366889881877,-9.658965914022861,-12.136071871721292,-7.726358730208318,-2.8794751910303713,-4.771100177521818,-5.139526727467146,-2.826443727861051,-10.691211078160235,-19.870880150473944,-10.307882996792468,-0.3809132148384897,-12.761730414151398,-24.30233422570916,-16.515956142746095,-9.839128947121146,-13.709473234963053,-12.411793376733046,-0.22633270449273635,18.576348090082913,41.43022456102449,48.96160296012597,18.78677785776923,-21.46245100479237,-24.854932892730798,-6.737761707929421,-6.004602238662956,-13.839719150485154,-20.771380196825568,-43.03330280632862,-64.50028547782887,-52.405136187083826,-26.201242616722517,-26.19323413965293,-34.84545519153207,-12.365256927143431,28.891911527827375,82.33912446387531,157.30784191158227,153.28613189585852,-9.039173261890205,-153.20735963385553,-109.81416056081049,-12.797797321113975,-7.540858770019881,-26.15531741191789,-18.265276931307863,-21.51343344786408,-23.121953994336394,-6.134356026581299,-1.7192863893975794,-10.885745711817874,-8.734210647377132,-4.001486371294728,-12.790998180724635,-19.778248207342997,-10.03238569069373,-5.350451180136556,-22.482537616516588,-29.110015340284765,-3.9361285915758915,16.427472003978664,10.851036215332584,8.375153416779778,18.198167208102703,22.726624051013665,28.872195332924335,43.34964524958586,48.150984653500174,43.425583974175616,41.23603225898279,26.12120750231736,-8.500992346303851,-35.0224360383485,-40.32303931131586,-38.663121117633054,-40.78453932151523,-47.29770018355144,-46.72363254450817,-29.8066111154004,-16.906905290400175,-23.071488481215315,-25.33142892935101,-13.713052723722893,-7.609695511473619,-6.75406182020642,1.8081615631118666,11.958955958228575,13.652276413755562,5.824202274498401,-3.605263135271654,-3.2618819940425396,-0.5064831130982128,-7.022202717134434,-10.843000460268101,-7.251958861059563,-9.149243933168389,-10.452044251441103,-4.050431049479993,-4.557497556347485,-12.313850047113952,-12.304360924385962,-5.241444364703682,0.19483000485925572,-3.0751728287302313,-15.446092140836992,-20.97898242496406,-12.971007421293258,-3.106093498371574,9.44280544321845,24.119199894867016,23.277446115991292,10.794699795806368,4.185986374725786,-3.0865629265875327,-14.196771643512289,-17.071422250625062,-15.282815127414482,-16.300704954728197,-18.417188440150866,-21.976809576303005,-21.79614057304442,-19.75847564285606,-25.7682101917909,-21.23561532305186,8.954020547288579,56.27281474308573,130.47840941402666,175.04540269222684,66.1081949600748,-120.03505189178517,-152.5594442670319,-47.60550479693141,-0.24891699238105502,-15.642798102705584,-3.813335008772217,5.361453846940947,-13.460179896312601,-14.039577196974108,3.3551835219594377,4.4413856312431585,-4.200414875153434,-8.000189136013649,-11.801260443570204,-15.328478712063081,-15.570446170238188,-17.26964732709398,-20.5370658128024,-21.98808647728073,-23.99514741163599,-24.396444600505518,-14.057730456329548,7.126042749843611,27.46510465486329,37.0373472195333,39.90680372891133,49.65258389034805,65.81084553100354,69.52147791128014,53.36989942212399,34.60328546878063,26.84367955475637,14.495567351687164,-19.70963221734616,-50.292950951011704,-45.1348691207202,-29.28480005839685,-36.01699519481947,-44.19656355433761,-39.92799956384155,-46.31807527087847,-50.0890033404564,-22.279149614679948,3.0805027214331595,-6.907235257010292,-15.913870985852409,-3.4613808242638484,-1.7999001527022713,-10.930874925576159,-2.7118906244682,7.812004046193259,-1.9114026312613124,-10.473126143394776,0.47628465760022287,10.794804367584177,2.245585813273193,-11.229339300407888,-9.783838398757783,0.9850726167040174,5.700067883876557,6.108815363579343,7.954731417009617,7.023624008560388,1.6293282232686916,-5.728559346370702,-12.2014117403784,-12.587225794844453,-10.919600008828624,-17.922055374182378,-27.75159464567193,-25.72221549358143,-11.95332184843433,4.342599571524669,16.99798416400606,21.660302027763038,15.864155093244309,1.994264241553589,-10.865752975525815,-14.261178767616599,-14.054464385707666,-19.158138536452462,-23.176343334725996,-23.205540620110085,-26.868494551837454,-27.59479870508929,-21.334731801485283,-20.68372546279159,-19.644961168055538,-5.909538293017164,29.069206512476388,113.72750422107853,187.49697837829638,96.14335207213571,-100.62875053564386,-146.6307452355402,-41.161722250281656,1.4480524445859206,-27.161748037695943,-17.778132871534595,2.1074000792126206,-2.1806615860482594,4.126167906810867,12.260630536013405,1.612667757437654,-7.142871266364587,-7.564136240976254,-6.405260485884159,1.5645964327078374,5.142709547382423,-11.67260057449928,-31.756133904833423,-31.58656818555777,-20.241686802823356,-15.429424593116138,-13.640511935793658,-8.659079391401278,-1.7449651565392643,10.884741495582226,28.552368371388003,45.57645346210903,60.80253034627934,59.65920030869834,32.887252070310865,11.39577131797392,11.772674437101447,3.4087052272703255,-19.60962606775582,-28.89590983024067,-24.38196710053393,-22.06053769545373,-22.037327883289983,-24.755001490576,-30.293859441838812,-32.36164019092831,-32.50170441950819,-33.13439107976352,-30.41891892060292,-26.92332324394243,-24.94821958484794,-17.19264458923162,-3.3028782315988963,4.134857319020867,-1.1890298501833811,-8.762234656380357,-6.472817033083064,1.1223028242545077,2.1793656422430807,-2.2622472963112017,-4.294143473515092,-3.1521336432702327,-1.794598150421752,-3.379470225330399,-8.271508271436192,-7.678495115234885,1.8455770501312072,6.254376562840351,-0.7670514332764551,-7.419030156872342,-9.951276399231661,-10.843597665081935,-4.036321074768286,4.010130891318636,-3.419816121153545,-16.478203040376627,-14.562958371507108,-6.376321277176324,-6.445827725128714,-2.2719261024637194,15.859248156876232,28.119127191415668,19.094828287043413,2.685768288364123,-6.537933852851596,-10.521153979559259,-13.266816460063225,-16.77093308835027,-20.552437824611328,-22.145180595502346,-23.298790005993936,-20.915802225855558,-16.53475585115854,-27.031565005014716,-38.11156161049583,-12.806974396880747,42.72377806277396,112.75845354866948,165.21212764162894,97.39051641960077,-77.63087022496637,-150.02938058020322,-64.6659398202536,-4.697517686417811,-21.62632457583514,-17.19530425082688,2.1975301552614788,-4.158656243859653,-7.200638025623251,-4.073693938143052,-11.998910239097302,-18.18340867054173,-23.135695293373843,-29.30202288645645,-23.011202940752646,-15.720311123113826,-21.320420138941294,-25.582755655869764,-24.323651258399387,-23.74909350554192,-17.094252651310242,-7.243793652390374,-4.8157774428007745,0.20768931922234923,19.090170956177573,38.69915741004082,46.68559194561986,54.78810250521505,69.2935298244551,68.71514988723035,43.70013473858833,16.32446514336296,-4.435415629835048,-26.940675732185998,-43.04673533252358,-47.088341636675764,-47.60683622315718,-41.35101329377527,-30.652511166008754,-31.25050171405505,-32.2468258829094,-17.815185822023697,-8.314223776369289,-15.411540305187515,-16.84048149085196,-7.651055929542377,-8.817500031561234,-18.60665110155921,-11.953476786734843,5.005703706948626,-0.4956891861395576,-15.919536965729604,-5.2707975903024895,7.433082897525731,-8.29116403804127,-19.445176017354065,-7.283147282194708,0.8169805123985938,-0.832178712278516,-2.055143019439896,-1.0032914847123386,6.804027045733664,6.618445008988567,-10.516061070899134,-12.855123105235545,0.23500797627142234,-4.587995277656027,-8.906472320043957,5.419169183499646,7.174202117211829,3.6484546708325167,21.08984274698787,23.511357545779504,-6.785915833843614,-23.036759068176885,-14.445121168855763,-17.94283989868284,-38.39920880401738,-50.29636630927132,-42.75017127395536,-28.648243574238712,-26.49012523945008,-29.960091433577595,-18.584769919554063,-0.09160903953300448,27.112307062435573,102.04634481271273,172.5006875147427,94.03869209188821,-90.93242390656118,-152.0827963769437,-60.937411599745374,-4.992433534036271,-21.20552681387386,-13.639787539796313,3.6255244780634825,-12.879877876724834,-23.174745856284755,-7.751266469066284,7.060389831983681,12.555678592090985,5.149402267082623,-8.52019861014967,-3.7585958911116073,4.503816181648105,-12.929932019628431,-24.944880379665143,-8.496628190268678,-9.633303012708291,-39.65013573651737,-39.087900685151304,2.0328274616313062,25.338202197680097,16.92199272102944,19.732082326562626,43.39547295001902,58.16337753390502,60.70122741507471,63.52494261231393,50.07129573362977,13.273668164714223,-15.16371838017788,-23.161045589222446,-30.649916872175815,-36.744480674245494,-31.753478312362635,-28.788551143753498,-31.666914593145965,-26.53690901330884,-20.961974090351394,-30.111602731496376,-35.47465711608697,-18.447615205601874,-1.8464877859171036,-0.3989034634052455,5.442151344553743,10.768320804371346,0.5395040824881825,1.2617983971760651,16.292705865303276,8.66928059794422,-6.981630893021119,-3.031107247911608,-9.411470223570806,-25.626989996371165,-15.060016813014233,-7.396256936549367,-30.72788552536702,-35.083437341841886,-6.160754657308608,-0.008831202657429316,-23.262553921559388,-23.95617800959553,4.9442102132685175,12.483920627415387,-18.366894327376592,-35.41356794533188,-8.344034250660993,21.31475498676081,25.190221059702978,21.683392613358222,12.17202811966119,-8.974949558197494,-18.534889414681295,-10.595003291063616,-6.189595600405595,-10.235335327529981,-21.203367343006345,-33.06416826441152,-27.398145757095318,-19.143219130214426,-28.573067592656535,-22.46321453691305,10.828790562342856,55.79768437773201,133.33520885310722,169.35231307490855,35.37596165843095,-139.16024805710356,-132.0967724333184,-31.853693708194253,-12.003014225126961,-22.791005380764986,-2.6800856119817418,7.431391817770384,1.96694120301321,-8.215534687312477,-21.74390808533175,-12.193040934844799,8.393220342188696,3.9867110389203586,-7.474318009634237,-10.467285810167127,-19.31198852304601,-18.272865733976886,-0.49626411406867543,-5.43070063262684,-31.419670523434153,-23.061217624745666,13.973213021418571,20.96428592338368,10.992644772634065,33.707839533345584,61.44544604648312,59.320868873189085,61.10239522625096,72.29271687200617,50.31149602193966,6.380417835454749,-16.99258801931401,-25.960843233630058,-40.875297498231845,-47.90225031800962,-31.925333781862072,-17.9282192761398,-35.5241009466733,-56.54228033412009,-41.196306467122554,-14.777673050439088,-10.130365819569072,-12.142405744145687,-9.921987648155044,-4.746453334998304,7.467354261658228,6.9567357148543785,-12.817904157338067,-16.145903530561203,-4.0965556901310265,-9.210713762028123,-13.649632740494361,4.787915092344564,19.133356556333247,11.817168632161716,-2.3661863578035316,-7.928773186800701,-1.3670964787900477,-2.279672845503013,-23.332621815184222,-31.055463008298155,-9.441559502508678,0.6725668680733481,-9.95005391931115,-6.80403187069594,0.21364118459902315,-12.435285922924288,-19.032093730573195,-9.391872118789031,-5.955750709434826,3.0968538834204864,23.298512748351886,20.883494261804856,6.774343107562451,12.999827925645244,9.973929856606793,-12.732515147000063,-12.287863626617911,-5.210787143491364,-33.08717742335877,-54.30547763692291,-33.42325606602524,-21.447729666361987,-38.220333305675474,-31.361624693411105,-2.5836635612919867,19.800165937192432,102.2353464658236,229.38545943313977,181.75925326529966,-65.5850195108458,-190.275373049587,-78.63726503499203,11.707856689480634,-19.732766519292067,-33.457241104379186,-12.151334998677612,-19.574395443547527,-24.711732293876704,-9.054129365842087,-4.637224304695367,-3.1199373142692766,9.831004849667524,12.448199886006316,-0.9493818903299811,-10.61390972637418,-12.27867570230659,-19.031921257062578,-33.7197346268503,-40.10049163472566,-26.10650520032315,-5.323096892958343,4.838681484569522,12.825579992617207,29.740726341974685,43.331207488044875,50.626190582929844,65.92329905379086,75.3837845811442,58.7835342651677,36.15076890414994,18.268096572877226,-14.071317148412213,-46.223750994542314,-50.69870050158774,-45.18468169324532,-46.76738052540961,-43.33302414016087,-36.02201431886979,-32.75466265638556,-25.185489242844273,-13.844310404165604,-10.874101612621889,-10.186515171161874,2.9219426163084137,14.591763520600669,1.246975294972085,-14.501609803553041,2.956291628889966,25.72526252644573,11.507887034564833,-14.664312897070014,-12.954546478463987,3.590085104964423,3.553966862858081,-12.447395733547111,-17.257268059704778,-8.017024622361866,-14.739645771503149,-26.5459463418572,-4.39618431180646,17.157083205514375,-8.346740032018435,-32.995303952005756,-19.632881581330217,-11.322423693628728,-16.806239150921233,-3.336241175118654,18.722190125447895,31.438656484930934,31.591352836494373,1.880900379932747,-33.157461796346404,-23.652807582267222,-8.506801973780888,-37.36686968728012,-51.41271575416549,-22.457256582085257,-21.600468697000938,-48.34153102306855,-43.417213367299,-29.7995805217314,-31.061879231861546,-11.913352208568014,46.372895461937645,148.8282238493008,216.9850007938382,93.81241152608116,-129.86973246144063,-165.37382685203463,-37.73134880989168,12.384317964190164,-10.563172747359143,-9.824306093628898,-22.46164377082694,-38.50540057504695,-13.66705710002367,-5.324925779041678,-31.78598898458107,-28.84176270253338,-3.9271223648742186,-6.135600077164483,-20.247940344759613,-21.03331922561098,-20.73806486819056,-21.883953211568368,-15.730343821830324,-12.975902883625679,-13.32420826874101,0.6358793417612869,13.956583059017152,8.487782956476057,14.809860852274156,49.36071196728839,73.8120643365126,67.68227465719102,54.58197283260505,48.36494996636676,33.95654324785904,-0.04581000437317684,-32.98958179039013,-40.55406745434591,-38.67496725936244,-47.71393831303819,-51.4511544989467,-38.91030877547728,-22.30557427857208,-9.499990960396865,-11.245807376508857,-26.694367316814315,-24.818873640433377,-6.87105552158452,-10.040168327040597,-17.58522358184895,5.9402706534983825,24.724593965456418,4.776880692387788,-16.496796176601308,-12.892129854981313,-6.672885765394451,-8.148976576644875,-10.380509818133646,-12.628992522677686,-8.780271007714358,-0.2823831665951424,-5.738243700395916,-22.074372122859014,-27.517970317259966,-25.784720227387307,-25.747473666441174,-13.02453534935952,11.069374467227405,22.804227478850457,20.8050512385293,16.85461075429663,7.857626358171929,-6.571723042937268,-19.804215747992277,-27.46402000706954,-22.070358153949268,-11.311241666320374,-13.191244829433423,-19.830877458645233,-27.375228430011237,-45.866535440069356,-48.23366233230935,-16.334598083254395,37.731448278885274,133.36217476131478,199.3545618991534,68.95163028594305,-159.38428317464198,-188.57973822871878,-50.680861164011525,2.221549207591007,-28.200153987920714,-26.48807374782509,-19.34639336525246,-23.719001039057108,-2.254128048485642,18.365353959496442,6.704353156701856,-11.503404483244523,-16.042600019960886,-17.414548139299452,-22.61516019992117,-15.941870114360633,5.925453945611904,6.497316765832478,-20.993869406560048,-25.279802123113463,-0.5871220526888852,0.41683420248395464,-18.994374744480986,-7.548426270398466,30.072567995395154,50.36646698494301,50.26317478208377,54.64986708193052,66.92743206990582,67.44079473132344,37.45603528443981,-13.745060194442257,-48.01374330142299,-49.60550726530475,-45.72142538308813,-49.46856841513099,-42.337678237448436,-25.6057397039449,-18.129094741931716,-17.505525814041086,-19.15446514263097,-26.72760358480652,-25.128217844689438,-7.9995468411039745,0.7803190687849568,-1.1076540758396618,1.5465512510385775,-2.7439293342909625,-10.477950886812677,1.6670994549601499,11.222963065639968,-2.9667888368916735,-8.50329747871325,-2.065613430620372,-11.793176330472477,-16.61706635652394,-2.0062620324119376,-1.9837370617694852,-14.544616608669953,-13.518996541757453,-11.951893079075035,-8.826416071358818,15.362046261868382,34.66368921661369,29.292241464575618,24.307052968389133,20.849551920709906,4.345718174929047,-12.635749509391694,-30.34768544606521,-51.88374312923334,-51.604701955082554,-35.993423404187766,-37.71126413279467,-42.90134848929459,-35.24874768527579,-31.704610876454602,-30.77063276006372,-18.450898109590074,36.557295495896554,162.22419017057842,225.01079104140297,57.42326125922773,-164.74802248513924,-153.27204862357556,-19.84498676484906,-4.274243357107004,-37.04266253540645,-13.582061058307524,-8.896537268374626,-28.811157442143347,-6.337096079439277,18.242323345444092,1.0435754648093614,-14.68292500288063,-8.871967837203933,-7.387423382524952,-15.12276840754964,-24.146214015802254,-31.866171282327567,-26.598542127901453,-11.071107803759489,-14.10352369190146,-29.870937029039673,-17.685047871683693,11.908276678720748,22.23837885649814,31.162086175870094,51.78441134717869,54.32019108146356,50.28104349268749,68.74343850312783,70.70075536897066,26.775778680989134,-12.453378447801281,-16.54177584292375,-21.579300479344177,-40.052230822808596,-46.089147094253505,-41.853087703482274,-40.881358468871916,-32.427881227339554,-21.525451021764926,-27.89686598188287,-34.03947585610896,-16.19296198822371,4.833525301541226,2.7860388886884877,-10.238407246696378,-8.330261819020688,7.023956653868455,10.181678270748353,-2.692402375505768,-4.937316901695995,9.440912729601264,14.091164467457732,1.4560912867569025,-0.8075716501930756,15.267844020372186,9.278491967880072,-31.0195177881236,-46.795411176238886,-17.013452764999194,-2.3944862793044557,-19.52833319601494,-18.26957151779719,5.260634282231061,16.123110957858305,16.60503070484811,17.376986736399257,4.869511161334987,-14.388605662063007,-13.573766188275723,-6.084073035298012,-21.29149181763649,-32.21372956045092,-11.58679360123891,-3.1921857684553707,-31.068940133139705,-42.55422786118412,-16.794803903040982,-5.557100157594135,-11.923770478556587,53.857498206245154,181.4266891926478,160.75794156678654,-68.2822989046133,-209.3995213260111,-104.40116910668758,0.5725958716399937,-28.255747739553133,-34.349608699480406,8.465639593668868,-2.0909968716125817,-26.374683081672682,-10.640147008691047,-0.7138726595077465,-3.725158549519911,3.4236874719264065,-2.2641672135299657,-18.301851420925026,-9.5473814680497,3.5275277711372865,-18.430217320659704,-46.50413618509008,-38.39619912956137,-15.987640244710647,-8.31230571040027,-0.9970372931394529,14.842550638939821,31.351082420669243,48.00505349215375,53.07454847760286,44.163000774246704,50.400680181198084,65.37118782491795,46.29421613039063,4.893571812408688,-17.174611515682,-26.764663631471585,-41.4630580933655,-46.121142804558076,-34.994333576276944,-29.35691649384929,-32.792296821017146,-22.362061738445636,-0.8414939422300289,2.925263587091921,-5.495358234071578,-6.454313669957873,-13.67779584782966,-23.22642980687128,-9.721024243013387,3.0725705787170696,-7.301137745297121,-9.398030124730962,-3.430615108771125,-17.62031820352276,-23.06998657388395,0.8750255688250963,12.998189305261215,1.73848235496156,-4.266479886352961,-2.110606803013802,4.104834567223673,9.202211838320718,-9.504228336118594,-37.52334076536943,-33.61629998276192,-10.908682619174208,2.945826501089744,21.062735940018435,32.850696965683085,4.644903763852458,-32.54026603139228,-27.166294586267995,-8.43074144734833,-22.3368447844738,-38.64266946755508,-28.21139948202377,-24.361263386282584,-36.987030976605766,-37.10017019148313,-25.758220949379336,-14.123915804111808,7.703282285431644,68.41298400717773,179.38630964316565,212.4526811964993,25.23982733369661,-196.41438608483185,-171.72048854259543,-27.148560304123848,-10.474407015849302,-44.441494815255595,-17.13048333008104,-6.083459551963365,-23.548118585166836,-10.672610181005998,-3.834161736763285,-23.044159786414816,-18.160510808396225,-1.8106961150996774,-16.359224588047468,-30.32444309909961,-13.210692131221123,-0.5200478939629569,-13.893789633835363,-24.91218503993241,-18.048498510139304,-9.258067988016034,-4.276615894794806,10.271832011303161,31.939389548308068,38.16739181835501,33.36605097188661,47.736035439723565,73.18699420673471,70.73923662013557,37.574486493254845,4.925906288496679,-10.577296913101325,-20.633883083925067,-32.75312467427059,-30.159867892649753,-22.36538069882271,-45.21010510316491,-67.9613950441782,-42.05203047201658,-14.553566713125242,-22.966626702230357,-17.75871830488137,0.3336051755971461,-18.3395951282843,-41.850112997234454,-23.13042978492709,6.179230560196375,8.522816915790791,-10.006123472860136,-25.548467631522055,-13.783112950989672,14.204695794731073,12.569850435793361,-18.089341279443754,-22.43852139155793,4.194535871149501,3.070504203171568,-27.76884245740844,-24.394034253251476,13.82770816578029,28.94787489717516,23.505446060400754,30.6345393070368,28.630510564957117,0.835496239963124,-19.769817567736094,-24.147098635409044,-32.98105526845497,-38.02115752717166,-32.507189773581445,-33.73059912304948,-34.77307807582469,-28.031047006926205,-33.36354586141155,-38.826775026703665,-17.761078072327813,34.598594863322745,136.76784613609848,215.93394265048073,103.97765195023528,-119.35480841354018,-164.0733910577087,-42.70919759206216,1.6357237144913341,-31.700366943454853,-20.707682835965713,0.7400002266894496,-6.535273908625747,-5.512639344603059,0.32004803049688135,-4.9693273246287575,-9.92999326552679,-19.566457641573383,-32.25904784224769,-30.124514285322018,-22.98814709932421,-24.748128255611167,-20.787790263420533,-5.069196711222613,1.197092324230388,-11.80389863278358,-18.17469414167558,5.466608837688808,34.46887045226752,37.52263160334948,38.420981743377546,63.2285735449833,78.47601154918145,58.65659718515133,34.431422442115704,23.046741177720442,3.9122890771361494,-26.023842618905498,-50.01421698829985,-62.23602279672502,-62.125434838266834,-52.12482933323794,-40.39675979875332,-27.396145552596586,-15.465003098809433,-17.28736742807149,-24.185667966960402,-12.95491260324284,2.6170587193441577,-3.4932501724568645,-12.004051911085703,-0.6515282756927796,7.2305753924040435,-3.2765353503921055,-8.527257755090345,-0.9984123623761878,0.296115075854674,-5.350100582216998,-4.748931665532668,-2.5114181325784273,-7.969604108607143,-12.368829113281219,-8.034765105080295,-6.379642779290646,-9.334566252845196,0.8007632513975627,17.810189301020447,17.876552080598753,15.302774112578621,28.243947344467696,24.216631048697387,-8.9794029131461,-23.925667190970202,-12.33811977043076,-15.413135171157624,-22.80290346217755,-5.367798621558869,0.5203325985650267,-33.711458833353525,-59.7155022575316,-39.81585300035986,-14.808372872322103,-14.926080209799505,31.946491031884868,163.84521111523327,208.99852823115395,28.9206285269708,-161.9136326566281,-123.73889859789453,-4.681840757764178,-8.215523349644489,-43.69304770138172,-15.00205752924697,2.3271678597714853,-14.634525296171784,-10.182265239513006,11.246549831609677,19.204275312247177,9.976491568750959,-10.162847848225955,-23.166756645055056,-19.187862102152756,-9.668769545623437,-3.9436081013561033,-12.321498933531016,-30.019085095763188,-21.672307250690015,9.619316294765504,18.23097696447155,10.007757520412419,15.873483723595704,22.271225296611284,24.764275885158668,40.09123187796023,50.96911984446585,44.36293399190581,35.661966201744626,17.01264564523565,-17.162315033861244,-37.35077788953493,-39.67561099256795,-45.21368326931928,-40.66452120952185,-17.954019867610338,-10.28377466852825,-23.903274657424255,-25.729002869920755,-11.554846913708616,2.2276627359735857,13.9289427817834,8.634282990774278,-20.346921706106706,-28.43262402444115,2.127034900951979,21.723000729816263,16.230778990541047,13.350660320947046,2.779501219750877,-13.119129193170801,2.427666906831,25.516961834519094,10.7572461737314,-13.27053993980663,-13.159199392826732,-4.525094656738558,0.3554828510296728,-4.760969292583219,-22.107361859898617,-24.750425686174324,-4.788314195238197,5.496151839961362,2.531026490579738,10.761098763579897,23.288138391097824,18.089592944785316,-0.4742903241672778,-9.87510975722434,-2.9027143489158274,-1.784364857307052,-16.260728264780404,-21.472582275032032,-19.288270886073754,-32.09540497168518,-31.859111350488405,-6.442399785659198,-8.250490417139563,-33.98314288142693,-24.78446338666197,26.65174549002502,111.09158939737654,176.19813257274018,89.8851461267387,-109.02367607256082,-173.60493279924088,-62.01711408647682,21.12416780930039,12.074507462635125,-2.4928125988780465,-9.638533622851895,-22.201453440228217,-13.436291562297946,6.835537525999823,5.727972600322852,-9.757588810586304,-17.872539632684294,-21.791525824990444,-29.212484431854406,-23.307492976486586,0.12908308450428407,6.4788619996094186,-9.190293028292288,-11.092263308631557,-3.7682808819081854,-9.687867055484158,-11.095960528021127,1.9464136079195886,17.123783473131517,34.61378190076767,46.298159515028885,45.655390523502,49.16587378663617,48.77143239115411,23.25500788306107,-8.95116180371107,-27.44067244564675,-35.68787994581586,-33.1401806109604,-23.814813525890834,-20.032925154335157,-27.844100366055244,-42.72864874809148,-38.212546283950985,-7.064479849128892,6.069985815441704,-9.693103634161847,-15.387456074999438,-13.89651663538156,-16.60490520579331,0.10358668271596372,16.481644823933884,-5.151095975932048,-31.916974568525248,-19.649350016686128,18.24661358549141,38.32128590496228,15.417027218945295,-13.23217983028088,-0.7324899625666346,13.703366666287469,-11.918890979480423,-35.27911833162309,-36.53537804896899,-35.80485685282367,-8.524773107986778,30.335613110642157,8.43683117380909,-34.85072513219647,-7.9779063878119745,35.39878473031658,12.606357079067262,-19.25070085700458,-3.9610177791037007,2.467612674761,-27.824064148890464,-41.38927042515979,-27.067488688369103,-22.335284399713988,-25.004627741412747,-20.39545759871738,-18.5466648755838,-13.330202355489527,16.77223055124921,81.84377998601182,150.0454029776692,119.58423976546294,-36.98016883577623,-151.60496748399643,-109.73060844146008,-30.640572861665405,-16.155912465614254,-20.289911823970716,-18.629387233948187,-23.97531415886808,-18.056566580244777,-7.93923165001339,-10.439941227059748,-4.3102941055589135,7.40474927050367,0.7536771642268079,-5.318103155306918,4.1139820798582,5.537032245187763,-6.856829216950697,-20.08505619743874,-31.670320639273406,-30.620881109017628,-12.367099859410793,-1.511024197538399,-4.568864754647556,2.0620216214766627,21.56211768233853,39.75143866025431,51.676699374578476,50.65506699137845,36.23321612133209,23.20798454998303,10.802550419697809,-14.263719106836923,-39.47072508451191,-44.28096357661874,-38.29695431139114,-37.36556916173346,-34.62984479741064,-24.340297521108702,-15.01580580998263,-10.553743886973407,-10.7822768668175,-15.161809105056811,-15.88457360701991,-13.60553315326721,-17.62632630599318,-18.730390186344724,-5.773278401771725,8.395806387884782,10.471337369316387,-0.07787935251431222,-15.628164937880161,-15.685930583100893,1.374796903839714,3.161291464686851,-14.208135605006259,-17.60192768018487,-8.228031332736476,-10.656505352398462,-15.692400122942317,-8.223197214927822,3.4629352648911995,15.689817173213854,26.847252529313423,22.427395446407996,2.8963543388676163,-10.315250158551946,-8.63308678159878,-4.672562506082463,-11.869005141025943,-28.523448114433926,-37.466993010982875,-28.950380569853486,-21.51234904314301,-32.11731945555013,-38.02274910432594,-16.699286336446825,22.27006330142449,88.30003568375356,164.00458129857557,128.70971026764818,-41.44657742381038,-144.55949350544057,-82.59988260175703,-16.644404675246257,-29.61710558641552,-33.19665350874796,-11.551164575812926,-9.428329991901979,-11.242639074203703,-6.84563659988112,-8.35328818100874,-4.541142001852459,-0.08887413225303487,-9.017263120044154,-12.030823002741656,-0.9854655578366822,3.860321933704282,2.0331079048615384,2.817037809778043,-0.5818570734713364,-4.779938036264124,0.8370257257061089,6.695381179419222,8.967756204052394,22.32511421326943,38.072879870479284,34.81135498245291,26.077181171046412,29.37623495448062,28.959019506718356,15.509698101759241,0.9958360742723782,-13.065403339486965,-28.073327375807363,-36.099823804761456,-38.037660830325606,-39.161520583847214,-36.552934854835186,-29.813944974283746,-23.990790062685093,-21.462750138783264,-18.799111217538304,-12.263132327176574,-8.487290658159806,-9.80512729570103,-2.5141843942121387,7.683215269351439,-0.18704092261027228,-9.608792582033333,1.6459959011797212,11.14071202156585,3.060702464486207,-5.788328453988179,-10.603004807513912,-12.743718747131515,-5.898115260012366,-0.2133795430491805,-3.5041416798121325,-3.9007200694940725,-0.24083956863656475,3.5043344769208824,14.332714071110257,28.23201093890316,35.928719264699595,32.77328501658816,6.2281827345728535,-30.555796278842525,-37.41240300878365,-23.87146197205854,-29.606975710206967,-43.11062232912977,-41.06680880710622,-33.31706520613357,-25.673854155276025,-22.01152504893823,-26.135853643804026,-18.724028018023905,8.647248380021153,62.650572672845406,150.375575115095,167.33097542106873,14.666150635921987,-140.70976360010997,-106.71868301389472,-9.458229504437837,-8.212700531767869,-25.661793280788267,-3.230442567294606,0.9965772579920475,-7.172653411835425,0.12989896100466147,-6.155865848327101,-21.063298826072227,-15.259343977850559,-6.957709193759337,-13.480981500850678,-18.336732918539717,-13.260843711265855,-8.685884953959036,-11.470088121406246,-14.199421420497735,-9.089494591692812,-3.3403629539907684,0.6611609426455658,11.501316086357983,21.30255723860516,21.439035004724918,25.725798316412195,37.67261488157555,43.949689013822535,41.12089920088717,25.6572952029932,-1.8679269159026912,-21.044069572074125,-26.33278415707351,-31.94802363436397,-34.29317980201787,-30.0816294766178,-31.05618178812435,-32.26361155804186,-24.597943994470484,-15.917706387767208,-8.12808209749894,-1.9717883800800102,-6.068185215994724,-10.968712231295981,-4.165217659343302,2.238489405915834,0.8462614609787398,1.0817263027527257,2.676295671998094,1.2286621718833448,1.108959064864317,1.2484112437411596,-4.072051828046231,-9.853403102350022,-8.317340399545794,-2.8490262863674065,2.054791137063172,8.606955377855305,9.729065553139698,-7.375823894389734,-31.805466211063333,-38.169026138613276,-22.85624848692526,-2.2652032734787486,10.653841550091649,15.10791254165946,15.297443822193362,7.37900618667555,-7.741308375025189,-11.759841959905916,-3.784525586146109,-4.24224949627245,-9.60046183018882,-9.022679472740345,-14.269196140105091,-26.363151111630167,-33.240880031536626,-33.37260692648648,-24.1153274461831,0.34555905354775973,57.22094479681589,142.19628375671368,145.3817832148635,-6.964917938477953,-146.62884829812364,-110.69814201404576,-20.550641922634817,-14.569951482810879,-28.764458676785345,-12.343523651046205,-9.133884498178528,-18.363408355482303,-11.7040853251415,0.10009683366456557,1.7178622387491558,-4.041333050834686,-6.957238701356237,-5.218209530278079,-7.604652971345497,-10.047461788325482,-7.073122620124851,-8.703015574692703,-11.044357743381727,-4.31797288800987,1.63581764542361,