ECG,-41.723613882382594,-40.705100065714305,-61.31703313811684,-78.56442009176578,-75.72725642823198,-37.07394689574041,121.05838028451228,361.10274270035035,366.8882174739931,11.407368531738513,-297.81058251507363,-251.2538685153902,-102.4790922493228,-91.9695932011331,-96.43175796232867,-50.463506770349284,-50.733287622716944,-76.18435087066753,-59.43321804774234,-40.84890233183931,-51.17752796201373,-57.262584628529154,-48.37466860932836,-39.73415477426575,-33.74335841461043,-27.34597095304973,-21.3077238690556,-17.49246566230501,-16.13559849665394,-10.494186913268706,4.4702675143801045,15.895665236379273,11.550852934368592,4.365447971735655,3.59599712204988,-1.9709338798161937,-8.742499911525705,-10.315742502656164,-25.327678514204678,-49.19535908801872,-51.97829064761996,-44.74516929362715,-48.940111216079785,-48.292454432355726,-41.428506795864045,-45.30703773859345,-45.14386935245312,-32.701257502011096,-29.979942340609938,-35.06367265189493,-31.56285510403336,-28.65452692265808,-30.08029787060208,-23.9025572062311,-15.759565854420622,-15.016472095123277,-15.958307402043843,-17.047151004395786,-18.945283949656066,-17.53632466809971,-18.33994764934714,-22.58220368030687,-17.644801953398783,-7.906442919727034,-6.17658453538148,-3.7097013965340935,-1.346312877457997,-20.325223576445197,-50.80312157399614,-59.339659291366694,-50.77709282091508,-55.47684184216638,-67.5897476791015,-63.812143803280144,-61.5550972789079,-75.60009407840775,-71.65180935260905,-23.525906533052364,107.36784833814588,347.79267977884075,469.9533993163769,189.56740486397592,-223.77171180151436,-271.65036046273957,-83.82982090216558,-59.53537451898023,-116.0405664535012,-67.24069639533874,-29.30440826487498,-51.75939850445958,-39.69513388498137,-14.895293135789899,-19.6544728325726,-19.241901546149137,-14.7927058437675,-18.677035166963073,-10.63812928111296,-1.1990513260594255,-6.944657161839256,-7.0925753683660595,6.280709829942366,16.502049644278312,20.653345719367,23.91332867738729,24.597405394038965,22.312524606868358,18.198874178734293,13.023516654123203,8.879891500017973,3.0204243647225155,-6.9031642671415945,-13.324154621691807,-13.403635615202967,-14.23991242231553,-16.402887881846567,-20.0809782563777,-29.56469467440333,-33.713629750871185,-21.694229000873136,-8.942022896191773,-6.427713735855111,-3.6446509784200956,-2.1701421204336384,-10.563964458076036,-16.0160051368886,-9.266621111147359,-4.242589039306537,-8.44363710918175,-13.06707151291645,-12.935299693679207,-10.336847839276814,-9.979617931075953,-12.990539887514784,-11.936202289690659,-5.2441045739388095,-0.056543868330182434,7.191327918770189,16.315984284883857,8.548399313533949,-16.67384371515117,-35.81470510215302,-41.6295500680408,-43.00107476453906,-45.91695729072824,-51.24784119291128,-54.85748430154608,-59.81681733837232,-67.1205005120735,-59.37377516321165,-1.8896639780888762,178.35988171312238,441.3005961379894,452.5936814493432,50.55785794424899,-288.8077473232714,-190.60609910422036,-18.144230630130615,-73.85129707435738,-116.06519362244211,-44.931019708184294,-32.16592472423827,-49.95509569416629,-16.528671723317323,-4.227208356147653,-20.13712080990144,-10.348229838356117,-0.844369810759602,-5.1238936463473035,1.6610139785163724,7.526941566354646,3.5117664439889835,6.764985274931545,15.894862671281416,20.873937123087376,25.468396020784347,31.06665935791041,31.52229908948596,26.52805995833191,22.0341305254852,16.629502404784407,3.807506655593018,-9.970914133054572,-14.063287227108969,-14.147164754634634,-17.6514763694218,-19.699718967010106,-19.21504021104036,-20.919931539591175,-21.33908454052446,-14.499632566138665,-3.5040080246603615,2.9549175892711252,1.9870397646407465,-0.10895831938221257,0.2813133183055685,0.4524246852048739,1.1622257162169176,1.9297937462601376,-1.0178628610485467,-3.2388324914510305,-2.1091742330722654,-4.641448007157466,-9.569203532332356,-10.287293958450439,-7.759207830169719,-1.7137093494210536,7.753684799223021,16.672623100232205,24.824295140937807,25.71610832122054,10.479671612475975,-10.623115562659702,-23.85337701550378,-29.439554139239227,-31.22487387347099,-33.92097689170632,-39.46627736204119,-46.447737378811354,-53.823315706953295,-55.154333253539235,-42.509802074176584,41.53555307136688,275.73996165900576,477.3030720614961,289.73630744163216,-140.83937567672217,-267.2491614641208,-85.99190363423888,-25.88542633367335,-87.50216044391516,-49.9833129353065,2.316298753474987,-14.437003026370478,-7.724238855436733,15.423454143240843,2.492962598639193,-4.418455812401628,6.172416077016081,5.481001696529152,6.76700429918181,17.347350395117317,23.70555149465725,29.58669096399891,37.2247062650692,41.4084331242779,45.50523695521843,48.541453063763285,44.449320852059486,37.05284913634181,32.550702702438805,28.837405564356533,23.311608669749553,19.460773628494998,18.387493124002262,14.763546215758275,7.372617478457514,0.267525894186857,-5.294727874804078,-7.233638013089298,-3.1754404124360214,1.7912401159355014,3.961172153974971,7.385865452721358,12.516540969638086,15.490147226209508,16.317486106389516,16.373041135888613,15.74255351940566,15.285717729562993,16.42192188242993,18.59577083564481,18.11589856089855,14.73880291769369,14.208010736379187,16.752322766705014,15.808306782124117,9.34311194966828,0.7136811980738003,-4.595102711913512,-2.4906448648091626,5.359237442879575,17.54535602428482,29.981831767220935,27.461003629054606,5.83216825744956,-14.665117595390814,-19.899012327596033,-19.049884577157457,-24.17283820400781,-31.01572981040537,-31.730365280973786,-35.16710604923973,-43.39807667634608,-44.469140189739974,-25.523474627688387,94.32641948648111,356.6926331215851,477.1942144532391,169.90272623050603,-227.66491562353866,-232.71526292672166,-42.626586328950175,-35.878117291920034,-87.87642392080036,-35.28741605918758,-4.169990334945979,-19.885224833519345,3.9138699830271797,21.107184164466172,0.007444142510877327,-0.9229618076359252,10.98613397925065,1.0140896684770837,-4.161146734778004,7.509150550689522,11.35149759301278,8.568370412105207,15.088160434120418,26.38863671073807,33.66422038520639,37.680882494018476,38.91774680736082,36.77658846485002,34.554865169410675,34.35602396585766,33.16112654306679,28.34500057771433,21.486947549661615,14.855378012203179,9.677029188634158,6.889740535482275,3.979512532662092,-2.0693415520319185,-6.449733943417048,-3.1053108389472506,5.346605165816573,12.748094787843208,15.212517775273067,14.020918914793953,14.346390623336298,14.10984697224512,10.017429819454243,10.040176605162614,14.723349454956658,13.659337609315823,11.024572558803651,13.263442889680952,12.411853781310075,9.860763110745026,12.632428150650718,11.960638283196737,4.355456731369763,0.12529709866448968,1.1384435655948622,4.657800685519733,12.231191729152677,20.84418032595755,24.297786857414106,17.568448666397845,-0.1319463210390026,-17.02055298051536,-21.798966934760323,-23.952548185334226,-34.076483674876215,-40.52645490857965,-37.546443513761254,-39.211909394379425,-42.87754021650681,-40.94142406185953,-14.647317292018215,138.72701847705923,411.72509562811473,453.92854931328935,73.69659972719361,-273.47663774636175,-202.0124323457082,-26.09298672792365,-49.64938217078569,-89.91524496698851,-40.70104787503856,-27.379015254597533,-38.32291571988908,-11.519997374254807,3.9944189698893253,-0.8226069539579401,5.555535608775115,5.091730747789487,-1.891107667900716,6.849592606310761,16.726112697445423,16.250770795362737,17.17915466025096,19.49968568034101,20.56077903213398,27.090292722968563,35.97682946243405,37.47902368132688,32.92012736895363,29.122242275384405,26.837438151483237,24.621436194078314,23.587694939589248,22.301968401277165,16.135801953835937,5.3437893419951585,-4.100092445179861,-8.722182584207486,-10.18006211958132,-10.61743236790048,-10.29822138900941,-7.997779270635652,-2.035264753404075,5.348686154825973,8.172514394266479,6.789674791245856,7.744776962801453,10.045212061827426,8.423029524218288,7.155166209734329,10.274609233507764,10.599771743757739,5.731525935892519,4.260704850149491,7.817612824231899,9.324839645580463,7.1792606191412025,4.390000578634723,0.9737734859587563,-3.656146770304414,-6.478738949605635,-3.5697169252942436,5.000373985757532,15.573031270302359,22.857212119283197,19.762360043436466,3.067865220729849,-18.190642818897246,-29.193465671869152,-30.030422832287986,-35.23113495591755,-44.13846597381831,-45.13787081288392,-44.51390601315163,-46.414598772440314,-47.035538165772095,-29.654265026127874,106.24438975178589,379.5257726618823,460.33601610841924,110.05602766742375,-257.4051800794246,-212.37625737952612,-30.189372780145693,-42.41742454844485,-80.15421385287391,-27.027261256154425,-20.878902966211044,-46.7249893738909,-19.60640573730498,0.48544430733448607,-9.871586200208668,-3.697973475308939,4.099933686121954,-0.05737513087924162,5.155224342141883,10.634783602234165,8.398121306872802,11.008802455670457,13.266928047172046,12.008780407633159,17.58894980603953,25.18269803976683,26.82467533012101,26.681295629393166,25.538248721016952,22.269981091263187,21.06114164981072,22.1768051489857,20.061463660911325,12.581889662263112,5.230667738447414,1.2729030256966318,-5.443706905697162,-14.601695324736333,-15.586965905889238,-10.111148757510724,-7.5964609088175585,-4.579563956203643,2.2065392019844197,6.0676386031667455,6.585530493444437,8.725087452948854,10.578812109559063,9.064417351346135,6.915303920088,7.769537504938323,9.603196512141066,7.347223558010333,3.1366392177504467,2.514808381560994,1.3688747057261348,-4.593297191008922,-8.968724998640203,-9.347747147857353,-9.590186901907202,-6.199160449251824,2.768994297631189,12.250119608219409,21.988859580493134,25.869318380551427,8.613300209524429,-20.946677980376656,-33.5765472892426,-29.282563073366614,-32.656013817866345,-41.707532009512754,-41.17871886699036,-43.21778919050927,-50.32484468778864,-47.23448881006421,-46.12470750436789,12.710551430029255,244.5001249857642,457.037101143283,269.1049945419864,-155.50619220523657,-268.1455971922075,-84.9836563336614,-25.851874925966552,-88.69641653906461,-65.34652519315419,-27.54820743790121,-48.597947216672615,-45.402685821397995,-21.143623744593988,-19.57419171409378,-3.7371693195974878,29.196764339120563,40.12047840773688,40.575215222253576,53.31530644110711,69.03135557382353,75.06831434943064,68.42883466204458,58.163712852360405,58.16054059934938,64.12405035491476,62.80171384455356,55.49727038835893,49.93345953372692,47.136154780355234,45.44009615245785,44.73914020802127,43.981058547569035,39.1528353338135,30.350041100396965,24.198775318309444,19.819817021256796,12.140713804587563,8.73627894494934,13.030874731571842,13.583844192432352,12.592645973813433,21.323886129578767,29.55094566987679,25.395401033635856,19.55863421813958,22.03086438250004,27.00096451229733,28.43562208382724,28.312281842084737,28.275134628938346,25.196034177085558,19.984332607778192,17.489255334626165,14.87440361928234,10.490938990006995,11.339901200321457,13.834536661383385,8.43677446204197,3.001654374139491,6.896388806887323,15.004027172436423,24.536183621778456,34.96680113404772,37.924281591407315,27.691713030388822,8.78517452718522,-3.8474026551890077,-2.02242216836067,-8.345275067992045,-32.81208731731414,-40.597852461182086,-28.861060141846767,-29.90663553766042,-32.70108834273985,-25.750930212878558,26.199529830407414,229.47542321589927,454.9134198668777,321.89970171777094,-95.74789697720293,-253.09711936497342,-82.19990722301603,-0.9273025406340771,-61.59447675624993,-44.276344848112686,4.167358036862062,-12.691329235487803,-16.386878962126872,10.713553382907179,12.831846496027394,10.286813750994767,20.633090828724143,15.922436574080958,4.367185783991722,8.58999595203332,17.06616102887659,18.804834826284324,19.64896157752333,21.50919604677602,24.84721754743118,32.29276669553502,39.520475107049926,41.927352707319855,41.48724003104989,38.14103050807924,32.196022687434066,30.304879563554124,32.452873306813984,28.58779392720842,17.40013771094185,8.819349862832794,4.842220724583271,-1.2778401687680194,-6.736493525576712,-4.676768298629536,-1.769407745092792,-2.46529194186844,2.2977947466307747,9.203180466128995,6.0305397357289845,1.4369725924245742,5.077606441809005,5.861576199709717,1.654086214749963,4.157813417214959,9.140645471012595,6.8855241190543754,4.015405061572125,6.147717400654457,7.399172046632916,7.106465244866763,9.766144925962804,11.4160723860387,6.484647061595141,-0.9798202882536149,-4.039004446972529,0.1985081488411602,11.420898000081792,23.959037588196978,29.123967526677657,23.228042603090245,8.058046502747633,-8.387009311327898,-14.57059694661908,-16.786148114365464,-32.62616643290594,-49.063614197832436,-45.9875287520894,-42.507925292511985,-46.75041427387538,-43.274085321353056,-31.660426352524688,66.46665912199997,317.93852804344164,453.2527526235012,173.82326807544692,-206.96036503141977,-218.26485968332327,-38.69763571908027,-28.788300056086964,-78.12236064628047,-31.738488458608362,-4.257943385640978,-25.67480592898086,-12.695839226758432,8.444044513579971,3.156256210029488,2.9476644524331626,7.699495193317393,5.472286079197243,6.865181273381218,5.890926658585926,-0.5583418975147154,1.857814013704795,10.167392836107695,14.880382749013222,20.684512641267826,28.998216839777633,34.6946440476667,35.43590685474984,31.649733514739424,28.978307395418383,30.84095988311716,30.588289571819672,24.480306284924673,15.77260885083146,5.750840859170058,-2.7642627567934426,-7.004542547408041,-11.172534879508396,-16.28787380449467,-16.874779507676497,-13.15595453112777,-9.804946337901251,-7.278435160657916,-3.6433714304985605,0.1548937921938891,1.316478465212489,1.916701557861563,5.51407066101883,8.034845576345688,6.933072752697585,5.9348140866852575,3.232486164370526,-1.1591679390153917,-0.3284796527602891,2.015157354750217,0.2059520105654813,1.4762860421973607,5.84018491204965,3.8002285067103365,-2.285025984813494,-2.962055348140592,4.394371551383033,12.627249306237578,13.357593096139464,12.688377497973434,14.782211472048651,4.844475498430439,-15.184000204672346,-24.263616114168997,-30.553138840231714,-47.13378375180792,-52.02132489915725,-42.883583062784396,-47.405597893519975,-54.268772297404794,-48.40553736428612,-25.631643800454917,113.6357791407171,379.4170528482753,433.30383981893374,78.65661946571569,-249.602729098291,-182.4539609127757,-22.091840950100522,-50.060559291630504,-83.12587106348205,-29.12885584124356,-19.208356818530902,-35.2709769183337,-9.252912817585079,4.104803304874,-8.132078348821075,-2.612828989147987,6.436445992153828,2.60950633725673,2.896626967861205,5.515861011864912,0.42365030872869003,-4.852875971032586,-1.6330577582962498,9.330520995983042,21.49650011664922,28.25805432284161,28.5870345944114,26.97154239909877,27.607824310855865,28.481550503311283,26.35121725613045,23.307016274243807,19.67588209587625,13.257639852763823,6.8493304942027855,1.6887867052890169,-5.559086799401358,-14.007896003689368,-21.021868068690175,-24.764767241750466,-20.719747722822927,-11.367781476942124,-7.135756588783094,-7.679376633463702,-4.539673373502394,0.44569780912736884,2.062103716003849,3.6530984446635366,6.540390466504892,5.419642453857955,1.3788503504199463,1.3109377848190127,4.691788610892128,7.39566123899022,10.00274043769562,9.117036237659429,-1.72718909889468,-15.511326773267347,-18.774462895658406,-12.406354253468287,-5.495975173536758,0.7934447793681296,9.89798521879267,18.540791096844742,15.86460810242443,-1.7094243480198101,-18.771951692951102,-21.701805911838157,-22.531269215536668,-33.01747513284906,-40.115617348140624,-41.43000061809053,-49.835880542061815,-54.361086199804824,-50.587219781182455,-16.88351815233227,156.12200332958668,415.68262880725575,390.3797061724132,-6.282428284543236,-268.7631324677715,-145.38387076620393,-12.601346321597862,-59.8112956377806,-69.76956351557364,-16.933860438627953,-26.987475204747238,-41.063905317892875,-10.765293059693064,-1.6973248692400311,-9.578038418541626,-2.2135930542389364,-2.438109782863203,-8.028139666751821,-0.4398704394025694,6.52282027411782,6.415169545377031,6.526101573898302,6.975743876406206,12.803072122147674,25.87733778178184,35.489340123725185,36.05223007795948,30.751347428712123,24.965536191207427,22.97742028996223,22.967991062443126,23.326977735118657,23.9994549186273,18.130844909439553,4.361930800540876,-6.8611816700391,-13.105989087533064,-19.485861161791476,-23.390272051767106,-21.74657303051821,-17.53496216228408,-12.659282562922497,-6.9426974641382175,-0.6672726404868651,3.7857337612127466,2.910047902657345,-0.4019787822226042,0.8634851634244498,6.054825339750615,9.2080685766208,8.206310916865455,4.689359599638832,2.2783109456822515,4.560234044156814,9.982034919977462,11.836911699742293,5.066606876141711,-7.749541930138025,-17.540875366206905,-17.40376913686348,-9.069996279218854,1.2405112935290161,9.706211267334437,13.926044805336073,9.386331177811616,-5.654992484214622,-21.072279940249313,-24.28293663626983,-23.381717567249964,-31.672718670610557,-36.768764287691056,-32.829588324567524,-36.792935876711326,-41.64502366701655,-36.52241053366959,3.134022603250429,177.008808833634,419.88145667216213,368.32155051585653,-30.76824250284445,-267.3372932235046,-133.72113488813142,-17.237609187623192,-68.55216181909978,-66.32505959294453,-8.223296469298845,-12.600652815994643,-16.516124304910885,10.838480038998771,5.831001249355445,-16.307683795433242,-25.66456318938537,-40.137989194660776,-50.29771029959138,-43.91861324840404,-38.34676282570616,-36.581047721087636,-31.45098061964414,-24.321379675812096,-13.977420802003742,-3.165275226973577,1.9224950479135146,2.062883337469522,-2.8147821583883044,-10.962660115509365,-15.022599400829876,-16.47699752232124,-21.14604272726244,-27.394560254200947,-36.464365578097286,-50.94223663566079,-63.84628766520045,-70.79576887935096,-74.96694242133619,-74.36218854238815,-67.67177444451029,-61.494807187487766,-56.9438357744246,-49.912922623945775,-43.79070548498642,-41.65251051391925,-40.222307943261825,-41.887273044086044,-49.327500180693846,-51.906193562304495,-44.83641932341715,-42.99642679805703,-50.4024176067953,-51.51812107585252,-46.528732751156696,-46.54132170187228,-46.766864290784014,-50.88512869025034,-70.6799110936129,-82.76064749388954,-64.98895224205377,-44.95441404006776,-41.168811397134675,-35.321268999023175,-30.69488071401011,-45.257421193856686,-66.33114569015325,-76.08813337257297,-81.53730213579769,-90.45804063477001,-92.98878655799024,-88.97791762032443,-93.45508482912547,-95.73529989589699,-86.92069343243259,-64.87957294233158,70.82970699169715,335.65856445570154,387.1930863617893,24.049593078488186,-306.2970792690554,-232.70050023766134,-70.74053811239183,-98.33288162293076,-125.44511580567465,-68.7276614344982,-60.405876935551476,-75.61568586950818,-50.754660285375834,-44.734231185854725,-63.84721896545808,-59.42021131089763,-46.02937364623412,-43.536142189542446,-42.97917236522491,-45.065708894161745,-44.353782687513714,-36.68925520795001,-36.563651102196346,-39.32656469890057,-28.76359868857655,-16.86398342958431,-15.98074502888548,-17.226134249728247,-17.32457990825752,-19.076310272061704,-22.233418039464993,-30.23851169799252,-39.048441600951236,-41.35722960627231,-47.572574037873025,-63.18371790063435,-72.90571859606186,-72.89286904646289,-72.36573233055417,-69.74669814995119,-64.81677055825648,-63.752165848444704,-62.328290754014034,-54.053551302360205,-41.927087420660015,-33.7805263209367,-35.537316982824706,-39.09449674226562,-34.337670624278175,-32.691231890880886,-38.76818234423554,-38.46115045551491,-40.796210422035756,-55.16784577965028,-55.27682933133957,-39.86641369179557,-44.55239527084167,-62.511585658994875,-55.76649197925113,-30.80032633074815,-23.311530311412852,-34.42081893430367,-41.062791185094795,-50.57912325174091,-73.31436644100063,-79.27394082691578,-66.3007662505945,-72.70388274396349,-87.66587165984839,-89.05324290244536,-95.05007415185918,-97.41821513474031,-70.82986103996593,30.881058707078726,259.3323143868272,415.0123337268602,189.5977395007581,-204.75864572590257,-280.1860629843709,-112.88609163148121,-69.95142886660992,-110.6813770813454,-76.92397672075091,-48.0256667646903,-61.066389389674725,-51.44082421638939,-40.23262027974596,-48.47969638637805,-41.5050151972479,-31.42258832787317,-39.3218222359671,-36.716075285926145,-17.083184089841787,-13.881443639140954,-29.83550514932527,-32.08369295816884,-14.766020094180398,-3.3689018151902133,0.4598640396713023,12.02374542839043,17.608361487703448,7.16395178202167,3.6695591215547694,5.179389353370226,-13.660962229987923,-33.34955073871709,-30.962192459779217,-32.14759119163921,-40.35307234092305,-34.809010919242105,-42.09666151401644,-69.59820645058687,-64.80410883770575,-31.084918812524222,-24.916020788495146,-43.49642774216123,-51.54327000956013,-41.77295803061204,-22.67505269130487,-14.139950078894437,-19.085496483254573,-14.976107150225722,-14.845257806446284,-37.59475761419167,-45.03927363370052,-20.82123678353959,-8.99272174461656,-21.398592857920967,-29.44652318140696,-27.390168140969642,-20.815409994516045,-7.347651573201134,1.205634200419368,-11.828623313867595,-34.34459522652432,-43.23117626001868,-48.33917479920018,-66.34237434186187,-77.00463753368743,-68.85971480431311,-69.30710922548013,-83.17200720378034,-81.95664319032666,-65.96302314073282,-57.60485689810438,-9.148201414826069,181.59257506457226,416.52932546185303,357.86087460510817,-28.599676739532086,-279.19222474311346,-176.53978500963544,-52.645213097688355,-84.85380746652174,-90.44338011593678,-37.658739561118736,-38.01088173171091,-51.8199049055712,-29.90453853826088,-21.4199990761526,-30.626699979001696,-25.508151393552417,-14.512538572408982,-9.25284392233906,-10.201439268120666,-17.4111916267749,-17.241782863389165,-3.940658130347014,6.987762433200434,10.30383431465851,13.629105507637867,16.379482785285497,17.91389627791239,21.18766779442239,19.966381507110427,10.397695929462282,1.122397570631346,-3.620376521013963,-6.4129959604887645,-9.034314909869451,-16.258015771871648,-25.313326828299964,-26.289277668913357,-26.18178984319685,-31.37267398581737,-25.091994336241633,-7.74997642130937,-6.996314038831823,-22.382551976838293,-26.119920188099094,-15.91541307496535,-9.831589660662218,-8.675395835878547,-3.9709755319395796,-1.3436164048480244,-7.06025088000322,-11.16077528842959,-7.961714311597298,-9.712908360614403,-20.450261461174414,-26.150331507876857,-20.926558636980058,-13.465057245856826,-8.1857533138956,-1.7835085136372797,4.711266241705964,3.325975796451374,-9.177532630365729,-25.86324985430244,-37.869920982824574,-41.52842987702014,-44.50311271513253,-55.797170370551285,-63.59451278046767,-61.15511589133616,-66.35638119618062,-73.01870222330923,-49.418740162287406,51.15105375419017,283.1145340229938,491.827992318975,330.7862607845358,-113.84071722784832,-291.564829140097,-118.01896067490719,-32.19068691952005,-100.44199391877473,-78.81660951259789,-18.36918490735733,-35.026978546297975,-40.84104475631609,-12.814870663100475,-11.210441984655201,-13.690737456008105,-4.859467322270696,-7.587653983656008,-8.923571365355858,-2.8977778474518843,-2.829794719714771,0.6913171393251978,10.830535693432285,15.653360575052066,19.33604161932634,26.342402202313526,27.44372318076448,21.993515810930425,18.2222492490157,14.218213326784156,5.2032425811777925,-1.3125526993688788,-0.6245222941605435,-1.5712828297912278,-6.038173964489929,-9.557388528861926,-16.906683778738838,-24.521327013229886,-20.741226302999987,-12.281161645078507,-7.53103796002557,-2.266585876394503,-1.1496105367652838,-5.037489185419862,-1.1516588088934903,5.17994650684558,2.4290717752573343,0.623086551326236,3.4249018803764777,0.08680692176779026,-9.012253545589413,-18.213952394821632,-22.81982955462405,-17.170008663383317,-9.443975536959199,-11.263134351966377,-16.198281496714426,-14.858214520767069,-7.406765989240773,4.989424835035034,18.331295217931928,21.495924252144967,7.06142841153537,-15.900554366707105,-30.966080547665985,-34.790655473366435,-36.07260143879019,-43.15250164937589,-53.74783483035833,-56.48987788051569,-55.90141979231186,-61.82770653777084,-57.306227402221054,-5.970298950526654,159.35455556174887,419.92791420167225,472.5060667923737,106.82894464375573,-268.53684964218064,-222.5774156124669,-37.238600541483564,-58.92216896952105,-102.78043834727033,-37.56080986137705,-17.24551233370029,-38.932334081087745,-15.28765171319479,-1.5736119018301746,-13.48512832503133,-4.109567130581394,3.8502730249364707,-2.8473681245488565,1.9567679169596026,8.834838370963622,6.844691182177469,9.894121811337937,17.95679797337165,24.19307183392521,30.727508237959007,37.9822650950981,41.75502070672306,34.50198331030915,17.11548382558939,5.082253561782984,3.7560658133931106,1.6115997917844096,-5.464890540304562,-11.88544484886026,-15.630837329423802,-17.534740557035853,-17.8615545630884,-15.179196174264051,-7.363754952005091,1.625649217859404,4.567449385947676,4.001420651035341,7.895819503462983,13.259048879848695,13.81799944035367,14.979843010779309,17.31422383040791,9.113044480891489,-4.711004751073723,-6.421924027291678,-0.705548856392995,-1.243600766293163,-2.942471583999658,-0.5700531124531105,-0.6102481336113814,-2.3220054726707215,0.10431942218574797,0.9801958973200078,-4.925182301509971,-7.215429095234429,0.4655534180680192,9.249378952490975,17.974435347309157,26.337656544302774,15.830327700755806,-12.414781498277762,-26.289023355864934,-19.293561209225345,-14.56109479131465,-20.531609505223035,-29.68122967592827,-37.13236439470209,-44.510044345117294,-49.289541034205534,-45.20882101807791,-17.83152803392467,113.35002917868681,373.8385506228029,474.58928795129884,153.93663389628387,-232.8993061400714,-222.65934820970358,-35.352395736839085,-35.89527998205003,-82.38484529659053,-23.3265860778837,4.879695007191601,-17.818147389486022,-2.2148112020903525,12.736046030612059,0.499187256614956,5.525008979361225,14.46940004421041,4.491583475251488,2.970933038454561,17.307236350018552,23.74706428401857,18.44796914365838,20.032570653020848,34.05813304432983,43.727469079214266,44.19595588893408,48.47971055165702,52.95150762439481,46.14373565532815,35.28061846851129,28.35433246526796,23.094121013710733,19.991072785851017,18.52143668033792,14.549338176730881,8.666517205504803,3.2000691861664663,0.22097773282618505,2.9203521340456007,8.967334661578754,13.81171623401498,18.268250985867567,20.61243014430413,17.30903759210063,15.457059637583136,22.10616317089093,28.384247783875317,25.52194844770705,20.625915290216916,19.583116546101454,17.273309778688898,14.210972466281998,13.82723626141609,8.258036180523327,-2.9645987522292536,-4.900957125229652,3.1182523799299062,7.990683044557702,8.797836305089344,8.625511830299121,5.730360651220376,5.021846665241288,9.071918078643328,9.17158371393937,3.209685348284765,1.1239255361745109,7.88533737121633,18.576391057185184,28.516741288145575,34.056967850226265,27.23949086872396,6.70361358071429,-12.285768689854443,-16.127028029494454,-13.260362983484507,-19.58976740692003,-29.5022400332521,-30.823517357036586,-34.88553808716463,-42.71912628879804,-36.301626219278795,-12.719415149669814,94.67001557314398,343.6307046644043,472.3379318767652,178.97629462887863,-222.83230412517432,-238.1039115655396,-45.74571944711842,-33.018334990265835,-87.2507739890246,-38.68347433096344,-6.969688084128688,-25.004033984904154,-8.397819760573686,10.244510214830886,-0.7999593437934518,-0.17145117062236181,8.923702861339976,6.430313851995532,6.475260234256382,9.72536063475221,7.767286197188415,9.58078087195792,19.255671420761274,27.927078562792346,31.14366785573588,33.701084299649054,38.7248574749762,41.25636261248013,37.90303856726139,32.74128466167131,29.823035295292023,28.539617277144952,26.54795552031858,24.445862745669842,22.223518392175528,14.172313489332161,1.1419610453141686,-6.482123927268486,-7.346280491417534,-5.271382338272158,0.40317129427337584,0.9603737378734465,-9.436472677468945,-14.368827890619615,-6.618656545136323,-1.4724822743660217,-1.6500204020443174,1.424832962794489,4.0727842883544625,3.2351184899839405,3.9152443470414457,5.7446858906562035,5.9349480392761205,5.274802160360715,4.07008297453358,3.344647193400723,4.520040380192189,5.426818238992111,4.450540473248405,4.30979281771045,6.508958523266141,7.7987056184108585,6.080243558755044,3.6768742698177697,2.332833309358125,2.632625589465829,5.429417683821976,9.155356621308357,13.874693882765396,19.557164316664725,15.144174861520945,-5.713684064750933,-24.726124774274098,-25.921714207480704,-23.247672920702968,-32.031937877177626,-39.55141430593694,-37.643471082647665,-43.342331836794415,-51.56954716018657,-45.74233013662064,-27.049414103445308,85.6035995338136,346.5088180051961,465.5897652948216,156.43526240070463,-230.41135898119583,-224.2159320590676,-38.43571795214221,-36.35643885237296,-85.57564388178416,-35.61536919850899,-10.825677587938891,-31.306899022070514,-14.010530751729654,3.9572529111615538,-5.829299650875508,-1.0119386805905446,10.055563693958415,1.8833826487625083,-5.9398621938878895,-0.8748328220522916,4.700762368709672,5.805189114544678,8.929550232531108,16.996699786291845,25.49977980497514,32.352914279703114,38.42257810152614,41.395712860471,40.09543703425949,32.284290541697075,16.77972586139259,6.658136356844338,10.469179365523296,13.191126233316934,5.680337706226627,-3.453617255313138,-12.872519968444164,-23.391440671720225,-25.68963478651065,-19.230657421405724,-14.605171274765699,-13.088226591907699,-8.403300624806798,-1.1238092843452003,3.622334701184109,5.959602386047813,9.045944081844926,10.995810408188024,9.679001550697286,8.165657944761824,5.025295209849856,-3.4892346102445932,-9.16130299881154,-5.308971553314607,-2.1646126942332535,-4.779426958639034,-2.9423617722886872,3.547180389040653,3.0302936091745094,-3.65763365670226,-4.840628483372031,1.0258097484371924,3.326022306940402,-2.9187869094888255,-8.352400782348187,-5.289730835522871,2.354966793888676,13.096661559123369,25.269187128956162,23.214643899552538,0.3542166875539081,-23.294330804776173,-31.133504154937583,-28.849041790998662,-28.896543286936254,-33.877605497360726,-36.16667990117157,-37.705964213297634,-42.13100280864591,-36.54516934539474,-25.297669653331255,24.791461473059954,223.74361164725124,455.1211552880228,335.348589112468,-93.97909622421693,-279.6766471906207,-111.5728774064236,-18.76312271048873,-81.14848535178052,-64.03263925846058,-7.620064055218787,-18.965742584330663,-16.800205821528206,11.51418959036147,5.831382228538386,0.4898521740876305,14.670367855672325,14.501032967087324,10.543192153629201,14.534843220277866,10.793770347076748,9.531275802569265,20.497519546664115,28.867222162191595,32.442938178930305,37.242186051311464,38.88080832607321,36.90221669143841,36.64555894165089,39.4528955942262,39.368958963995034,27.46323924217404,9.9901204180435,4.54112968237725,9.897451452343425,9.257455273142893,-3.1509021609369343,-18.960497984851372,-26.101958254951082,-21.56444257536991,-14.723861257550267,-9.984772215926329,-4.319674106143169,-0.4966206623210372,0.8259480928306351,4.737273201189584,9.392068588810544,10.944372551821813,10.139885062575775,7.132539564240759,4.848863514901613,6.558594519587498,8.624745759890537,8.646198811750953,7.347629168974054,4.1824624199490525,2.9523104009267964,6.178918085447151,8.49894828183819,7.746043077428211,5.416359102725029,0.8641526880194492,-2.6718420314627016,-1.7169134222647262,0.932643450811625,4.1453766725287,11.710477243968079,23.120300059725555,26.055170016426825,9.991771593859948,-11.679545737896735,-19.682977606570958,-20.5530832579365,-29.068676345498474,-40.01784017663888,-41.70285664770233,-40.76851077656636,-47.39566481896967,-50.51198582643195,-45.06442957813988,-2.3296541425204538,181.9226804525854,439.1097373296616,395.7246565753434,-17.460630962241467,-279.9520789330551,-147.26193202623216,-10.334702495673966,-59.113880866011456,-71.306719441262,-16.56831433092372,-17.458335969571696,-25.989864557813288,-1.6845121428468879,3.332205356490217,-0.8086523709278706,6.964613949391007,3.068385520737759,-4.396923276002558,1.6847528177242088,5.71193047584851,0.9933412091185145,-1.8733412301448737,2.8060590312985223,15.214426787186982,29.064048368705965,34.540362759188255,28.38327775964293,18.030357163996097,14.621110386318655,16.825334153303103,15.679435859944585,13.51455548324012,13.383201088488892,8.892665353628672,1.0800518901398632,-3.711660191436081,-8.94809076944097,-16.801802004796933,-20.034993773301824,-16.427664851567215,-12.048704073031283,-8.352900304643962,-2.542084730108141,1.6525687560529572,1.1447296160142995,3.024686252044786,8.148381836897896,5.901529835640792,-1.9283439922805203,-3.178431499630161,0.4822892297458379,0.9143432107297177,-0.3302666540039789,-0.2541881692662675,-0.20852572001307282,-0.20783243630697257,-0.03270942225560142,-0.7246742468648582,-0.17182348282194304,1.9181592012119475,-1.7356904616324114,-10.245411319961788,-10.049827681961137,-0.051107265168272686,10.738737777048726,21.746996171078777,22.7804611950733,0.48715234847403366,-25.097224426169895,-29.039856217541747,-22.769883469827214,-25.31598085029848,-33.81861067293427,-38.7237715531429,-42.03384586247988,-45.90919316031591,-44.20808457182226,-37.954146052157355,26.48400382106159,248.12206386760062,468.577947825382,315.4354482233846,-110.86620626022824,-261.03146498052934,-82.45890758973289,-6.477571568204409,-76.84532968324393,-59.454495949695215,-5.786467832668681,-19.267945085788533,-24.267327381486425,-7.922757169489638,-16.321233731567432,-18.091246388715966,-4.050326882045465,-4.382910928991164,-7.288709899831611,-2.0511269567235475,-0.1583680682648101,3.3137014058523935,10.182380599492486,12.546995658568413,17.00971784742744,27.609532509189748,34.72332478219744,35.6345351925486,34.92261224138718,32.48188856129794,27.7338322948703,24.596273196299002,23.852570156036464,18.73607932020335,6.985466097368214,-3.385867766597781,-8.651227189983118,-13.460788754485739,-18.344928253888803,-19.499832688686915,-17.14466427714388,-14.297177134853143,-10.96011183183863,-5.00542644415144,1.1499321945051522,3.495424329908236,4.652182254656829,6.353183943858636,5.080874523875698,3.533403083767551,6.023697255452412,7.620207416184371,5.461720085595873,3.4482867845652088,1.9158566444431306,0.8609256604835656,2.763717121882184,4.27024587821765,1.6957342553433774,-1.3283510966036427,-4.151618565038332,-8.411360209758886,-6.362381773559496,5.274420503770458,15.872800121205353,21.730931076020752,23.55214226204947,11.814029364538126,-9.311676600621423,-19.548754048708503,-19.445857403931125,-24.296008307927554,-33.737022986994305,-39.13125388309845,-42.752749323694616,-50.467286027209425,-53.64935983887521,-49.44712180008645,-25.37523095620515,118.53779186193216,390.229686885455,455.1853213074324,95.39388768415925,-264.2462428326049,-212.46727664529385,-32.40276138832389,-45.397465412004145,-84.34560948165611,-32.797944649861286,-19.59453854709853,-40.29810715669943,-19.26694567396047,-0.7319613106110463,-6.445758086338985,-3.917970465787941,-0.9165076819939477,-3.5525031887585143,-1.3126609476624407,-1.8214261456350687,-4.266288960494535,-1.6446538301584432,-0.07617509515876364,4.197272004124622,17.229114942781464,29.468779800963276,35.874086612573265,37.3582301047561,33.3565192805194,33.825590317834354,44.63037747402218,51.7818392668929,47.32486457891686,40.03519117227814,34.120678811580824,26.390408105548218,16.626051264631375,6.820557553113704,-1.1375948201962895,-6.766204886889845,-13.061599576001669,-21.570254386040666,-26.677002039101623,-25.00581034193575,-26.292070200290148,-36.74440021529011,-44.21424847401104,-42.852120683875185,-44.024999189347284,-49.25503526732375,-52.25745833668309,-56.96716791584519,-60.578568208071154,-52.24708836101365,-38.570704080002045,-34.87433940707112,-40.633573380162105,-43.743403288711164,-42.39519675389363,-50.01396290737726,-65.05664868750313,-63.84699276416943,-46.131379130552986,-35.79861024841631,-35.46683245978491,-38.70234721138576,-52.361005169407605,-69.89573137396627,-74.76374300456895,-74.53579624354059,-83.38459107614999,-89.43833921802886,-85.82380628686747,-92.14010605635599,-101.10133659631853,-93.99807102574123,-80.34568337698641,22.69124818085608,288.3548797966929,421.0217381456899,108.95473359057533,-291.0693681948103,-288.9119807208,-101.48397638372721,-95.02786481556423,-136.64615507694415,-86.50033843194939,-66.67754120942413,-85.17133106000344,-64.31298489532301,-47.04035416111279,-58.89975616638549,-61.67316457309468,-57.27049071216307,-53.88698785170283,-43.95875011678899,-39.3225811283329,-41.96390048337287,-39.79403344202727,-36.68727648075672,-34.14340510129226,-25.387653754683328,-16.031632932701953,-12.208115508987873,-10.693020667503419,-11.624159513211524,-15.08883560624784,-16.32450149703982,-17.354025778355123,-24.88649322349565,-36.01557115072181,-41.524712744842475,-40.97694477761836,-43.49446254134189,-52.692515094535736,-62.62291885360568,-69.19675241263018,-68.61194736835822,-55.164573502729496,-38.72587058661601,-35.79896632087174,-37.80404147282235,-29.888079686618383,-23.539259684039948,-30.06383923719028,-36.6840770402936,-34.08867094054071,-31.65718618393305,-35.996030393862995,-39.349287996213846,-35.8246939490067,-32.98526537071962,-34.31849701598573,-32.50549593057184,-32.20865647185923,-39.5584016881313,-37.61314808475155,-21.08236197801662,-13.126290184142988,-17.213469516389225,-17.765351271683926,-20.39771540870163,-33.96099441432982,-48.310647618472125,-53.454609695850046,-52.36210435182347,-57.015701682156525,-70.05698596078945,-76.84410250052824,-73.09274114903832,-74.80131828385467,-87.27436517023577,-45.77919268461937,159.0014181077305,414.6230846983449,349.77577557919875,-57.138918248480664,-296.62796712597986,-170.33097965107427,-52.07498487919919,-93.69750615414227,-90.89622656736782,-38.30345534020566,-43.83964728875657,-49.26968932468908,-26.493850128441558,-29.03769445667784,-35.12546704545669,-21.851659200489877,-20.02626315482663,-25.224658302833106,-18.381713277275296,-12.777807664352835,-16.39586501220532,-19.5693985515611,-14.471241767147603,-3.632332747025213,4.15649549805066,10.109336310239819,15.1428484392886,9.10393575026724,-0.6221507265133752,1.4621751734797783,3.371528079760804,-5.951364979772617,-14.538010864743988,-17.458419399472724,-18.865148166941218,-21.561392323302854,-33.16858403764849,-48.83840223788259,-52.485870521511735,-47.76184437326229,-43.17945412948042,-32.02974214883065,-17.597257994595715,-13.366989675534896,-18.27405994389072,-22.14622885939538,-17.739210953094823,-8.149416269497202,-7.568983215770082,-14.728852860436373,-12.54732438591354,-5.156027049058402,-6.601889409755266,-10.806801826173967,-11.785413392722866,-13.439583467570248,-14.512640863391809,-16.13390067367734,-17.634968976694463,-7.827605435610764,8.077366248651757,9.40448244905226,-4.488271687916495,-21.429815801177185,-34.99293168823759,-37.85916555164796,-34.95985608480379,-44.80905375009263,-62.51990545794942,-70.38865583374835,-74.0236345577791,-75.1219064880088,-67.60727948833055,-48.263480839524064,65.99295597814192,329.07759788695756,471.6881400959869,198.5355894591916,-200.8580326593024,-249.2068647822874,-77.00128307898734,-47.984423171815386,-94.43766586509498,-55.47582420546746,-23.86281573462236,-44.1156930371427,-39.09383144702375,-16.446380823124287,-11.222182357670132,-10.295613389090583,-14.304294500063786,-18.646414513164906,-7.8011284973218356,0.11164522919724362,-4.097716121638294,-1.1229305888710108,6.301608632121598,9.0167048830103,16.971889135087924,26.872158029936752,28.373779495255764,27.441870840093983,22.374710868769192,7.081985333690996,-3.7536183153529263,-2.5088825944588375,-3.354190046064325,-9.083295641314267,-13.725248210486399,-22.237879928361735,-32.01894332305365,-31.959544518972866,-26.56129292314932,-25.645145822871903,-25.11140385585855,-18.586023174087547,-11.058449243433262,-9.543487243030548,-8.24378283557985,-0.4253019473031223,2.683892775814808,-5.474141532391446,-9.780522048698511,-6.0155097941666575,-5.59122395472523,-7.564771543380383,-9.984609076418714,-14.753610258354524,-11.012859773764962,-1.7025614375179856,-6.364775661875761,-13.909482789739528,-6.063978376104355,1.4192563791008457,5.067052954731716,19.544011630951537,21.945400944815248,-7.004694476889393,-31.61875257233209,-30.357568702106406,-29.212171387794704,-38.31009645287304,-43.8449953177641,-48.648190591661624,-63.92536225723498,-80.68892516584583,-79.86692469855157,-56.1631418416229,33.71973100855449,262.78268406541144,478.6280905520113,334.0520578825097,-95.69607759410225,-282.0818647600599,-124.73789457046071,-35.64428145746666,-99.3725606448391,-85.11889714530822,-24.349782704910368,-32.476767788782446,-34.20167972255176,-5.7908504266290866,-10.305239752880155,-21.500306082402922,-7.635147264024673,4.497890444899829,11.150811233840322,14.324372781599571,1.4695353956489674,-9.292298416785217,1.2304072947593352,15.853279717358225,20.610205502612317,23.262922955277357,28.022468829253555,30.61524621141448,28.46998042627673,22.805405470484484,16.791962507435215,11.472533685501883,5.5602286381541965,-0.48427704602725075,-6.794330334350459,-13.992639653893061,-18.225584249451536,-19.421656806876015,-24.208683949970354,-28.18274680963621,-20.980275875083173,-10.516509935853755,-8.677797253252368,-8.609865847390306,-3.9032875061112513,-0.8616620874178924,-0.7439581152051211,0.05302933635110385,0.04626392488023967,-0.8194318789101906,-2.176613651755039,-5.965035689407783,-7.122911721266146,-2.2772093433230207,-0.28191766007186114,-3.6195809866971533,-5.424709020509315,-7.492636594467649,-9.467391724847182,-2.714440507112508,8.186697949100694,15.827922089919749,26.161446083970006,32.04339104368734,17.94580728589502,-5.267388311024142,-23.315390892217625,-39.09937036374548,-47.077705274295106,-45.419671497721,-48.33919446795688,-55.70124584244044,-62.4429192998545,-69.95785248727155,-66.63193071820417,-27.136696217950636,119.09605948200308,382.4707980392816,479.4343580551207,157.4203143798893,-233.53141153599358,-230.40375464598924,-42.63601555861936,-37.67473903746106,-84.96972371081283,-32.4281090899038,-11.707751574051677,-38.678953353400395,-17.814706371365208,4.959394562524117,-9.489428490504109,-9.158624513140447,5.6372536872486165,6.88488303606025,7.716253197578405,11.555118805843483,10.06709249489123,12.066753162990821,20.655391578014182,30.133596801723275,39.92414608334073,45.88171741118564,43.19776033710614,36.99076675385335,34.40379961349069,35.888025870533546,35.25675655955696,27.333152827424584,19.143151571774133,18.334233499368015,15.564576443161371,4.666519187028825,-1.8053152040712277,0.7594387260757074,2.6772408314962988,3.053393669881494,5.1903970529082315,6.6841012925672025,8.671020005627351,12.173863649829478,14.20514605867768,16.07483237595658,17.85284984800684,15.983261313839812,13.037454252760941,12.108078857446564,12.142564539386935,13.722547246723288,14.765638986306442,13.20681529185704,13.591047856139294,15.16822386490728,13.225743456455483,11.646917440049897,11.371395460311199,8.354144914056313,8.169610451242452,16.435531856985897,30.37338036061532,45.384985788318545,50.63157804685889,37.46882604584707,12.379135788687265,-15.929055640542622,-35.725345215842474,-34.28656038603391,-26.785807000232385,-31.771986288964612,-36.780376238764546,-37.20889794749701,-40.508173843884094,-40.47528399561176,-18.635064437850176,110.25962688118716,375.3340036182519,477.8656585523996,153.74555610944785,-230.44994546563439,-215.94054532733645,-32.38838145972636,-37.552591418728966,-85.23580939935815,-27.108845429648042,3.816255124673063,-12.432502688044211,7.023823624797579,22.901832652403442,9.284923275151755,8.445314233263662,14.313354542238446,11.393118055389866,13.054235821120443,14.949296640517531,13.385440273785413,17.759967307464724,23.181854311805807,25.326356942435716,30.15433837159193,36.32798754377789,40.12302338084866,41.98420877734281,40.762037985656164,35.63986211293938,28.35299519093195,23.009636541777144,21.7134127093966,18.370002809936853,11.123262154248849,7.86327729765749,5.433273214328292,-4.352230626262362,-11.059912775751226,-5.744756158054779,0.33577669883522177,0.5919375039953074,1.1448990659073761,3.409237512429005,5.843264747253176,8.341835900018488,7.447171315607694,2.996701189368384,1.0165609422696118,3.0441933508295946,5.852250647584302,8.975219492152153,11.520960623447683,10.047361306565255,6.884241229614069,8.16530320278784,11.710027557467182,12.74728425890678,12.900330971039413,9.19078268502838,-2.398597582703787,-8.119041464765417,6.520578824848641,28.40900920143705,31.593717225662896,10.248719757545347,-15.53307526779428,-25.689547487588523,-23.53828178860863,-23.768262754491055,-30.342085358633682,-36.01574472283034,-37.541116393690004,-43.018738295897116,-48.56180041180782,-42.57228283383737,-29.07322636671902,56.955095973580654,297.5923129967521,471.2891358391789,239.48515388915558,-174.854133320046,-250.16516160053826,-63.488675717610704,-21.73795512058087,-83.87583346101074,-51.81247795723699,-11.217307181326131,-27.823385380844492,-23.952644343979863,-5.880482360617676,-8.614501616082606,-4.521753864314309,4.139802024638044,-1.0150848193679058,-5.225526594450639,-4.367010893138216,-3.9029550031122486,3.622416679115812,17.325011157077892,28.08414636197645,33.92900091030932,38.57839366242536,45.244116337091214,49.65519615518925,47.44399176057429,43.128338953590784,39.30891205441642,35.94694480560328,34.51845214388342,29.280606289426316,18.328355402704833,11.157464489949312,5.533295822063192,-6.413188223236833,-14.249018909402144,-10.508909441936698,-5.934000157902279,-5.263586786124577,-3.9435251946082204,-1.838454881348662,1.5554029997180585,7.405649882503834,12.200868464477391,13.472388390515196,11.467197693565664,8.533245407130934,10.74263279222636,16.8992324393615,15.581460005504436,6.253555486585462,2.1320237422965658,5.759434983909344,8.744338747435751,10.926410989833094,10.634661942291139,-2.308166237568387,-17.994835241002438,-13.341094810265169,4.758410354224951,18.005757749388316,28.864185497102536,29.72316519010269,6.650038714226973,-18.145304584403775,-20.959495084050005,-17.565442758284995,-24.84784113224879,-34.952322550326386,-39.43422902330907,-43.511456452099914,-48.61560039966718,-46.78146249773692,-41.69257138312953,14.025285440491317,226.72863607864448,461.32125697984065,337.2574922425115,-90.92980512275012,-273.0142379293456,-102.94735969555487,-8.755235306567165,-74.24113109907839,-63.123485419963416,-9.011405111330571,-23.85584147130487,-29.271107506972392,-2.233359829888612,-2.3877283120817943,-6.0040581779802,6.355794474584197,4.722243550047743,-1.1134234681086115,5.054517246289221,7.025335908380544,4.411365790510786,8.852193097977558,15.650158211449385,19.193213847451542,21.982913991916476,27.562100146250835,34.605595648295285,35.530759095022006,30.988670751500965,29.597664703258275,27.3225391620364,19.8932702694451,17.882555601869758,19.278907093802516,10.00339778345241,-3.449697554710693,-11.36829240044765,-20.06761603816074,-24.573675345753585,-15.970617310058362,-9.03365749290003,-13.340359407600992,-14.239432767974023,-6.303582782939494,-0.6743398669045715,0.2547617191816367,2.777861419824072,5.737511961812292,4.321633973093023,3.2765679447514238,6.88262055082474,6.573871239618951,1.211874605578763,1.820536112664652,5.9320152249604,6.519024048925214,5.236368401179597,-3.510296090708735,-15.77489505745932,-11.542495649290053,4.629012660437885,16.950795483018858,25.671212031959065,17.396542685058556,-13.062379412700679,-31.254006384816066,-26.3799572355682,-26.31437895202009,-35.66948245109069,-40.78455987309559,-41.59318450852844,-45.13969443417533,-50.76542703651108,-50.209896502886664,-45.390151410298586,15.463841935809967,236.3925358136678,462.69463427724634,313.6965115944932,-115.47746619842734,-270.12157357210333,-91.97327359047785,-11.273941072913086,-78.36722143863463,-66.472914137686,-20.46527275917866,-33.35975295380167,-29.907501964911184,-2.228096732463647,-3.4468215545242007,-7.503685947900481,0.9721247406158309,-1.1840268500992321,-4.226062643617932,0.8027560058970444,1.491602834230136,1.4987905313516912,6.85988862890255,10.883857585952828,14.940390020997437,24.100367179550286,32.594055654899584,34.27559229759708,31.112663015318905,27.530253174357085,24.954923545286906,20.367011414522224,11.998080910337181,4.264639337771532,-0.751019423621768,-7.203353503934496,-15.50568628749304,-21.55170823964972,-23.323561972266667,-21.7204704475774,-21.049263607583338,-21.738056155666364,-15.660493700541306,-3.8033085868254197,2.241748564358624,2.4290690353858873,0.6705523181545185,-6.925738079319441,-13.331796141784471,-8.175673077309948,-1.9789945648946263,-4.420795612138991,-6.3782903172983305,-3.970782433276381,-2.42718141686853,0.03458905705703508,1.932893055485371,-4.853582150999319,-13.957207553993179,-11.797656876769748,-1.863964145184179,8.98129914622375,22.193428441439583,25.600697138311254,6.177623213468568,-17.679112500878606,-24.683813973203936,-22.616785661597554,-26.29617891009622,-36.750007825442395,-42.89191954329527,-42.386842441452,-49.506670508085016,-57.468548898279344,-53.089150958444534,-22.449494265503375,131.3122227958399,395.72591128358016,416.14639136843704,33.073813466651934,-271.1037908321958,-168.55074047413012,-18.196050825875176,-63.17541465010932,-85.29257073997076,-26.442443341050566,-23.38475591917014,-36.92977293000676,-11.637173492360748,-4.014066238221007,-11.712805742076547,-2.9421316169529264,1.071276862384352,-3.553209858904891,-0.8379786743195321,5.194010765612463,8.66089319808922,7.142430713383866,3.5987637913953447,8.373443892401557,19.14992440502248,27.785397803545223,35.88376429751804,40.58022387080018,33.94913459111986,21.15967895411506,15.932626196047151,18.574754056900716,16.535470561238597,8.932722949967822,3.3112353309208125,-6.169591101818833,-21.42792793150023,-27.61225140984352,-21.71584351565939,-14.905182638388746,-10.404433566082734,-7.883613635197911,-6.60578223018817,-1.461674807225739,6.852144845450829,11.95969912512367,9.365474343347515,-1.7268110570454933,-10.635001496389355,-6.3864980346245535,0.9634573981380887,0.11980340350986274,-1.585357483062233,-0.24710442665041166,-1.4597975140303556,-2.7146049953897755,-1.0881539194291188,-1.7867607438937512,-4.045162866158012,-1.8124215063559257,4.105654916325068,11.978908522844572,19.90811277349721,16.231950135957746,-4.626084046277455,-25.19531088216504,-29.19952109067309,-26.388498304885047,-31.662007375084762,-38.30589980551561,-39.75129034635096,-48.35755491819543,-57.298740533329045,-51.4353318518158,-40.17892588006444,48.69590053484889,299.49774864826105,463.05528308850904,204.52974938767753,-203.9432186872878,-245.93887659499893,-51.85314749943524,-21.822620389497132,-77.1805063652161,-33.81585293751725,3.494671624407225,-13.763701207004017,-2.400899754280225,17.236504326256004,11.049407838153613,15.119799254520407,26.02020868160512,20.89863791732825,12.140960430939627,5.845837184611916,1.170957941100589,2.097095100310053,1.5831156476492332,0.12505027767114285,6.910130320846267,13.311383408177926,11.064806351584028,9.000332002852732,7.5034501291075735,-2.4048481597333513,-14.535926639219078,-18.241639608320547,-19.66687352044807,-26.845845913083302,-34.923461509442355,-41.316496182012486,-50.59484956551239,-60.13167441745222,-62.690248576008145,-57.162572525981474,-47.25507447962999,-39.931401152864666,-40.378418304123926,-44.40883638729852,-45.431597966936366,-41.459120108400526,-35.51014438908726,-38.99290388267261,-56.32726176282034,-69.76305256710624,-67.24561952737022,-61.224104593554486,-60.25479560171394,-57.19250547623528,-51.2604004980857,-52.33868505482516,-59.50892809272989,-56.45609074624943,-41.72904470655422,-33.15630170709805,-29.135663296437954,-19.7953118183554,-22.233254499406826,-42.86480478169136,-58.01869604260138,-61.80895602782206,-66.92219710196623,-75.14278835895783,-82.62845917656496,-86.63997061101935,-90.77084786561225,-94.49210710844257,-90.5124394559743,-85.98691435257908,-16.075287518288143,225.50944397944863,434.257274868182,230.52567678516263,-202.20238547893365,-308.7677381118489,-123.3011631433538,-67.55632920837675,-126.05084951114407,-96.32161700512683,-55.9324261538097,-70.62688699093346,-62.10120385532218,-41.1423368114437,-47.690086041342454,-47.40304172635024,-35.75763665882626,-34.924471721118906,-34.21692756101273,-29.499977437007615,-27.931068774256715,-25.33429922238828,-23.60605614078446,-24.8439617392335,-18.975604103475334,-5.53114551070346,1.5149616899720968,-1.1260026360719948,-1.2211405102710415,3.2200147315577965,-0.7686242247504538,-12.801132436229537,-19.922882744903255,-22.8202057701196,-27.783945258366906,-33.23629874206853,-40.86531587126737,-51.4471189672996,-57.02892527200768,-55.93708823833262,-53.481224836728686,-48.19713488211249,-38.73869020381543,-32.44562319948764,-35.38243189834824,-43.212538608240386,-45.10131489939538,-36.50847745680535,-26.004748081563804,-23.162048682257826,-26.577344831928215,-30.123371531295497,-30.225678428382338,-27.0895096637323,-26.937633916754265,-32.52616717603702,-33.33535954739962,-22.469412685223418,-8.271253056860445,1.0108227792753937,0.0492475583840033,-16.938041136923076,-41.55492051453581,-54.97965453914635,-50.895100455648304,-42.00193799614399,-47.939540712119765,-65.1555902515235,-67.5555544623324,-59.485995884493384,-68.72889279842016,-89.74457450099855,-75.13728089096546,64.27780868780552,326.3849941468592,422.18701726053433,121.90075349797023,-237.53593080933487,-236.92776812272294,-71.03630858194136,-65.73128821329195,-104.78533761960419,-56.030676717705475,-32.76242138938146,-52.090003996144134,-36.625971576838474,-18.02540078530032,-25.20521668271413,-26.261638811960303,-21.459239913396495,-20.06632571344754,-16.08670262699134,-16.085147287400552,-17.84568852092356,-12.566688885941936,-6.036409971982788,1.397877293775391,11.403961752679063,15.101718910202825,14.76900930775495,19.13082491603571,21.13773426964145,13.10487013737368,2.5794522397804194,-1.8157474634492772,-4.353455788007466,-12.374859230350168,-20.422776020409746,-23.233408152815297,-30.605007675511054,-41.574558372710044,-36.42015466321417,-17.833935284087005,-12.979684227690207,-27.369498838696742,-40.46378110763703,-38.87993713587118,-27.7922217650619,-18.79266122135286,-15.901901771098245,-16.328553355536854,-18.889757928810884,-19.670576840808152,-14.210170631206324,-8.479645911480304,-7.546083185876412,-8.428397623133016,-12.331369321404956,-16.74265322217917,-11.083419034935662,2.249236127214587,11.57401101230129,12.17172584965267,0.12098155111092979,-22.000768508206765,-37.748890086048924,-41.621791667324985,-48.93974954966567,-63.56551905515838,-67.40925772210363,-61.380265790504744,-66.81070817659587,-73.09972367387138,-63.946916593005135,-28.898432369977222,124.0460330894852,390.35339405958115,434.5272028165531,75.95526084211014,-251.69778543744854,-195.0472876830159,-47.89177054663882,-72.19640356690147,-94.20874226949816,-35.79106177710361,-24.409439658511857,-45.499529054143586,-29.55738812086495,-13.806258710480076,-17.11271461797194,-14.115484003304998,-7.348256857454372,-4.215189566667188,-4.139952521119726,-7.8076309716886225,-5.701237072923739,5.170269671363422,11.842373675063048,11.304822335180726,14.797696497431097,24.274165763416416,27.191342662857352,20.947976082016005,18.615944824831534,19.19909517174808,10.405501250819878,0.2633456301774135,-0.6679485973815646,-4.427948741209136,-16.331620768647785,-22.62610983179865,-21.836167340235228,-23.849355123088426,-25.360321373767356,-20.504422629493444,-14.593028590862808,-10.484989599832431,-5.740024232468919,-0.8392142000969471,4.53897712066089,7.0041658746068265,-1.9431946993782958,-15.491010717480675,-18.08798165864146,-13.359548361094923,-10.510283760844532,-6.724036737152204,-4.936620337583612,-10.226093518649616,-11.575048805339023,-3.312858969045781,1.0919277375018126,-0.8042357347473033,3.4942784522562977,6.796356678513245,-7.949143243805226,-28.856648121956677,-35.3716828987132,-34.18810080241522,-39.48944352994363,-50.209246533577094,-57.50234895051813,-58.228566067093254,-60.69504710583921,-64.66275055165995,-53.899885020787465,10.013551605586755,202.96311037982974,451.9164915554799,413.3024461016723,0.9051123530670537,-286.6109872566853,-168.83564158291125,-27.639477511646362,-80.80559511521254,-92.57007360964258,-25.464246992585537,-27.900065045779744,-40.85787061529502,-8.105715150170994,-3.1749115234594534,-13.542272058355442,0.035648895406468206,0.6133197615011601,-9.153971464942018,-0.4980748923241145,5.048702757811683,0.03159474439273158,4.432997874871895,12.426495192011334,15.888327341367082,23.41298295009696,31.231111372952217,30.074234564605433,25.830249743474837,23.45425691829744,17.402921380670307,8.500553959968396,3.4316136020571837,-0.6111430175967791,-8.316968267275062,-15.677871620547686,-19.796072748519528,-21.980066684931625,-21.755290667572062,-18.78449264261635,-12.976421537387884,-6.001849335645855,-2.2696972276148273,1.9491500755942508,10.14081335140677,9.688440539176986,-1.2641369595653682,-3.58529166089888,1.9266387013942974,-0.5452943743481136,-4.892625066000997,-5.081834089673874,-11.359246061047429,-19.587324197750434,-18.712847905733245,-16.88382886212625,-19.588450381231137,-15.862740535361496,-3.2758598187318295,8.921714815489604,18.718443218239162,24.19030863523578,14.647336254645296,-6.551137088659792,-18.96793089988887,-19.33784350550414,-22.7099571183263,-31.574916059622346,-37.13852984507561,-41.69394130610063,-53.69503834733582,-63.644476643470945,-57.50653472360624,-19.866483969072362,127.41373551075574,392.5268981699025,473.4444775518351,134.98597112393108,-240.87452336834457,-213.5312511292497,-31.081360302325905,-44.671211690521595,-93.17411926621887,-32.452076784280976,-5.636907750468861,-24.588144342772523,-0.10946647602495574,17.822184180540866,1.0571114692748367,0.7555438203409359,7.39286368584175,-0.26807109357426384,-0.22275815691837053,7.6786072559484,11.073112803212048,17.130944297617198,26.687786960572176,34.20324790527157,41.127485048605244,46.385822408342136,48.492973560532334,50.24133756275459,50.16750031243253,44.03214901052516,33.90305805768183,25.836876106146583,22.28779671991517,20.403910640254807,15.05159089447162,5.941614009542732,1.272613558301778,4.8683621015006615,8.530473977225618,9.64453058637369,14.487163586573033,18.79106707335765,15.442969896666753,11.075361042040427,11.546562826361466,14.437305772778107,18.412707473552263,18.809131978957044,12.993707770615611,12.022054070648082,19.806275563892157,22.731184916471378,17.471022284810118,13.440284611403303,10.687479840747852,7.675089416543681,8.245943112323207,7.242903436632744,1.4082611018619104,1.9607744788892205,11.472025769064746,22.173854169590342,34.92462433017205,41.12241079105476,23.863311286642325,-2.7569493495839623,-13.042399538578398,-12.635109599871583,-16.130912555841867,-22.341756695926463,-27.94740080085903,-35.41965477033551,-45.529476124264804,-48.65319777380452,-39.66386361331171,4.737659151241473,175.11838763635245,430.37352061764665,428.41176815366646,40.59205988048751,-262.69390481797114,-165.31383208390687,-13.924478661045418,-56.45852056914427,-79.21141168208442,-13.827185376170643,-4.046495828626701,-18.110011434011067,7.505082211249864,13.827845193419478,1.3918777441109107,10.673258003384447,16.7434756927601,10.70698387219786,11.514579865912765,11.146471727465507,7.818721693348465,11.937237417586623,19.296074385502404,25.880325138090164,30.942789939043827,32.644944863163175,33.9102209116173,31.809498010682724,25.243691242533146,25.256137619210342,28.78944727484768,24.51783597461302,23.13223957375684,30.712795974905152,28.829960600654502,12.774259134360314,0.9611107940097412,1.3834128049342667,5.570439933233509,8.568128606430115,13.394528297771227,19.321432317185447,21.9101480639883,23.071330022008738,25.535724157939487,28.636552201627875,33.47279364095609,32.17662207548558,16.170934890715497,4.051143677490529,11.668604222951693,18.715712152203018,12.797711126558202,9.053481336711386,9.238471949856269,5.77787833973164,6.554661901066897,13.487677591374073,12.90983330648206,2.4140439298254215,-2.8053664363551327,4.466566458715526,14.512858032138126,24.677928114690964,37.66965138826305,35.371835771001926,8.306527969546117,-14.046522463898565,-13.660671850835861,-11.285172273810067,-20.89709868139352,-31.63921852178671,-35.05476047580402,-39.14028937454012,-45.21040639721225,-40.92553469122583,-29.858342841002276,35.195301112942374,254.27549156079567,469.7075997481648,310.3996144350404,-116.69277799455102,-265.10788249950673,-88.79630349399866,-11.758105498300472,-74.87748816187525,-54.67513520453248,-2.6057936348418718,-13.455202607679087,-12.070026539088495,10.30870299769818,3.648563548916985,-2.6966979580924004,8.066761445654084,10.393305906916176,8.449257195508283,10.540395795094618,10.739796144340392,13.737258559789286,18.363372821105727,17.007697644853668,17.014752057792847,23.439447043922232,29.05869382554612,32.81615277006554,35.66984288728346,32.2217402649474,24.86993928501309,21.110640468911495,18.92313912716836,15.598503554106387,13.046988757128108,8.824530579451169,0.665408242537346,-8.32516698613305,-12.732680447171541,-7.36945766262073,0.5175911288872186,-3.103925203528444,-9.41376233155903,-1.8256244523067862,8.977246884316394,9.553867360610901,8.06904852134846,8.602089727553476,5.812753452634592,2.93826995794058,3.2051996608110995,3.2772943656393974,3.8485779161399893,5.761586459860348,4.407230285247464,0.22630094551140334,-0.08547227184058481,3.1260288328661376,2.224401583869299,-4.195010097328775,-9.323337877281245,-8.80027335640699,-4.21464756209615,2.7392245889735136,11.565024919636876,16.09871845576722,6.016812314417738,-15.72826406013562,-30.27448444680884,-29.74897818718416,-28.789574650868524,-36.489436779694586,-40.96788337730654,-40.015784194764635,-48.241596060596464,-57.18695344504426,-55.175766159254394,-40.27989687260991,74.88179398733723,331.85320022074603,435.06397084330166,119.00324105696336,-260.30425292268194,-250.55648440716723,-68.3388084046514,-65.87691984968413,-107.87581799909952,-50.39814531145983,-27.82071483996117,-57.03984508512536,-38.27937923797073,-10.19350171421047,-19.19171625706519,-23.466182223850492,-16.321213132539732,-16.833949711461095,-15.535957861277833,-12.287931714615294,-12.692906018944086,-9.424392754138704,-4.288487950869257,-2.0146979375184273,3.318290334255206,11.264631856720587,12.715388650592976,8.157797155567447,7.04422058425757,9.243517563315262,7.30638388201503,4.29471426799514,0.02219642517769671,-18.650876033946446,-41.922911162262004,-43.80882218167278,-36.13652755078431,-43.572774363702685,-52.82603879830516,-49.96288507436356,-46.124582292742815,-40.37604778979332,-27.175776184650715,-22.402490093867357,-31.357701330350707,-35.116183248317206,-28.308211382613962,-24.62788632561511,-27.054668091500915,-27.67051890059642,-27.717868680521917,-31.30129693856047,-31.304963881419013,-25.744843062770677,-26.92888567688273,-34.69137242220656,-35.80798687267763,-34.074970379547956,-36.73110302675593,-32.35165586897241,-20.162467657897956,-15.650096969992333,-14.850564469739965,-10.307629841953862,-17.539959679009655,-38.24085195385335,-50.696507336813966,-52.663446203340506,-58.276156064159686,-67.44862653150149,-69.85552840874703,-65.60926090477781,-69.52673798102452,-78.69595401700315,-74.37123822054161,-54.49706074552767,45.409982537751944,288.71342551962283,427.8618112018364,154.81777268876,-242.80700500491955,-270.7814338551794,-83.66565184346477,-62.442161762707755,-108.44550384281122,-61.25058980576127,-38.73034533043966,-64.22071439847733,-46.45861772477114,-21.53736840858506,-26.56654559711434,-24.53969073709299,-20.091894861235247,-24.107951853635612,-18.628180158688274,-13.98194194961178,-20.55881448325068,-22.67247961309656,-17.6847585358654,-11.454974518279315,-1.1689241725391497,12.947633027718602,24.425769500025556,22.043614599251146,5.874580851308114,-2.130488918330336,3.2513513791855644,1.0755344984672206,-8.063984751506837,-9.260386057010418,-11.919626299139715,-23.670691219147255,-30.036871077935615,-29.145608236410485,-35.00788049806521,-43.7652676795381,-40.72544749722051,-30.627797945722264,-25.957663678665295,-22.41583825666087,-16.04441007233678,-15.44368672485546,-16.415575095624327,-8.264921926441133,-1.5893370452317654,-4.428603208016426,-6.31265909771761,-8.46373485876503,-17.401951189873635,-22.33761802664048,-17.250243919826218,-11.457504002128438,-13.764594348380584,-24.58853420772941,-28.85585876958914,-15.210543676629996,1.0656667671200495,10.17022566950174,17.10394429011957,9.579886658690715,-15.93954378538945,-34.88630478346313,-39.84395368598105,-43.454425512163084,-49.251988303684314,-56.10329936354386,-61.60957484991947,-64.31181632823574,-63.94475205396381,-59.85088062662107,-42.186427505678026,70.76529286306881,323.262937409784,448.81114565649295,168.64540305523937,-210.86165112257515,-229.52409071087317,-55.78081340428848,-40.948463249188116,-81.44073743494903,-32.805855239383966,-6.788428532813008,-25.271284857953177,-11.787766935518077,-0.4147012562152259,-14.991925840624623,-13.31225977502223,-0.8017950018098183,2.067361603989311,5.249999707388822,6.913761457949372,4.385853117492445,7.969008065678819,14.280892111615824,17.887706923612534,26.10363576118077,37.20010394859185,42.07310085117369,44.94157314457186,47.46516776882001,37.149911018812226,19.56268953948767,15.804480996269778,18.590529434701292,10.906968911910937,3.3690404256516118,1.7235352181193946,-6.354816275555135,-15.253351142533297,-13.691125149020504,-9.333002675618017,-5.989187333980077,-0.3288322138768578,1.9224618631677917,1.512155450640913,7.254316582532104,13.59787698739935,11.71717732419722,7.970226609202896,8.26877922614027,8.86290217896472,9.136853303050604,11.788760948353485,14.650289794441587,15.192015216354674,15.719812452149245,16.310659615045857,9.638125424583134,-4.317223036332118,-8.774241442203351,2.684098585557333,14.28272484246942,22.53883093303545,33.50174009960645,29.865964482019624,3.9114421217638586,-16.077560292749336,-17.319539567625505,-17.645587166020313,-24.06698102617823,-29.852605610254514,-34.185326846843395,-41.14064919412147,-47.10650880224881,-45.9328750518406,-30.615316127590773,73.48550408414081,326.4001944017718,484.0668186594907,225.52570163782747,-194.88002047066055,-259.6965664522322,-73.16399193132615,-39.551247959965025,-93.75836551823929,-44.42830227014579,3.155850420143606,-6.094927648918047,14.619853625923206,41.43339045271097,33.25214430915372,30.52582194856663,34.645877453095125,26.40072859118237,23.27369011189456,26.17055113715987,25.434077934453114,28.9020391474605,36.86423272205412,43.58950418892579,46.05950975650211,41.34932628725719,38.467230465374215,43.418879220402225,44.920359076396224,39.877583029551374,34.38483247271666,27.49580201143059,21.91067494283712,19.575055240597408,13.242965322839424,4.624226620534333,-0.36002470534388564,-5.625281786825791,-8.777432438481156,-4.044510440003027,1.2931205001964976,3.694067656312786,8.591750035090723,13.25053261948161,15.190162854782606,17.928314012952793,16.51266484365621,7.426313474045976,1.9400226445491207,6.1289730295307905,10.341976535761066,8.819366769459577,7.320673265088388,9.039304423251899,9.84391436139016,8.471867506599068,8.175147246738335,7.72549357160641,4.504492629548752,3.394031781306836,9.585504703085146,21.15999969240142,32.554603790507095,33.25676305052943,15.382970451656204,-8.863638517931943,-20.308174924017916,-19.319097416198687,-19.18562784685342,-25.848388978122067,-33.61739359121936,-39.070532381263064,-47.506274461540016,-51.73168604687069,-44.350110417238646,-18.971160378947616,110.31151172401917,370.6559755424776,461.83073681948304,138.47770161564364,-228.63035670728738,-207.73028141914403,-33.72231965552698,-41.3023383134709,-85.20856626201392,-32.91530528422739,-9.308101739894198,-25.557549229642717,-8.739823768616771,3.2242275444350126,-3.474086797763973,6.193458124943753,13.204992161706663,7.047979702634873,8.164730847444023,9.749015699338756,6.907487734416808,10.568789774340983,17.367279738251966,22.89730128115979,25.106187926183164,19.427441434727648,17.892429922625965,28.815423669158246,34.25659995789701,26.485419003541598,20.498686837782362,20.93811672010561,20.056482443893135,15.476048841059333,9.46052281673931,3.7776922555974064,-4.6972616320017035,-19.134282382709053,-28.33986611430052,-20.315528756025927,-7.293540701846627,-6.351177344422302,-10.13591503417184,-5.103387995027256,3.2550943099403886,5.525900130244248,5.758551879988829,7.717628031263075,6.812625503936228,4.1921505299782575,4.63064936261325,3.895947137059218,-0.38942160356364286,-2.4205194621724635,-2.2712004409986273,-3.178062093745131,-2.8873644968561143,-2.6039270529957514,-4.548277282297687,-3.839623414498233,1.6533782147770024,11.094362476349563,24.48426015384277,29.271696592162844,12.34563706773081,-12.672861729946522,-24.907168138366256,-25.646805630788272,-27.60398534281329,-34.542127497759466,-39.39249172300571,-42.62030016451685,-51.55752196118252,-54.91490160023432,-47.13196696638353,-9.378924118307893,158.922716510619,417.2841147432852,406.6527569868574,12.805914110962437,-271.141753481131,-154.70538751140498,-8.01101679610509,-59.784753506958154,-86.38672964441156,-27.414253981953944,-21.375000669135247,-33.828667539410645,-7.8241105043266215,-0.633170580075717,-9.806132806727193,0.9355483404569807,6.785476664427442,2.188767872937677,5.840657564215336,6.753709381265612,3.153272247420963,9.027319723191086,19.879996232098062,27.92962625934732,30.001865733367243,23.07963319697116,16.108244523621007,14.216992025880266,10.42563394795357,9.841261385511455,15.758717100315272,13.560042743058133,4.942925472954061,5.823634890388799,8.642736308876977,0.7071230782972635,-9.786760691086855,-15.475095868538435,-19.039686587544615,-19.5024784380086,-15.137900056761183,-8.959466265612274,-4.00084223181201,-1.2325391375534354,-0.09598020547877972,1.2418029786955955,5.126966512320444,11.00028835856622,12.610274085486587,8.026410573536182,6.212895917157439,9.190237823355057,6.027287608078604,-3.882448469793996,-10.187017476173821,-13.550395173651516,-18.45756893059961,-20.825097071305677,-20.95319344309415,-21.95461581351232,-19.412254790476496,-13.33516292809696,-6.053630339174752,5.41609762143549,8.676318121671201,-11.94548473202238,-39.11317313540385,-50.146850199100506,-51.83267253741307,-58.038640390460785,-69.6662574132195,-77.75227217007978,-80.59895196309381,-87.47283588807323,-88.05527864593452,-78.070626653183,-53.60852268107652,90.67875500357988,357.6982631414729,391.3865037004899,15.854294031845356,-297.3913693018189,-208.74317002737172,-56.92142865910682,-90.4006182005358,-109.55359549727673,-51.859376929110894,-44.2144867010779,-55.36787470655618,-32.17010832607106,-23.441811930999705,-32.28189780487888,-33.259416052177514,-35.17142302276107,-32.76925438692156,-24.059138491323118,-24.387577146236353,-24.96379051235572,-15.50718428476683,-9.246583547041034,-11.588328690198672,-13.587159683259124,-11.725548142778564,-9.683498627865347,-8.773663888674022,-6.803840880745788,-6.68052321667291,-10.924312814790959,-14.353422932034889,-17.736126248341762,-23.823533180264235,-25.761174817339352,-27.73815443074841,-40.414510964956044,-51.484922118982674,-49.31292373388032,-45.074099690177846,-43.18452788990482,-38.578277781295654,-36.05205886414097,-36.581372600403554,-34.19088860825532,-30.372292225667493,-26.687135844371355,-22.994398007942152,-24.060342908845726,-27.56024013207709,-26.470601546884247,-25.059962183022094,-26.30887123693857,-23.880192995561984,-21.18847318667214,-25.79904772671697,-29.93095093193805,-27.627065733911742,-28.030793942806888,-32.25430971300345,-28.745554803068927,-15.557265345243664,-3.3242405508629957,-3.922731628480804,-19.97112315542976,-38.33739294274309,-46.12107274339021,-46.30935584841258,-47.3179569941812,-52.72968527388515,-58.83168524594071,-61.701637801174144,-65.52419768293956,-66.20821762705897,-61.17498986613236,-38.664654628550466,97.94328537910587,357.18786998090843,415.6998104050192,70.87306675330468,-264.29024663468937,-212.63517116680038,-51.12037714139267,-62.72551078314392,-85.94403579075593,-33.246492147312395,-22.510813380132532,-37.36752749010682,-23.050617356351886,-25.17807251687978,-39.28876207548423,-30.033041860180305,-22.457967145299328,-23.60868865136281,-14.100292446815473,-6.330635398137904,-8.29149118907521,-6.503973325316167,0.032409372305279405,6.118976998467756,13.185202791311522,20.278400783434233,24.190101691683452,24.19727064235807,22.578283758122296,21.994558667612843,20.361450231098544,14.702396486871198,8.045740824020957,4.0639861170497795,0.3352615930209186,-7.401105627323606,-18.047882080996132,-25.498686927362293,-26.486148685386226,-24.4015082656644,-22.411983981113476,-18.82945048232724,-12.521094372279567,-5.4076901514915345,1.2171461063161333,5.581761154887495,4.233543447658745,-1.8116236326528794,-6.089200022875014,-5.0166783588310295,-0.934384453072024,1.7491810910331527,-0.20189242964555243,-5.247105442193818,-7.562803189572445,-4.529430699599467,0.23120591047694317,0.947097273463906,-4.76231254813469,-10.594388949656954,-7.660221477514478,3.0806917783201975,17.316090904891478,33.53824655643288,39.19317644236671,22.200556919707033,-0.9696897453145663,-8.787842706744074,-7.670480969802293,-12.946833272369304,-27.877579784635635,-42.85003537952732,-44.28277849261655,-40.17516257099184,-42.743577001703585,-40.01584203658299,-23.478749822722705,60.65869967371478,290.7866435818037,478.8632286994981,283.3946064706117,-133.15265317765792,-254.82012893106105,-94.31268559234283,-42.24246996858349,-93.7448227463419,-57.84913509628076,-13.239402663822148,-31.675889285467555,-26.698636599435677,1.0841317443179062,-0.3807204686000816,-3.2993055472203174,4.638925449531374,0.5768713147656506,-1.9244095217800812,8.390679935183659,14.095699565702851,15.552653219685457,25.970598174613514,38.8581931110121,45.79138596933221,52.7941734610656,60.224240829937926,61.00563932762511,57.381887897205786,51.64626947061045,40.982017508864395,33.00437547448807,34.26345961396102,32.90366023680489,20.82975435030627,7.9937658458033525,0.4826010505708318,-6.62337461433324,-12.090326370975738,-9.579509726770599,-3.2183462043322457,-0.8734335367279158,0.6185909770129285,5.195157577310816,8.871317027734662,11.647761586851193,14.902696677898689,13.308390312224692,9.048653285027342,11.099538818459145,16.056268359818723,15.80828653975357,12.004319064848794,9.2478087174741,9.493652931335255,11.586379396619023,12.914156007282877,14.674858234865365,14.779763504731637,6.745184692604914,-3.24020783211739,-3.7259616552274366,2.176661837620916,8.33475560992192,15.999681164161462,23.68181860850187,25.574968879272905,16.95540813325229,0.20954681027996358,-13.61586741660157,-18.993929327078185,-21.741328977660665,-27.894444229186337,-35.102414784692556,-34.708440069155365,-32.51793638312383,-41.16015494868008,-45.5743330907288,-33.16510635328666,25.027330783268752,221.27259062485757,458.4036116324574,364.91306493986275,-65.32645744996546,-290.3233906323574,-133.58298361391144,-13.821372714222644,-71.80231779878197,-72.55658136251326,-15.036026224914472,-19.86672662583434,-23.35623581210335,7.992642392579652,10.790014590001702,-0.8729786083972737,6.726690164465907,11.572490246621346,8.126245536719601,7.664769989098572,6.123128557720317,5.9075941322591135,10.501576612729135,15.4388420732461,24.00752409536269,35.01599607602061,36.29790433097379,30.908459771125887,31.105328123584176,31.586304463860078,25.21655835814144,19.840110877772528,16.89047338967986,8.56077111598212,-0.24369070476703492,-1.3693877491960968,-2.482087412812314,-11.047066913882574,-18.583819578747885,-17.043450261005745,-11.339514617798152,-6.226115407083359,0.10337796915812536,5.667215647156773,6.355612926858453,3.8487724939398764,0.3227773769136033,-2.3210470337464923,0.6678952224981769,6.970689183023695,6.921959378760892,-0.581161639183844,-6.058085392501912,-3.1866680992373335,1.9261804005287315,0.6161321482160989,-1.5291744252486748,2.4415018522638805,3.9155195036068724,-0.06666699536992615,-1.1323718968879684,-2.4701823428506082,-6.298421335235941,-2.7570434719500896,7.005885707884798,17.062540413491586,26.59780122860473,22.359462048335658,0.34884663977633146,-16.780724203077003,-20.604835206602957,-22.699376570832193,-27.114362280224544,-34.23418087305161,-38.62405517136138,-37.40108423512334,-41.55674917462807,-43.963772776446774,-36.3866163237779,1.6779526281554382,173.30324824698343,427.20270860459556,389.1039265636763,-24.729065168514374,-289.70068501240894,-155.2408589100723,-18.92155387545791,-69.52301412586691,-77.39396543909272,-17.220235209611083,-18.89599657288171,-28.387383802523402,0.8194872342064468,8.862653689313005,-0.6096978594056912,0.8069386496484872,-3.094285919339262,-7.937512173770771,-1.8501048735722705,3.9550995472582873,8.160730320273927,10.32618771418287,4.001515779470438,4.032482394954,20.24268089386566,31.391465378947,26.502019363074936,19.785219484352048,16.109109408914534,10.75827949692016,4.89580958068856,-4.969951427186345,-20.572471320752378,-30.71051030594255,-34.274833347513365,-42.18562548554622,-50.26372384939933,-50.75124008944586,-51.05124385533766,-52.49251651929424,-45.5659135506191,-33.928581780741794,-28.78301176527617,-28.14003554280474,-25.635279283567428,-23.3508023826235,-22.724839716127796,-20.95166461542773,-20.228004075327107,-24.225652744430946,-29.997532210060072,-33.59131203394443,-34.19106226108043,-31.925310463130522,-29.113366658736837,-28.93127880196006,-32.01586462506809,-35.506969132300284,-34.76776061958569,-32.2209026131784,-33.97902734487515,-33.53946496137682,-24.178417617587797,-13.579024730623416,-4.01337125324477,3.829587937961037,-5.125735347641161,-28.990960760294584,-45.64002288461654,-55.33449386339548,-68.82401830510634,-77.38870751485521,-73.56809390670355,-68.88225688169595,-75.34496938973575,-81.48320632425154,-77.51368136096947,-65.93015063193212,36.96352163855433,297.272537298685,442.8413591287132,162.56674493555374,-240.4348785263433,-272.5185670632983,-87.3438321735265,-61.63023502751089,-109.75928713503397,-71.02444338999052,-43.18002303276167,-54.415828975665136,-31.84260563783721,-10.94318942127127,-24.908774559983385,-31.555209898307325,-23.663747304656972,-17.395216190225575,-10.684725775433009,-12.494229205588148,-23.95728097563424,-26.919027749376617,-19.654325401410382,-10.694036690212549,-1.025641418065689,4.513565326727139,2.942208511125628,0.5951598656622679,-0.6725446765902703,-1.951618652094563,-1.139735704782069,-3.1733679694637473,-12.379591427486304,-20.02042982180854,-22.49886038053939,-26.834843546301073,-31.926876425280454,-36.35533225215401,-45.54275944032998,-51.61241477107359,-44.3459546771135,-34.70627591864194,-30.6948877862896,-24.61684943616232,-19.052397964183797,-20.357199180056014,-19.836997226928617,-12.861795404518332,-7.768582794034302,-9.251637136072496,-14.169518533640687,-15.955604354565097,-13.23371579468057,-14.22258461507527,-19.80501769062622,-21.380473987221432,-20.122247631820578,-21.417627119767648,-22.924061313952695,-21.467545068604302,-16.179468866953712,-9.399560153377664,-2.7107248913273168,7.541723409534811,13.419232124208783,2.968566035228349,-12.012466358095025,-21.705302470048956,-34.30855694126229,-44.60351129804973,-45.35483586872462,-42.5906589917137,-39.038039411476674,-45.40949659404863,-62.76628843026285,-68.89909003919146,-48.309955451019334,71.17939328283992,327.9540667949049,439.8612745491483,134.69502973607942,-242.32333813973537,-236.27550729913776,-54.34987467507511,-40.41399215749116,-73.67029443822008,-25.284209718661945,-4.393553366758461,-12.962841706587575,16.780013054958197,32.027838678821595,7.8766444983833495,-3.5509150705478056,2.666027127277477,4.753900407980986,5.137359702012951,4.654225153426147,1.2659854753366346,-1.6902718054137331,-1.9130357317803544,4.074713940111316,16.54500298262615,30.281544521532176,42.59774665163275,53.19986377758288,62.42421512611994,69.87087424030807,70.49443888460763,62.63673280465338,53.35945488881669,45.61210890818802,35.98468429477279,26.214020130436403,19.005364007522836,11.809860385150031,6.03408831922129,5.177561892996138,4.846729505764593,3.411159904296156,7.58528750394953,15.450986691187893,18.047965374884456,17.131313274600004,18.81883349653932,21.528730517995122,22.402165598995452,22.069393711399513,21.476836545650336,20.611519644819452,19.27367644612869,18.778264824651295,19.69161949553579,19.73235314520005,18.72717714866088,18.070245448660117,16.658232148564036,14.243449828319065,10.447971140317332,4.528391820007187,3.431385648270691,15.204800914558312,32.65276395026772,36.99578805512381,20.652750010687857,-0.3320983662852228,-9.058635252458451,-10.263593811372125,-13.308119713890775,-19.015540758036728,-25.73466834482484,-30.480189656687273,-37.83089613259883,-49.48926631090686,-51.262096109978486,-22.3652356003511,109.46790360189776,370.43540619103845,482.66661480273694,173.47540241570545,-220.90646248764108,-224.34930591200634,-36.66768690792215,-33.580126458851126,-87.82795584237691,-37.909864500318136,-8.869782304948611,-25.344640694281743,-4.634262160552225,13.927865755361093,3.86451812676637,8.781739892635365,18.307444113940978,11.87335776969012,8.511975421770625,11.473812829987786,13.467164878841956,17.48875639534961,20.73464171617522,22.936585006310505,29.617999227047907,37.12990308864916,38.05876592733509,32.35096813146838,26.435506828527092,23.99972182170793,20.796908313578776,16.40545828662018,15.827809513805079,14.773748102518272,7.961304421644876,1.450780758040164,-2.275961782666432,-7.474776773070442,-10.020019602609016,-4.784297069628504,1.5343170411340612,2.5015969710868653,2.5439599589485447,6.019057046319286,9.549793436872296,10.955420822030856,12.17028591477142,12.099713916111094,10.403452543726765,10.823962955459189,12.873165597384414,14.077762698233403,13.380781239394498,5.903153368537026,-4.2450163440665385,-2.2764716552264197,7.4107699106511,8.823889834065534,5.39932330675162,2.600553199024059,-1.904244066479519,2.739516459543026,19.306479493228757,28.565008318368605,28.67976854176202,31.256095409849692,27.632086738269344,12.44612066541077,-0.6390979625558728,-5.540736281047115,-6.992544433944635,-12.219075413252652,-24.296186896469532,-32.885891339410975,-36.96558357628228,-46.17302235445657,-54.05391208384666,-49.054294767769235,30.722117569898487,259.99500770239365,437.95669555136,221.67576461672473,-206.7716093907526,-314.29756907691876,-127.29225855559412,-61.622304742020276,-114.69932175616042,-83.85976596622936,-39.18035964626485,-46.669776733596265,-27.647482651955407,2.6451736482585844,-3.722159321072482,-9.912565305747187,-7.60491400423232,-18.86783448755301,-25.183985134433215,-18.13277964559689,-15.301004906963755,-17.35834221125978,-17.591263411586922,-16.53421698811521,-11.309750154437772,-0.38658867652369366,6.261853621729998,0.15607546203465006,-9.139195634587054,-12.196559307476726,-16.800094206625367,-23.29847150112812,-23.206111449516982,-26.94390906185191,-41.19304676844705,-48.26847564465048,-44.407184394992726,-45.57180612256748,-51.478146211379354,-51.91235577712095,-48.266911264422944,-44.31326047648384,-36.82778744966434,-25.602973724702224,-24.613243175299885,-42.073852057071164,-54.88070172866112,-44.536935514322664,-31.09448776492917,-30.087883571639942,-33.80580831945181,-42.27763958932032,-49.85248051368103,-42.422562232797574,-33.08438711205105,-35.63881557893112,-37.070355028976365,-36.999004968120275,-42.45693256737623,-38.76837875873167,-24.452882663283305,-14.773290703159738,-6.70432696914974,-3.078487186823878,-19.384387665297965,-41.63765719585271,-47.36633336669367,-45.0606905005511,-48.90770631706914,-58.664512627575164,-66.83176608871507,-66.65269201475402,-67.42089096713946,-73.5029389183855,-71.7401863305956,-65.44046148753173,-2.570242409158311,217.51306458934027,427.3884630511637,266.0689081311963,-146.37093682568974,-288.45860666156585,-126.39859763088376,-51.14003581691661,-96.7343339028341,-72.18958902525443,-34.224471118945715,-55.442183484880914,-51.98824765165735,-20.795546264345603,-21.04726502277083,-28.615197019417465,-21.032811252274605,-17.66317466114446,-16.181420355322693,-11.711782830405362,-13.269836586877652,-14.828391194307812,-8.818520053969802,-3.5483444961931454,-2.263444316612638,4.333962753286929,16.657010464394187,19.88759195087291,7.696694101866992,-5.597017066298477,-6.989547300262,-2.4633009757993243,-4.899766282163988,-17.231739143845658,-31.16985777269712,-36.51203491773208,-33.72317152201939,-34.14442681462415,-39.90971877134851,-40.339257671655176,-36.721735454348234,-38.56750791114754,-37.14842427507316,-23.38123814081825,-11.76584493755066,-11.928801489537626,-12.171151018467071,-8.343455289931384,-8.097406047771464,-7.876813416107474,-3.0987654987253315,-5.854271621213606,-20.31232447216169,-26.948955045970685,-17.958698698815425,-12.062616696937127,-17.489675774195906,-21.683917393261137,-19.574040518378336,-14.813828316377034,-4.26738334600649,11.139093764662224,16.457254829361048,3.5243414092026484,-15.57956054116842,-29.834584487686406,-39.378552278759145,-41.99121780952234,-41.81299891488554,-50.05733633704809,-58.83633299251029,-59.08090963640508,-60.656803968054,-64.25666216690385,-60.72877847925034,1.3240555967263532,212.04673619605518,439.7130583421504,328.8663793931072,-80.31769197509527,-276.2684559325056,-129.75626992702,-24.43948561390293,-70.10830818983949,-62.30977853024099,-8.803312854697403,-12.467702787725608,-18.29819854201979,2.496365889314495,1.168616058956145,-9.926367340782456,-5.2634549217485045,-1.2753882766509221,0.7079474990837671,10.425315171115487,19.27160049672355,20.849921103724544,20.638114898152182,25.25712089146272,35.85199885678198,46.645555727636065,53.02061266615865,55.39405827440343,53.64840438511236,48.66150547618619,42.53789619106139,32.29418511878817,17.393019669791144,7.165500454045535,4.523614231176531,0.5892942432850568,-5.548964528652132,-8.397862778056348,-10.400118028190164,-11.161749333890512,-5.198207545241782,3.0685867327126175,7.732617363301053,10.980963413509961,14.193469806946517,18.591636513623506,22.06156982711264,15.115954302918254,3.1605122004738178,3.561262755269432,11.18852766986289,11.637688957160108,9.617433985899709,9.337838258834132,4.088597863693593,-4.191035332576323,-6.8847414884941145,-4.938114863046266,-7.993844575897725,-16.670456347490063,-16.234541665223112,-2.986998817192273,10.104927417359033,24.48929323092686,42.10025501722846,42.152088834252766,24.23888358395508,15.457058559560664,17.37284857274185,14.225822761652012,4.173049193651025,-9.445189619915713,-17.550680580544938,-19.254330675926077,-28.74084078374752,-37.30031663536217,-26.957106681554286,44.89612555878725,264.2674291494728,497.4650671181666,367.56111593357736,-75.24644001028665,-272.26467761481837,-106.83504330469746,-9.886170201563285,-70.86959192879087,-57.786472459832424,-5.60080895423937,-17.908070777259574,-11.356006720913875,25.923588012054232,23.98433103455055,13.253375863794723,23.88418151109383,24.248345718474525,18.735291967842386,25.530656624740807,27.671142254105845,19.253423243203002,16.125009409267804,22.990630817108304,34.25265022906316,44.16094116598826,47.46953078252237,45.43876566867681,43.53163396339856,40.59509824329617,34.205614412889844,29.7913216569261,28.913630566837853,22.750286419518257,10.235412591802813,2.6285398365262154,2.3421296928671573,0.7585596716551777,-2.03967561434359,0.4517789897906468,5.9058528527078735,9.151657632982754,11.107976146747454,15.04998915342182,22.42547498149807,25.833747997874795,15.595801950449069,2.8694712433880767,4.747718913991669,11.947739900323924,11.533158178486474,10.915062605780111,12.353221370402792,9.315403522021121,7.597537267856126,11.752206706851332,13.926518582875552,12.02076927175909,10.776784511775503,10.184782916256808,9.912372793067519,10.10539887492946,7.027485674152462,2.7314116057783977,6.538822306574989,18.903037372801677,32.139720727435225,40.11741213029185,33.14752632035022,9.9323746818264,-8.325004854147561,-9.35931976665223,-7.284852039409113,-12.830865260534793,-23.836619474593114,-33.57271403729382,-37.69243887765667,-43.460677237639956,-46.789978149689546,-36.52094921269108,-2.0040083167636027,141.13739717320396,400.2583739253044,453.72012279357085,97.47084604842297,-241.03746045549755,-178.57503555776742,-17.03657030455412,-44.08069085416871,-68.93447954854351,-1.3667481787592504,18.185991219492298,7.366226831865259,33.086666548546326,41.76930423304665,24.075936286934915,18.002015035828435,11.689612918604512,-0.16499815652686134,-4.572833535567925,-5.340891964062506,-3.05489557323044,-0.47685474866814737,-5.147081578584096,-7.991731289857938,-3.825057598266877,-1.499553993982122,-0.5694839563597327,2.8583461668602794,3.1706316746336967,-4.024170103862545,-14.436162288863692,-21.655625932490956,-25.926053671272044,-29.986077059552947,-35.00781915584779,-47.60386993784824,-65.99426349015808,-71.72910625257214,-63.50708180057393,-58.71886021929103,-57.56592095029701,-54.52497684489278,-53.83474416929816,-50.524187638196906,-41.84084710849433,-38.13208813961646,-38.25515511507682,-37.88958986923669,-44.41214035781631,-51.358832988747935,-46.367508788015826,-40.90377206176396,-44.43839217430924,-45.77701569712488,-42.58499810174001,-41.99725582464953,-39.98823910951613,-36.26910143485145,-39.79978616356695,-44.648226027454854,-39.54463101494122,-34.35961146139461,-38.24573743561244,-37.372801369232775,-24.74843444823685,-14.144004848612198,-11.864889352496135,-13.944020173537083,-22.702984488602596,-38.830128475854984,-55.15526851397076,-64.92265102760878,-67.56248707748145,-69.22547119427114,-70.27108733667201,-68.73033405866627,-76.45474579814102,-86.93932647806217,-80.45236770154855,-66.79942017000869,16.62583541467025,261.6829260150552,440.4186627929346,206.8492424699217,-204.85348320016467,-277.46777487279456,-99.0060911601,-59.16177329565887,-110.78343944553043,-78.13076586981455,-45.630080794542565,-59.065079313908356,-45.5898662707949,-25.479472644725135,-32.20746233441534,-31.455601216596634,-22.504359846792852,-24.061639358566495,-23.066407962485798,-16.88735812761947,-14.969622016135531,-13.813117778021727,-11.375477651467946,-7.105101421837716,2.5619170828804982,10.001465282637287,4.923747308037321,-6.271132351129715,-9.687572376633682,-3.7735355000684763,-0.139840625463151,-6.471029805513716,-16.319125804793792,-21.485917192115416,-23.327126469471864,-27.098597635776287,-36.23976797136897,-46.6080302901411,-47.075787124427116,-40.561347560778444,-41.4825136886119,-44.86964164431796,-39.18377470370198,-31.993729176843303,-26.58890981858032,-16.541936683095102,-10.095406499186645,-13.642154461776038,-16.58913029799313,-14.784590127629805,-14.830811055722606,-19.014699916349755,-20.348081011229425,-10.867100952131828,-4.446462809322647,-20.159346709151187,-36.52374145296581,-28.361730727531516,-19.37239801811465,-27.89238853315041,-31.720452066711857,-23.239107044746092,-14.902576072537492,-3.226575994787261,8.5960327919002,0.07221969520329452,-24.852555479498527,-39.94129647876736,-40.932060408724766,-42.646609540141526,-48.51385735899238,-53.2703450906049,-57.33497383596152,-66.53941377849104,-78.74715817553499,-78.30993944007596,-68.29861253049368,-36.25798912770821,122.9728633648978,391.74231221222055,425.3656913650036,61.528847684521836,-262.91580082711056,-210.699118652734,-67.36924460923801,-80.68092283948847,-95.32772826080415,-46.133123455714,-37.082079746216024,-44.71610274365996,-25.509742653356348,-21.13833143416587,-25.740287359661224,-12.307385667800617,-2.1300234124027497,-5.0490229972777705,-12.273611190570008,-20.538270307855285,-21.054104495611938,-14.714546163677308,-8.15689846355606,4.207796954095651,18.28273097316977,23.61890977759736,23.885844624549062,20.660208571093353,13.557095053180264,9.249289031452816,4.31351589587349,-4.610890568612058,-7.716101872827693,-8.680536484470352,-18.382613264109473,-27.614561979938003,-30.531850797396054,-34.261096426819336,-33.59480001080528,-26.762811190505406,-26.053063693377364,-26.66364433882591,-19.95913111876483,-17.772324069304634,-17.717041368245738,-5.915453564551147,0.8619943321400534,-9.771494927748794,-14.026296249357959,-4.861806717584244,-1.6975973432734293,-3.266446166088226,0.5906049817295767,0.9737532201592742,-8.145953487942972,-14.488743688740367,-7.82729288049385,-0.6400240736133753,-10.485272505274974,-22.82666039731118,-12.737995006801002,8.039855856758727,17.46854842738585,15.428067770545677,0.8780049069097586,-22.49453102214106,-33.7817003079911,-31.52746387730857,-32.720514455701746,-38.80342884502086,-47.739431224363564,-59.349690797547865,-65.8386969469691,-67.58481365735574,-67.24867860152403,-53.78870527930825,22.21863513075155,234.4438501199047,460.292112216877,358.8588228469642,-55.19422862369477,-276.36859321520797,-141.43068028914013,-33.779367205269175,-82.51316998196228,-74.04281366244045,-14.442247581693088,-19.33163029393381,-29.24794647112035,-9.431767890652901,-11.085857777312944,-19.78188412317025,-9.685332491273448,-1.2488408132145143,-0.13085627123326926,0.44787641554428337,-0.14374003090822174,2.335299461481865,7.905324016786206,10.841835154959526,10.676907037052015,11.895246997389737,19.871258195719605,30.12991711636258,30.827094651279488,23.98806116122134,21.33720949056154,20.92527227688174,10.945995441814214,-6.332687795652044,-15.138073250500236,-13.94670453497082,-16.772863999922762,-24.435773330433964,-26.296966512924214,-21.51543371448543,-14.913086890383994,-10.05303285455256,-9.215744368965664,-7.854713350427725,-1.8855457688334643,4.8295427848271055,9.136300623606767,8.8525581453843,3.8564209739175883,2.5215423063710727,6.1141255056161965,5.562792105630029,3.877468548482314,6.635770486263052,6.543844669201306,3.599904853326837,5.256856744231941,8.335615684915453,8.147502615453936,2.761510497077026,-7.551408142029915,-9.077224225742235,5.291092878559915,20.611150645816224,30.555376662826667,35.03502517297427,20.760915786321668,-4.282204988561979,-13.46014022278573,-11.36537204033328,-13.524419919982552,-17.556834323156597,-25.800733670729837,-35.20596646655207,-34.50756271203467,-33.29800852818718,-35.81014989422877,-18.85867401288565,70.70361378154243,289.3966592918961,488.78842452627947,340.11643064197233,-84.50105418212067,-268.5323325104995,-109.77216774166698,-13.454473554090846,-68.09829540461953,-52.13399284938038,4.680109249895725,-5.0610053095670935,-7.290606927234705,18.60008643099087,15.057921649696432,8.458086250731462,15.296553551645331,0.8078687867214143,-16.638168160456623,-9.580905519859037,-3.9539103377880807,-10.829463999282957,-5.245162118488992,17.987707106236094,40.92390467424225,58.40197729102427,77.08243478023769,91.43007088154229,90.13359169048461,78.27678480933035,67.28648408636893,57.34227432887273,46.52357108911789,35.783188980660725,23.425071184667942,11.714136349461633,5.8198005651326525,3.1552178851306536,0.12345206790645591,-0.5568848207806028,2.8711948911676615,8.688626294195515,14.24269214465474,17.593898092340027,20.11380039587582,22.184775063936726,21.45185954043525,20.378079740707655,21.944648014625578,22.162398819651635,19.81340726175702,19.157352918359493,19.152391778688525,16.888776257830422,15.147517315270612,15.829350715634675,17.178160034766286,18.723405625313713,19.6934329548815,17.809436727150416,13.491833050059832,9.708541772180723,9.087624449600206,12.847748160557117,19.793413751168586,28.263325804317372,35.377107124599306,31.694682943574293,12.845996147725511,-5.892180967556488,-11.477981603311601,-12.715124913905846,-17.82787095007038,-23.708172033634156,-28.62585728823578,-32.134604467356894,-38.0864002476756,-46.690806938000534,-44.174088083474466,-17.79174178279814,89.95786296858608,334.8929345853882,501.01662767793704,265.03580360137767,-157.54782056845374,-242.75003932664671,-62.14410669089111,-34.57757249762915,-106.56164777552048,-60.271524517609976,-5.338030848418878,-21.086154535399615,-7.757377063627658,20.458431922166042,9.14466305544441,5.036372638697415,17.290711248854016,11.86233312102452,3.3858290229568127,4.5719340137810605,5.567180826846233,9.057638992813047,14.436548481560827,19.310024552679163,30.321089703408397,42.647581967932,47.71988109191635,48.804858259852935,46.99786288881022,41.479213688681575,36.220870984190114,30.50204618405951,23.186820687615906,18.39960581924879,13.862015995037918,5.248153655997953,-1.8596909452406436,-4.302188707436745,-6.877750896169811,-7.490409762641063,-1.7862500475767895,3.7426512147839937,4.847177177452572,7.6610705031743755,13.307575627241,16.8195007035178,18.092658675328902,17.56165776546972,14.42959733344281,12.144871767199433,11.898611710503772,10.279988759364276,7.881590109420177,6.944921904441742,6.516098263945963,6.50202921757414,7.309860770332932,8.551420508667146,10.563405224179778,10.78534071580133,7.156177830263747,5.2152012369155045,7.091382000217367,5.471288173097893,0.580932448717526,1.8191209203852523,10.720267459453272,23.532549133565254,37.18187242167097,39.23289471271071,19.978099731853273,-4.739100478478099,-15.925983558846289,-17.78828688059908,-17.49610165730905,-16.578366909920373,-23.483633022339287,-38.75315820911345,-51.205387251422245,-53.17169390746409,-43.87085027398325,-29.548205324852816,41.21862617905998,258.37871310543466,460.1876813501222,293.9756872774599,-124.65342096184398,-264.035337601435,-88.14284640991883,-15.099158440129024,-78.51853802814898,-55.95180649616292,-3.6227193401567526,-16.1927483417832,-16.558999972232577,4.813081216113477,2.0573006542319385,3.104396980969632,14.460898203976827,10.387249161535866,3.0941661841387997,0.26044116496968783,-4.741007681459964,-1.7221589009627642,8.627228077654664,14.363390301606104,18.894012848608426,25.651105281385295,31.260168626594883,36.59783015482905,38.73072050171244,32.95986101488481,24.827654142977874,18.947907664471906,11.712991467495346,5.328668458185371,4.809577749769753,2.470280977386218,-8.368163328647627,-17.753857374707884,-18.770078002241917,-17.639725227091546,-15.500570286466676,-9.844048683993801,-5.432813873868422,-3.245380272827353,0.6765105960262101,4.579792265878158,7.623278612954114,10.970767679479842,10.800929404246935,8.819829693095727,11.926446014521549,16.43273498675907,17.866342137660823,20.685576924461103,21.266491376638804,12.043156122386744,2.5115257246771696,3.313606570487951,5.711241652469472,1.135378334080711,-3.7698567120155944,-3.185230450092183,-0.40364776684627657,-1.3167313961390388,-9.615701547642779,-18.12407060740677,-14.341989501678556,-2.1759253593672536,9.033506458637648,21.424444552050062,22.613691285620877,-4.977119005429671,-36.45259836211755,-40.89906650558464,-34.04828896398991,-34.89989939878436,-38.956890882252566,-45.38404216332129,-52.5989484716676,-58.45030005276833,-64.44524106688523,-64.65520637729767,-52.123926738624576,37.63915449675922,273.8701293823903,437.7102322750731,202.35601386987403,-209.3164285483233,-285.811406780634,-106.05441654395229,-62.75260089744275,-109.18064512233218,-65.92257399868907,-27.42487374423682,-41.32987316966489,-26.10010104055045,-9.399688614384274,-27.44669415500482,-31.023389047521263,-22.848357773947335,-35.01250294602238,-42.59144293639389,-31.236382236102116,-22.350691985992384,-20.14500269713546,-17.923105117994687,-15.986574898969423,-11.061509636619078,-2.5991372660328835,2.514849382350434,2.1814238722801917,-0.8569909774678734,-5.868632581486892,-11.635956316879579,-14.918797903638577,-14.486055020253978,-14.60817389858164,-21.150093153420535,-30.861646962587336,-36.217714568051385,-41.95824588463345,-53.44138967571928,-59.17360829176852,-52.71651243204752,-46.02698711803596,-43.58488501900108,-38.616972172740034,-34.00120607828336,-35.689537671681535,-38.89095774890716,-37.33605039471644,-32.789984935064396,-30.27967219663641,-30.036311258556246,-29.370083504610328,-29.107766245057668,-28.777552212858907,-26.52782015432951,-27.127432602872446,-30.47896818793717,-29.81787532310375,-32.92363838929956,-45.59731249744346,-52.13982524693684,-50.48224965151563,-52.47468334817869,-45.97637254277129,-25.165090004900236,-11.801928485897996,-7.888940777019712,-5.72735398742352,-20.401384199772487,-45.49752212737444,-52.844251353065616,-49.36440265011293,-54.691642294137296,-63.22870731509386,-66.60341920799348,-67.81141828738737,-73.62008957737596,-79.73401733569624,-78.52863397050479,-70.0045614015735,22.596762080992413,275.71466431625635,444.7487665586318,198.22246615444996,-211.0659956823945,-273.6993800653569,-93.86821766245174,-59.08823938649965,-110.17575493863191,-71.19575997571583,-36.877591403990195,-56.2071549345921,-48.23673770137582,-26.81013701915296,-29.189682608657385,-29.591930305043064,-27.615038141298115,-30.991460402921874,-24.63424827305719,-19.99559061996665,-26.298765705966602,-22.602137709821704,-11.074730605422438,-10.385316315315855,-10.886024895992087,-1.4405202705158757,6.638663417943121,7.309407962607779,6.097494563165284,2.3844494938404495,-5.10538155918173,-9.534856612937098,-9.31749252655817,-14.191959762494285,-25.8883997693994,-31.768410373005324,-30.60962944840645,-37.293226205648594,-50.07413309148219,-50.966235046622074,-41.04022107388092,-34.155135878503685,-30.77590684810528,-28.07670589811263,-25.788773447477674,-18.14281522883809,-9.240861691138512,-10.461709638391852,-14.725928177242174,-12.771625749677668,-11.865251678920714,-13.358517042427955,-13.088556311584995,-15.463823627501888,-17.526890752520025,-15.377885641433394,-18.585334980382328,-23.759737956914364,-19.552127664706966,-17.529858812021693,-22.276113082507127,-17.532939512907774,-8.315497502696637,-3.785483931950594,9.888557310905263,18.877136373705532,-7.932364557494694,-44.52224761848983,-50.92029159383998,-42.908218295875685,-43.54906824461209,-51.17039038458811,-63.91083006999574,-70.3968146456787,-65.30580022023979,-65.34420270030452,-67.95947080438525,-59.88636344477776,0.9969261419679611,207.2547595960334,443.85467949337806,347.0921873689598,-65.00936406673986,-276.3732193624357,-142.46838686358797,-43.845775629452504,-86.31199169294325,-68.36604246154762,-18.092289672476696,-40.620884437550906,-55.837454766112906,-27.72338595362692,-20.759041418417354,-27.032253833737578,-17.29419454045795,-10.633424016979006,-12.031333076019322,-14.824610302493625,-21.810024501061136,-23.427936000583763,-16.69279391917727,-13.993423900249546,-12.667470350755046,-2.75176583232507,11.453779853013637,21.621727626990424,25.20389710614993,22.988761030397104,15.981923431529395,6.957880611820041,2.8553069880388353,1.6607591705591283,-8.81744332631305,-23.430823634334885,-26.977965500295472,-27.460867059631763,-35.129710145050296,-36.93212288951024,-28.816265463818645,-25.537620982386308,-26.26495479414276,-20.110622019193894,-11.850966684380335,-6.720507458209468,-0.7172221236230385,1.587115576636684,-4.479600240450683,-7.922254100431125,-2.358814498597077,2.403065066078156,-1.232962606030629,-11.518512839645894,-21.357362625387516,-21.874835321223784,-13.853469889945991,-7.846954480667968,-10.323880806298085,-18.577309279782796,-21.932463160367156,-12.558609291295573,1.9900713480723198,12.971587113528262,18.806329320566867,10.287754143646755,-13.587691969875817,-30.66703447990256,-31.597448998658177,-30.790061792435456,-36.65722763422907,-48.022829829308,-56.73110965746636,-56.61184421886982,-60.56294755474012,-65.71149522030271,-51.761470708655764,-9.938049569674298,131.02621901547818,388.2475084312862,459.351116385569,115.00630840206972,-250.60894638292922,-220.7956837502991,-56.040667209483416,-70.25453069772033,-99.63676821274862,-37.92792394168269,-23.54275625516925,-46.34409647221038,-24.466564369614474,-10.277529309660586,-24.522110054798073,-20.27980136064709,-9.749257410310207,-12.982276606333185,-10.787325953505135,-4.344979478466122,-6.485910649498967,-6.585905675320431,2.248774320076967,9.70258980281726,14.756872592369135,25.40032002444735,34.18885198581591,30.996530255103792,25.074396939486018,22.239332775114285,14.216302894593147,4.692988350420381,1.0879845925726728,-4.627257397977192,-13.403392164255248,-16.792159830493876,-20.70933431510999,-28.149457793832383,-27.060070551160713,-19.765734810973314,-18.156467109968993,-16.345118664589346,-7.8878974662630785,0.07251071518812147,2.972630664132673,-1.817103996180096,-14.12406659304798,-19.337138311651504,-9.92976168458086,-1.4634241599672198,-3.148709921033399,-6.339290456917624,-6.891555658659993,-6.840472407118964,-4.509580424609986,-1.1233666962442754,-1.7316756737526973,-5.816014760422778,-9.246676903607627,-9.846602236846678,-5.795122332855837,2.422184312741998,12.8081424926614,25.792266386160875,30.503890424138508,8.840749967557024,-23.11919052732841,-31.141333264068194,-25.97884940134408,-33.578842088741155,-42.373358983215645,-45.937853580622466,-53.779896907270086,-56.12356295925949,-57.14633746194583,-68.13130551205217,-64.20970083642878,-16.92943328539105,129.1133060154694,383.81521655496965,473.7396834876234,150.8990734852674,-235.72578247599813,-234.09407114909703,-56.260755859545846,-52.75370769009802,-92.3464643917497,-38.10894059862565,-16.07846623024067,-36.066663579177934,-15.61188362860506,-0.3872559733774281,-17.03205758785851,-16.574744191200168,-5.625264202102464,-7.690221198384034,-6.2241007276634965,-0.8830596573113834,-3.417426345103449,-3.9682989542042124,3.0183307921634714,10.843282726364311,19.25918029946293,26.75643430263957,27.91605779204876,26.546561061576675,26.28372449164893,22.38220565674503,15.914452843874894,10.750439612395905,3.9588483842491797,-2.170923089834092,-3.5291641764668533,-6.060253850633169,-11.505393919816182,-16.703435914788624,-25.089089986088005,-31.073080003812173,-23.63808823618057,-11.307674279243363,-5.256980694648451,-1.5733862349116965,1.245076269045648,2.637161942230859,6.714349343694357,10.06304178121091,8.348093755131414,6.705601928891003,7.920100187886559,8.630094914380958,4.124379965661968,-6.550668339117661,-12.857886456182769,-8.214119658182403,-3.7659206377732604,-4.79039778566993,-3.7161376478936035,-1.7760595080618207,-4.532504675752682,-8.637814929265874,-7.7924920857272895,0.6916034652034515,12.538318013256385,22.64532200099238,29.66831523751929,22.633039419715033,-2.79061109686487,-20.48657728975093,-18.512608346210932,-20.706328645883723,-32.49064356336023,-40.04462872126072,-44.660630005595195,-46.94072544343378,-48.088937269658395,-53.171445193110934,-49.971410081719704,-13.564311486996758,121.4699022245814,370.2996284471384,467.14413398684127,157.86845948035688,-232.1335516751464,-241.48411180730068,-55.55812310423007,-40.62598472082837,-84.90431448683924,-33.50350941035723,-5.280539864789375,-24.264264163777504,-5.0991235330926,15.330573777000367,3.638084368515008,1.6822219780312082,6.218817406968725,-0.0933457152120738,0.7967811214144866,8.507814611413437,11.831713968288746,17.420359997322624,26.96747984560755,35.50802445614157,42.583175310907706,47.77896710290477,52.25467313356903,52.68741593760318,40.2788152326772,23.33543097857883,20.46600231555368,26.23224443462894,22.186209595496997,11.484583555430095,7.540618409301729,6.402819321081999,-0.8876926430105563,-7.419709047838584,-6.924696831593112,-8.521867619476422,-13.448239510248417,-9.615593632419563,0.5420468553028321,6.122565511520836,9.563421353304353,12.121046229572418,10.036921554336567,9.582137204296824,13.278235451172431,14.188993504052291,13.510929696802265,13.07004232714974,9.13122445529792,6.241204831997994,7.873969797530581,7.636710478268032,4.888150187197869,2.9410389565522834,-0.009879713345426921,-2.000973829940932,0.9258879056054852,4.627973228691921,3.4296340311222373,0.954732077403051,6.6246342839141406,21.89909645075735,39.73802302197279,53.00360890507893,48.669753025486145,21.7331152079535,-1.6956663596733499,-4.140229611427358,-4.635551378190264,-10.174933851843253,-12.768724679473053,-20.346271520646457,-28.128004955783524,-27.22814679855986,-31.404451755826365,-36.20072027094207,-22.330539679095764,56.01161612007158,275.4692476913059,485.3694753733987,327.22741962626657,-104.6327116593408,-264.8253801817571,-92.00979454531938,-12.132598372041219,-73.2829971240871,-49.44239523627077,4.915341305296725,-7.61463013146961,-6.3684421351591425,18.119688957384874,15.129361464167971,14.15666314207818,23.81368437973969,17.11863625945242,9.674051483583746,10.279208646303019,6.060563950001622,8.388713673219435,22.345385499500964,29.87351218414336,29.591338446827116,33.52560867062587,41.293193914730644,47.62578694428346,48.11715289994295,36.75020754215599,20.503014496087538,16.337172956386702,21.976535929266817,21.826412185683374,15.57034971346047,9.08629705053432,0.8448007743859982,-5.909601491198458,-5.789973770675655,-2.2963550467997145,0.6847305639695307,3.5990183714481567,6.151942956248909,8.394732834095088,11.347353756756036,15.272802669061043,19.065190015131893,19.665159515539784,17.091253486777973,16.08860665913167,16.337691526203734,12.848505243119881,7.806648790196725,6.799509200063813,8.064795598765624,8.251259178257556,9.551037401877789,13.069879570858522,14.713206735525944,12.035246990069638,8.387783768008902,6.6778463819638745,4.470249403247884,1.5607423242655472,3.5666557000602666,11.063035688748549,21.04536076794139,34.005888522640944,38.38765901945056,19.45556879150265,-4.144566305777577,-8.485261814894438,-8.386755967651897,-17.685112769400266,-24.687543492429057,-27.518434708326705,-31.203761756095062,-36.345354837550886,-43.978654997201225,-44.03268871500268,-30.191077563658226,41.97493623309158,261.6498785353231,479.0829320601746,324.9994376422284,-109.6177200937295,-271.2723545604449,-92.28430912491056,-5.417878839301249,-70.86877654589014,-60.14146691023288,-13.505130511670341,-25.820137176499664,-22.896898258982585,5.954423193713991,7.429104190541741,2.7729207159226785,9.771257562733792,10.660545096190688,4.1521332247546425,-6.649102342954631,-13.018273195055707,-4.3318948761195735,6.183908182081636,11.159658917725945,21.041836467888736,31.22899532582295,34.38397675651622,36.589632380545275,37.77272741441728,34.01717295874066,28.596933565442555,24.302645655620314,21.435933019563663,18.258185595662987,10.788576179067656,-0.14968054553302323,-9.535458115165275,-14.633429232787542,-16.240854607344932,-17.1158869073244,-16.33965797653562,-10.495560085736273,-2.846191357949916,1.4817145836529306,3.3120180931051646,4.823361151342726,7.747979898221116,11.025434885044206,9.445149027709576,5.522657080506772,6.725536204613941,9.190680181669059,7.077098565940038,4.036690616221373,2.90862352409603,3.3485938938708806,4.845425640445479,4.353033898783249,2.1755351164056975,1.506044216360717,1.479079177540359,2.0339142359463516,2.135467356496319,-1.2047321504892157,-0.8086223771701704,7.171139756253152,11.794635277050453,15.943162235939127,27.626411981826443,26.154343445431177,1.7905537046838544,-16.967313452773684,-18.157814061555047,-18.296067916025912,-25.46144586180899,-39.53971800103042,-51.248755836719305,-50.82667948004411,-51.817750701115294,-55.460775740530835,-47.26248358183936,-12.992827206938188,135.38247017526226,399.82956864376825,447.3704016466961,82.83742387738079,-250.19128644144257,-176.4423211149318,-14.834786735271798,-54.7329865845505,-93.93433162310495,-32.04575866654423,-14.70936840743676,-33.14049577932843,-13.653534900017878,-2.3420457896010625,-11.472127424710605,-5.366450816048214,-1.2341448549071645,-9.920711569769995,-12.308942823311853,-10.194661238281226,-9.177702263699738,-3.7970253371602576,4.154208478716393,10.918245090681024,16.462643026171307,20.706281868800545,24.810243934004333,28.922769704310998,31.57482057223266,31.428545934310158,28.081834148915448,26.193350253908758,30.305692914275607,34.8629330515968,32.09475631327031,24.15620512811145,17.247336124972712,10.236298375087449,-0.0703146657509377,-7.674342944724288,-9.260825460246771,-14.973878241955056,-25.300808501837302,-26.973975819469736,-23.634637151804537,-26.21669404801309,-26.22278079656811,-19.415611984250077,-19.121982860889474,-27.1607127012378,-31.781164125440007,-30.083760829688295,-28.830082403817208,-31.81831187925684,-33.24209557899033,-28.211377139938534,-22.83333402295351,-22.33173760161486,-29.11694996385424,-46.059241971261685,-60.35765521076041,-58.78084801767849,-51.90753363900973,-45.107413963366035,-33.06682564839038,-25.12049472359962,-20.76112421728275,-10.860943664962193,-13.10967155001289,-33.86369936839733,-48.176810980361346,-51.71602549489822,-55.72042153679872,-59.92431877873202,-64.66178753577547,-64.86171625939029,-64.53673140835154,-78.97716782616055,-88.28562998997096,-73.92938887723676,-9.37279312295873,196.11189407493956,427.0371001529348,302.13798198741574,-138.18750471434038,-331.4176898708481,-157.21797399218082,-50.172315486385045,-112.56105163432179,-116.64498314513756,-72.99136559361528,-74.0478918187966,-63.436231635039135,-36.06357315490335,-38.70347511013148,-43.68247309235049,-36.02401455257723,-37.66618729197317,-38.954870431512354,-33.18900291035524,-32.86692832315876,-33.00015547653851,-28.61902797652059,-25.33329794526474,-18.226255668449056,-5.905013301419707,-0.08974610981152864,-2.563809634867212,-5.751465399785772,-7.28707401791651,-5.474984445476608,-3.3548520649754394,-11.897297222834418,-28.431556842654842,-37.321213678914575,-37.583012545416196,-39.545205602051695,-46.362704199238365,-56.272543549605295,-62.49987319494347,-56.20710530287754,-44.57187099965755,-40.16126727995707,-35.48098249574788,-25.978470006530017,-28.842655959995724,-40.523648250554686,-34.075494260306094,-19.22795258177915,-23.449299910882402,-30.767463037439654,-22.972400051696226,-19.984542343028707,-26.74970594059186,-26.517113673811153,-25.680874072227894,-31.702941858998862,-32.23543774170136,-26.929889317046985,-26.777803916539824,-31.038054480989707,-31.242622305824533,-22.174882444025513,-10.2357967110352,-4.2254293965825624,-1.9182907320249356,-8.672824470209832,-29.676463711214637,-43.1210316583126,-41.16510152388071,-45.26011699839439,-53.20420949700074,-54.65208426266972,-62.26115478266857,-76.77106429606425,-84.67638283270303,-78.5457205093345,-65.42604725188517,-40.01532585269811,99.38997987158456,371.538639351295,436.64589625035774,72.8592506099918,-278.299622174529,-216.27227230991258,-47.67299786677148,-71.1972747326006,-102.70682783919449,-50.39782065975811,-44.484376627471576,-62.33719878180288,-38.15107473897735,-24.176173287230213,-31.55909022914176,-27.832314280044308,-26.232588136663683,-28.60122803584194,-21.45830608174385,-17.73268007354072,-19.41838793348903,-12.681126400323187,-4.553302249006496,-4.129390826982448,-0.009859882066578507,13.696860768486113,23.57739097169025,22.159445717637624,20.033433736283023,23.75079179792377,21.353406438062834,3.085484980512696,-16.386869296809017,-21.079932699484353,-23.607824687548707,-34.6687432418273,-39.244850513661646,-37.71085060449124,-45.01402746835476,-46.854210335521884,-32.44117511361216,-24.191382352809704,-26.941310830613467,-23.430409476861314,-15.288708068420256,-8.767381287392546,-2.6421273656166306,-1.6399761029052193,-5.888185834765423,-11.266779562068528,-16.071537672928628,-13.721920254400029,-9.078271184374856,-13.138749899669119,-15.407757846973315,-13.099654296012083,-18.649472448455406,-21.68268393947417,-17.881584831450546,-20.021598266347397,-12.087169378552481,10.455470564092561,15.798491067477638,6.770688736498926,-0.5721818200000754,-22.811147497440942,-47.06193872178416,-45.68642045745237,-41.25892055629467,-49.36391036119622,-53.159369002354424,-56.48495694361489,-65.5137447987496,-69.15879564523503,-67.33139388681987,-65.5839400662249,-32.885942266162765,123.74584128596395,389.4820368362191,453.06220991144414,114.01014577349915,-244.76138768118855,-226.18321187095611,-65.46581696637018,-70.68178401015673,-103.9767313902121,-49.887957581635945,-28.385195314625733,-45.65325162082949,-28.811921205775985,-15.437694388348952,-23.68948578743017,-20.139765051012017,-20.37175099318179,-29.767268839679602,-21.45259422408978,-7.355635617868334,-6.684107545602366,-10.803455025357362,-12.46772704097754,-3.6904204005938634,12.793153606254457,15.483643392634901,15.600909605310955,33.84186392347777,36.337525760801796,7.299621902493087,-1.9072188327894644,17.156479273515487,9.870068277802151,-22.12197239325387,-28.6452460367163,-16.490199098064778,-25.235474668823834,-44.31618854760557,-41.117289580194225,-26.00254211769301,-28.12714784533683,-38.53692799889556,-29.06234516717558,-6.498169396384409,1.7730127472207968,-7.534979074647374,-20.913780455227016,-25.372401903756465,-11.563902541805437,6.448313658971319,5.62954968963184,-4.686258902138501,-7.143747727854105,-8.921173202208902,-12.153110716354124,-7.6592639331595365,-2.067324292513966,-7.249790726565273,-20.481377027689355,-27.471961560255906,-15.615260586879248,6.79303042194465,14.64560147705924,-3.4424812648372196,-30.26699042529991,-38.761794131657496,-32.85259339469046,-42.593087934117435,-60.50878256141836,-57.36762069898149,-53.96763360192516,-72.24453118771204,-78.12042524554253,-62.78594745752525,-55.16835746293461,10.759888772331522,240.73045562310858,479.29845948650154,369.89433313118235,-51.678280947311166,-283.89111067961363,-157.89973502285346,-38.79629083325904,-76.48923011798367,-80.61744535627403,-46.365417777514935,-63.86063660455916,-55.36884646068255,-10.551296252341295,-13.851900948085841,-26.31427454594073,-9.639486230392869,-16.16845975824441,-29.092691838573003,-11.066189143720212,-6.916537410127457,-19.686903176782685,-2.9462343477392885,16.08519155495959,6.614701028246568,5.744440508445009,19.305364098817346,19.01473042286271,20.70086436616758,31.2946774732727,19.92701425127419,-6.08559882621892,-16.48921615437489,-16.47096897860582,-16.230106670144874,-17.989834713987214,-31.29228559199991,-43.27874636490076,-35.089652707408234,-28.08538076810619,-38.30774254544845,-39.76779141124131,-22.41614590509537,-11.573017627761061,-15.656905222513078,-15.559935196471567,-4.327941154381179,1.1399091300985447,-7.178768276139117,-13.611065357259097,-8.521966461909482,-1.3288649576629155,-0.8367576528502063,-6.873091099844974,-10.926186240424176,-6.935368894145569,-5.9881817024556945,-12.154116813115142,-11.218659531686466,-6.904315632851198,-5.912493986090709,9.040155740588311,22.99968013016278,-3.7192041642117957,-42.941408661780805,-47.20741500178232,-44.475624259429054,-60.080247548271984,-63.35242251967577,-53.80296088088696,-60.21910272886276,-74.58974742412123,-80.0729133563513,-75.80329078592679,-32.89819266699098,125.75146609947156,391.28701715886655,491.34868616206916,188.69245353243883,-210.4927697120002,-255.17422397165203,-92.395288556904,-70.66324532266083,-103.71903522178222,-54.98865596243854,-34.20502885117913,-50.00162253387821,-24.916314267215206,-9.637452049840654,-21.47654942619978,-10.188909025968915,0.2364987383742978,-5.796344211147689,-0.6438680051283594,-2.296751752963786,-13.858268635476112,-2.878498561597345,10.50908205522953,7.253642334763038,18.632489889996528,34.61961787614632,22.06954860890007,12.213504978626236,27.23483857583833,26.75592128375073,4.932329270820016,-0.5614029323156755,2.169708789607469,-13.031348026335053,-29.10484977926106,-30.42250728905294,-29.90583889285986,-30.13492366568963,-26.616814855359166,-25.491788302434973,-22.064110369332784,-10.954569340872926,-7.838850183526024,-13.434398280463496,-8.52127809086129,0.04994023982870921,0.49632979114148945,4.377786618291088,5.145912649964874,-8.36564141484697,-11.987607136104732,-1.317048400991359,-3.5751396421656896,-9.66253887126939,-2.6595213965967,-1.4814714193961809,-6.8668120529003165,-1.3477241175370231,3.3997102396628884,1.9171472547555126,11.577010881110336,22.988168136351224,10.900254193102548,-15.881084057406895,-29.28053540715668,-27.91642732827981,-32.37764641650648,-46.608622666636805,-60.23693029334578,-69.05489840161357,-68.8542723489309,-66.1842553983443,-72.58771549779016,-69.55553323241612,-24.75809734478966,120.12286926998563,390.5906619094849,533.56487827815,238.68479396757294,-212.40557273156628,-280.39394626311093,-88.72095037559492,-60.312310689060965,-114.32450967456049,