ECG,41.675929752231426,-426.74400378404255,-978.7488223637051,-1105.6925797669264,-734.7377356257962,-418.9844430956101,-303.40208155578324,-178.48389771658242,-72.20148059693692,-42.89088913998427,-21.268232644355457,-0.028840484836635483,8.369271225908363,20.74910773082766,20.345456767197746,6.045773360192641,-0.1868903034294931,-5.688283051811723,-11.500842119815754,-3.6356436369772283,8.660668737265489,15.319162791688953,25.459715187553876,42.04875471948884,56.021980836535775,63.262093125167766,68.01901669724774,72.57741104938603,74.42340495061512,73.13378028387876,67.19142013102508,50.082505845241236,22.10075233581601,-6.65842899408298,-28.601025483383744,-41.049894964029555,-44.39212231170181,-44.83662718549885,-46.49113185926695,-44.75981556952625,-38.43392571766937,-32.605726225909656,-25.16267905311416,-13.998561523825792,-9.618625448337639,-14.994832980780153,-15.99627519238582,-9.11082775398078,-4.339670386248484,-1.350930655228991,2.7946120116740207,1.534191487367778,-4.803411973203335,-7.82901944828761,-7.672768036478889,-9.117523758458546,-11.090375381528847,-9.910004493257528,-6.024853513242229,-4.54312777168894,-7.208842237681473,-8.383442977755209,-4.245167811702565,0.6617096304979899,-1.3030282683603396,-9.257149210133324,-12.14236603088455,-8.343427949537855,-6.914260081666761,-3.971201474691007,2.1225309533211725,-3.5939454337508305,-12.643554836206203,-6.256539175457923,-8.853487100946172,-39.956359652055504,-74.09108343726936,-99.19912977496585,-116.74838002814414,-126.57912708643474,-161.43607295855645,-187.87534178383612,-48.81747973176816,311.5221168372933,719.384405127209,888.1242775425287,563.1432232870004,-138.77647728629137,-610.7295904201211,-507.57107889933775,-222.61443926345143,-132.17536581744633,-108.11527192439607,-42.638467806727064,-27.718864730373582,-38.62339311822043,-16.461667854755056,-8.595587051359438,-19.535178391558258,-14.68216764348342,-12.7574222374464,-20.718784052357087,-21.107727599575387,-20.48430717462945,-20.749022975769055,-12.419124634318083,-0.7947429732398885,9.398991807289926,22.372172516239814,38.905511090320125,54.094471189064336,60.813744659774706,61.92470464809553,67.53530697435387,72.15978049424064,65.00410050726833,51.703868631141034,37.096524610837484,15.061540456157068,-12.367259283428758,-33.86833376729278,-44.611538809267984,-48.55286226204764,-49.512902723593555,-45.97149203180447,-38.306819288069335,-32.69314444905049,-28.321365815874636,-18.538880030717625,-8.774837926092879,-7.01293749398668,-6.151228842884462,-1.888124826213243,-3.142637194378807,-9.135163232293527,-9.408205132812107,-5.592605882605321,-4.618032966317825,-5.853679255494086,-7.312177103998469,-6.753252348595044,-3.326851901421591,-3.888384294224842,-10.90860763695201,-14.481505923371962,-8.970084605865303,-0.8805249910399748,3.3561481915753983,6.733403181983483,11.924205991149263,6.283707474894118,-16.423960458579984,-31.21197933306025,-22.69118472501699,-11.68655730878374,-6.947074355060945,-0.43508040375421686,-4.750405105015474,-17.4263980492588,-9.717585271717912,-0.31808139300196725,-33.38858950924388,-86.94027346586644,-114.5802326826872,-120.16011990664995,-128.45321967142212,-157.70159521427172,-185.16860824616305,-97.49732386854973,199.24920305257004,619.6552169991971,902.0481464998887,731.3650755542127,78.38604252259834,-531.5018337442228,-583.842406986183,-295.41883887650727,-143.17615790249687,-122.22133185249835,-65.17417443555519,-34.48420425329536,-47.48402279427662,-23.32843409584735,2.1257942118928383,-12.597143019570687,-22.03870427568959,-19.24361605533399,-23.118639681298262,-20.207454420797546,-15.161297312285926,-19.186239196747756,-18.74300451876441,-12.462572587434565,-5.277733896613556,12.880377210419091,38.41522995352065,56.2723358320346,64.3826349607287,65.7474101977726,68.8918257218798,83.93522090153581,95.06203013144163,78.25821602312953,42.844094614636305,12.659831707448015,-10.143053466112821,-33.14031675864152,-50.64273276594655,-53.20268957891045,-46.97595660417435,-44.50008712289673,-43.9118751603447,-37.541005580811145,-28.82452594300068,-24.16298009695376,-21.832454152578187,-15.83402440846907,-5.290332868556739,1.1127327592814495,-2.559831715148185,-7.611846371467713,-5.322446053983622,-1.120581056497091,-0.2857956496099856,4.729585138300665,15.449491520507962,12.242299551556993,-12.385070638450483,-29.39851690654004,-22.180755012954926,-15.81031985931542,-22.820481262940035,-23.276729986631324,-11.796531963411695,-2.6856261766102136,-0.17557649464160718,-0.6225721642983899,-2.293353005904372,-4.371498942739564,-8.177452690729037,-11.42148535351226,-6.459225938988723,2.6512643072444106,-1.3009813796247265,-16.618818183131083,-19.638103128637862,-14.88774840121071,-34.97805523239534,-76.88400433470447,-110.43214076877402,-129.92102051356073,-143.0718407132356,-164.77864312793676,-191.5940908313157,-120.72562260140995,171.4472338527128,625.1703697916828,958.119842921702,818.9092923046653,152.64320200053984,-517.0483903900605,-629.2557443533935,-349.8860632228119,-171.1540624037947,-132.0186635438257,-67.84394745743194,-27.142128704987925,-36.886824802695905,-23.966887904684732,-7.173211150084079,-14.846398590339287,-14.129899384998705,-11.964441017308628,-21.891169847463733,-21.340840117610878,-15.370210376429375,-18.28329513411566,-15.63620444435363,-3.8242332442835028,7.912792125309204,22.37821670055409,38.23759976896587,48.6119415979761,57.665502196656206,68.5724296892229,74.14126324720458,73.08097680480695,71.93489916406988,67.43950876601906,50.33891312649072,22.932569577349362,-5.811573428023475,-30.826640944156097,-47.93294728363157,-54.46392710966258,-52.874494999724206,-48.03919361603539,-42.55660535900768,-33.85407220093842,-22.166582681143883,-14.320392230006853,-7.88142304899986,1.9320794279726385,0.7296710823192996,-16.88913558206142,-26.03979565345071,-16.87576068251048,-10.327071924247438,-14.663276186363262,-19.123856258577344,-19.172026034974813,-15.339781748743487,-9.64921536952529,-8.557464918208492,-10.895543318755383,-7.788994555742903,-2.592305904165819,-4.9429957282635755,-7.75548404072706,-1.8480263118764686,2.202562441323483,-1.9655860359520645,-2.7304292243428083,0.7992126354302371,-0.989489323541445,-6.069769237077665,-12.120341860049788,-17.970465771096194,-13.493255785329984,-5.0040539032340625,-9.522351672513103,-14.18022580918773,-9.24479835928626,-23.202584420441056,-64.19714151230811,-101.65316601210509,-121.83666112547245,-131.5888773839908,-146.8645417557009,-177.94090469887826,-148.57034269105503,73.61354700196543,484.1267233440467,858.9602128949509,858.7010399911728,323.5626520561945,-373.00656784457357,-620.6520300646323,-391.47246065946746,-172.34835575725495,-129.1427322819757,-83.70054240865684,-31.316847733437555,-37.78972327109362,-33.14481687961795,-5.3788830763087425,-7.929854039415453,-14.554713243130852,-7.4034335417183605,-16.979901787403037,-31.183674877293218,-30.12133561077904,-28.503282951564692,-25.38144897942945,-11.180285864802805,4.0292250930648486,16.576184333194014,30.296292282206068,41.380954078421695,51.705189362769104,65.11670649135266,76.70537058962445,84.01464724769541,84.93833312169605,74.35893974088921,56.01491566600818,34.301641111404834,9.040269293176781,-13.025672565280008,-32.314654286038106,-56.658781215544835,-72.15046038390444,-64.70534224420393,-50.88281929742587,-43.93918727552362,-36.278754133426716,-26.234434485850493,-18.20286809688401,-12.725563113102286,-11.517647354749336,-12.964947443216666,-12.699259925199598,-11.303674139201277,-9.250244827736314,-6.127432877071392,-4.834045786608566,-6.844263847470241,-9.744839083151826,-8.496007458298934,-1.773584628271454,0.6890529270391816,-5.495473964218297,-7.593955684950146,-2.252534238184552,-2.760633116103385,-8.403876878163803,-6.500931395136297,-0.0637604691680771,0.39216180291528246,-4.049498259112049,-9.120112785219476,-13.88710073513044,-13.906661714782059,-8.699609517647307,-7.357184528121959,-8.821921578187672,-2.5357936085724315,3.1424305311284906,-3.483916806125044,-9.624940848519916,-13.687546430605058,-37.949030261645106,-78.05943790567734,-108.74259400223391,-124.89531867925481,-135.18640967913876,-155.70149716593093,-169.14549743822602,-67.70369773726647,237.43888419783428,648.1808052053111,883.0918393930148,646.9156449657121,-12.629023691701079,-546.5948853496881,-532.4969686758138,-249.5987707060832,-122.65109218120011,-105.38455692891569,-49.84318582823093,-21.131365364142397,-30.845731325135823,-11.785349886228826,2.0081542624745943,-22.050763242493026,-38.34855273158185,-32.10960770247101,-29.60675937408861,-36.37350178402171,-41.7480669462083,-38.40868489055623,-27.84135728738586,-14.55000687835332,4.2237470068404654,25.09773439834886,36.426317222349304,43.388653367897,58.947768848283275,76.67360258420601,85.21239314393097,85.44146552950583,77.93684883358002,61.77697462475693,42.0678287268574,21.056883239545527,-2.888480692047242,-25.528095378430795,-40.6130519966773,-47.76522292506084,-51.67016685316209,-54.889897039242655,-50.96435957586209,-36.15274277674049,-22.768053373334027,-19.376591415355627,-17.174812581980667,-14.235481350351634,-18.146262153252476,-20.856960193061266,-12.921981835618823,-6.282218553981661,-7.329400847551764,-4.378824798270543,-0.43272881654583983,-6.613691081962269,-9.841512358525101,-2.2605957843360756,-4.561618482942766,-17.085920230988286,-15.18142081517717,-5.554283752507693,-7.561068315481251,-8.529996228101353,-0.6690902806222052,0.9784095873829735,-3.2120537657387764,-5.791150356578967,-10.504514658440716,-12.953241674325948,-10.06298117235232,-9.0855475422673,-5.717021670231997,0.08212228040737557,-4.489191689085985,-10.640263612706256,-8.545971534411457,-13.985009707499874,-24.548546872567183,-27.777535271735786,-44.953957188303065,-84.10405411140007,-114.67553991583668,-124.24942943675214,-131.20516352223774,-155.2774954328127,-170.40867605197718,-65.16210465040322,251.94007465885466,689.6161097186999,952.5051701667721,704.3665690842157,-17.814358676718626,-610.8363840649723,-605.3297542971058,-299.8790260712249,-150.31376126545354,-116.09832188823536,-57.28435939777813,-36.43429493833544,-45.28652757409474,-19.7130395354986,-1.681835693088214,-10.581659762253238,-12.113537286972269,-14.98158512632338,-22.31258887293796,-16.527520760220863,-13.108695853493423,-21.05978183438214,-20.852490706983765,-8.556568031527355,5.748641213023523,19.536993822765826,33.992032972476174,49.46039916683729,62.805784209247975,71.67970990305919,78.76725388839647,83.67581040415429,84.03830226790424,76.7925529727978,52.33065133031485,13.328466020120398,-17.083641564276476,-30.488577320147236,-40.62645277575929,-51.510277170497574,-56.29791981655967,-53.9303599005736,-45.68021854971404,-33.238800426693366,-23.142195269383024,-23.37599748401275,-33.73213835069623,-39.22681885714425,-28.226437474258223,-13.037174771177826,-5.422643964011314,3.065544913568761,13.239336114892488,15.47238111008355,13.062065253606173,6.586182193451872,-9.857535774084027,-21.248635118812206,-13.27511377424328,-2.8206516439672615,-5.054478795227709,-9.88773037923713,-7.30509769226364,-0.47324913884263786,3.6612797063609257,1.3706505226342323,-5.148329761234468,-10.820278724682584,-12.030752998638155,-9.912401629720787,-9.365128566834876,-8.181304640712256,-2.0611394475824802,-0.6294983251945645,-10.452228686363512,-19.66567364433224,-19.79484691743615,-16.109173005671764,-21.94286152355305,-50.94114627767394,-92.14491230372164,-118.77024897719517,-127.7854741103684,-135.73731979141397,-160.1030848340371,-182.83764988802295,-99.10623579267381,191.6913394411969,621.7080017714509,930.6169733271105,782.1535442520026,119.06977575727487,-532.7236919608188,-616.495963012424,-322.8341827699645,-154.66691428476693,-128.6452785446047,-64.07169053992263,-22.370267252308025,-40.52578384358395,-33.514829674611974,-12.435855279650713,-14.713716491154443,-10.971600460339886,-2.8352251987494874,-8.792831572615402,-15.183158064633588,-21.66479259535901,-29.057550261532896,-20.099264094209303,-3.787345216212543,1.0332789539818188,7.203576909010597,25.858729565293277,43.81717955481284,54.772745197877185,65.94482911058364,77.2780836068071,82.48736444328864,80.0232129710269,68.92974051153382,46.362072306327455,16.500933773195847,-12.019024981525078,-36.51571617843314,-53.35680747521215,-55.56555057992456,-48.94896636454269,-45.21009348312752,-41.73516205324174,-35.36963128548503,-32.907090348114984,-31.07787588857856,-22.51389947653879,-14.83425520668673,-10.572443058727476,-2.1086420537815584,1.7383927045164178,-5.88100657748079,-6.064841455716424,7.3750894201656925,15.086575585097123,12.864712569381098,7.234619544879937,-6.874558519953695,-22.243624229785187,-22.23277190457753,-15.296920356066789,-14.601516081984249,-11.658292754684162,-4.962438390830689,-5.118049665615896,-6.063967963597024,-1.2818527287269568,-2.7171812372730475,-9.657680520705597,-7.015118375465569,-2.165817326348572,-7.446278799186809,-6.085801124131438,12.078797799733596,19.264070135536222,-0.5427579197838277,-16.573500375814117,-11.123948379261975,-19.75304724111673,-61.32769990237148,-99.6845687997444,-113.2862491547146,-118.52219263744087,-131.21666160543762,-155.76344759151314,-133.17904654441233,63.97853238119933,449.13773839513584,799.104988224547,784.9073542812889,275.7189764143885,-372.33168130846815,-592.2072060492723,-359.1751131460695,-145.5219039721802,-110.19077422570776,-67.43941870703381,-16.877496754560923,-31.937827613323684,-34.256466747250215,-5.201546570430455,-4.47460956744278,-14.309659458925218,-16.055415497005317,-26.20190671356354,-29.731046620713602,-25.042126545725907,-30.713532473729312,-30.54222359973825,-14.880598378462354,-6.375420598733107,-4.964084323252639,12.783200009123554,44.02985268953419,63.23148072345751,67.14910268037694,75.46231711439869,85.19601212960272,76.49834391913636,59.2913507620338,49.48785895003273,30.399296841262004,-3.6848949432976443,-28.12455542387746,-38.9684224151531,-47.628128783135224,-46.63591022472501,-40.879218542813106,-47.46171949494759,-49.86666511055734,-34.2241850985083,-25.16319937104214,-25.529524331643188,-13.56319414760349,-4.662754767666371,-12.652691059562272,-8.763198456587816,9.348330696731441,9.1823953361857,-1.6820821174874894,0.8624811976474511,1.6414342260509187,-5.50008438887401,1.1254702339095708,4.888471601074631,-21.737853629120444,-40.59616477861688,-19.756711908101895,-4.220277801593337,-17.09445384240172,-21.873484447780058,-16.425121809284096,-18.880563129577816,-14.790043808364658,-10.279811125525654,-18.692079876636463,-10.159753221249535,11.973323921720203,3.2407173204744915,-17.511885352677677,-11.271157927730362,-6.181874204882941,-29.178225583270244,-60.81635932805495,-89.54005014444296,-114.26946924392807,-128.42536166383024,-149.8931074497849,-182.61038204781767,-128.4634789266497,136.872906170264,559.7476457463906,865.860459299875,747.2493522482741,165.05307366046068,-460.10873820407727,-621.026994839778,-372.98695199749545,-165.42095049591663,-118.96905942992981,-65.29151691356256,-11.695229100745223,-25.390330976218067,-36.713242146369765,-15.784671910041745,-5.249780187850451,-3.842499978569805,-5.681680560817721,-17.477893539426084,-22.25040378258936,-15.90180428079039,-10.951958336017055,-7.844371807322473,-7.544052206480988,-6.702410048509364,7.346000117852302,33.62597098905959,61.37202952104601,81.61676943967066,86.24141787325286,81.06238466462439,82.44431015109701,90.79269090015521,90.21071941693907,70.80681202253145,35.98634014728421,-2.616230705329114,-26.465564985850023,-30.66619447537643,-43.849699700789905,-74.49968853544881,-77.09851494037022,-46.51797723475032,-40.88257701298987,-56.54221368590893,-38.71899479093169,-5.1158665319282015,-1.0244235055375448,-10.488921499001805,-9.711349014986148,-6.1610329426528985,-5.044557298490204,-6.050262551020957,-7.7555750640410785,-5.923022183957862,-6.348585937138257,-10.175838633838978,-6.104909261920053,1.0311546652769579,2.3218747988952426,4.48873387240927,1.3239463432487675,-12.420734862419156,-13.400300795350892,-1.2541097112579322,-5.655376052248446,-19.33385010476461,-18.92708117837155,-15.188232489710355,-16.270483235845735,-12.44580126223837,-7.500177948082108,-8.47841671172893,-13.750564435273985,-24.19385592344662,-41.9168353368625,-75.3391137113879,-123.50655869793496,-149.53019101140112,-145.3112258115432,-163.19417722191162,-169.7137916475819,-14.555592517830789,342.4116423235465,732.6372055859136,886.562421684677,567.9052251000292,-112.79964023210616,-590.8182988381133,-523.628716866175,-253.0489546112712,-147.39086779319857,-112.33410184440999,-43.7668335499628,-28.413462435484632,-42.798598538262304,-11.43282644484741,13.616962265487594,-3.226775720337974,-15.552033807337533,-9.82926329474633,-8.616598294822943,-19.464110296672235,-36.03770048053368,-39.91451456743172,-18.888783220016293,10.942439528210906,34.75503800622282,61.026139358886965,86.80630538639097,90.06838133621297,74.10056853064773,63.90066632499912,61.94051348024071,56.2245023019072,44.17230238646209,25.715384427586386,7.159623649762396,-3.0008946435629658,-16.343180928151305,-40.97594074211611,-55.36128216654413,-49.12520195108998,-43.07347942738357,-41.772086167097704,-28.433960315488704,-13.355615515156096,-17.47388236996528,-23.22112960196317,-12.699425312112552,-8.765486624838097,-19.33917597175045,-19.475998092405465,-13.381852890035148,-19.820214802212284,-21.461041913233217,-8.754901800645385,-5.66088936380136,-11.554952673832318,-3.7389560654777707,6.6795277472682315,0.45174452036016177,-5.912142149356203,-0.9333218089706925,-4.001914603417617,-15.032656899096882,-11.32445587024073,-1.4117643624884408,-5.714530972140242,-11.350422824544307,-5.468845970669342,0.6869238654053973,1.4317311001694542,-1.037586533659943,-4.283937741560152,-4.416917646891166,-17.00771332445874,-56.20280126116616,-95.96284889718308,-114.63950198770337,-123.72230578017462,-135.65648447510367,-163.9775293272667,-170.702855295512,-19.739890930137918,348.0345999024452,753.9257347644664,878.6804911019223,494.60192681408734,-203.54631904619515,-607.525097975734,-453.74573220617157,-180.7344701055323,-127.38419061550042,-115.04845155511063,-40.57582732987396,-27.818188981818693,-45.62978027985531,-11.045796874118386,11.7542003930273,-9.10163825624765,-25.000667381354333,-32.95720733723627,-42.72761810050648,-35.90473949632218,-17.04004438968772,-7.22462323448136,-4.8443456974571975,4.901015283480055,25.19943984798121,45.445107674519846,59.82002369259817,72.3550570965011,76.9915706171619,63.40761447379593,43.639867100268745,34.00105132940381,28.054074040668432,17.94539740974722,5.862705190335827,-9.602036067916957,-22.67181973865048,-25.24772391593301,-28.5150182671262,-36.875202068433566,-35.54613913971127,-26.60197256334246,-23.669188947454302,-24.52870127681436,-22.90607268446452,-17.945714276854098,-12.200139831683309,-9.143963268209987,-4.033860324790965,0.24700592933645993,-9.350655849093918,-18.380679696051917,-7.220956400863749,3.8456662254516765,-0.8467595911938091,-7.092476812583449,-13.75007314151043,-19.943248461455905,-8.28309089231566,7.8631151330666,-1.3207098927728715,-20.3446495584633,-17.768482446507377,-2.424166351296833,-0.5963365631830904,-13.034530838335865,-18.707756619339257,-7.720931516574852,3.511856463793187,-0.09668850123028427,-5.642240362651664,1.591204016460714,3.156596382533732,-25.37922067892586,-69.47536014697613,-101.12611130994965,-118.98716221442476,-128.043555928665,-139.15237551899057,-166.79998214209962,-138.46262271214357,75.23623367889147,456.38117263169295,793.9322839993055,802.6462322814718,322.4654809789221,-345.13996363820627,-601.9074339655551,-370.3017578158022,-140.35989886654514,-104.70790345866911,-74.43838996881126,-35.37500045851755,-49.97177515474744,-43.14436200484386,-20.006710785066304,-35.69724407786683,-40.07879376772322,-25.717454104176415,-37.14336476147852,-37.18800266091733,-10.617059410573532,-11.688703091057214,-29.622839249605732,-14.940405768103053,18.083019157201047,37.15048635971972,44.25946887685877,51.4121104703454,63.37868109880428,72.40545385014023,63.88940386720675,45.375829888054014,43.03868275879791,56.003757862306045,52.063500892398785,19.565415647948015,-14.607843576837336,-28.56430463715449,-32.85544791776891,-43.99105150333905,-55.94428436192065,-53.82111669220548,-41.918528723017936,-35.15263023956729,-32.07647489871442,-23.759656820163002,-13.289879299090519,-4.192243449575464,3.4913321453545585,1.2287818968223974,-11.49627470338066,-16.317152876753788,-6.488894138740946,2.815323600203069,1.719100025316525,-6.624354693113926,-14.708366968766285,-12.422126153103314,-2.3121303436558343,-4.723120167554036,-19.95932578079083,-18.662748556646996,1.9228825472237183,8.209685393159774,-4.17953176276508,-8.604670461046329,-9.681124294600941,-25.510814866067946,-33.5544285724237,-12.61762816881901,5.618366822729971,-5.485084577172394,-14.567685589681654,2.1229275946509656,8.411825606219914,-21.930410353091325,-62.16092783963333,-93.2525311805811,-115.95875611423781,-127.23643998235963,-156.0263071457476,-201.99604510942717,-133.4332139511091,166.50236486168626,611.6012784606215,935.2733767470504,791.6924232470478,105.7370574993063,-570.6197095802845,-645.9459650215906,-330.64477480990024,-153.1445205141596,-124.69063416812243,-65.2169454663439,-31.83778835718489,-38.992352285717885,-11.646853187395209,5.143367251130638,-18.542222072617996,-23.204267780094728,-13.293268690789763,-22.728959742212854,-27.118686119272432,-13.971654328698682,-6.281955784237992,-7.217798017872898,1.2470001677619704,23.86038183103743,43.12643066895328,49.28797557101932,56.73641233735673,69.60180524321501,71.96166889228651,61.463639692006566,49.24573130374138,40.247347135416504,35.35024883328106,28.777404624764046,9.145275570832922,-19.782302105946066,-40.30698844434718,-45.77850032272885,-43.801406707433856,-41.88746109873765,-42.38858725809173,-41.81948007859064,-33.947387443244935,-20.177509950163632,-9.140805986888626,-6.894300531825635,-12.513884531559217,-13.44558203388064,0.5766468659312771,10.590402367654736,-2.2786868285496453,-14.43717880476971,-6.151770221393274,-1.066582721139092,-10.226784824674393,-11.198697823784233,-1.6929699221965997,-1.185365511689037,-7.05486254015695,-2.4974114981634816,4.920730169414075,-4.912024673621293,-20.49332909301497,-18.684058521695516,-13.615389160437335,-19.99987637333855,-19.047610144570186,-11.095559637316988,-12.020259976108392,-4.4339479500631,15.292552003819214,18.057180994829878,8.644477124684471,1.8715644478594733,-24.223902597255037,-72.08452496071084,-114.17217614426019,-139.17438972049058,-144.13118829863942,-150.3493728462658,-183.94615394696734,-157.23821943328883,68.59156731146561,466.9346659993489,828.2821267367882,857.809874684117,371.5268460743963,-326.9511446017491,-623.4295890235633,-422.66603617507315,-191.69510007474938,-137.0788325598179,-97.76075408690802,-43.36213867129713,-37.66700796248339,-35.665879970167346,-13.758752602157127,-4.170124732029112,-4.0794546551913236,-4.016475417305003,-10.211185021240624,-25.8779892450127,-40.57141594839719,-27.925691116926572,0.49706608097972627,5.667939500743138,8.688397703124881,35.60300011157787,49.75972726121494,43.18015057158807,48.61470841740967,58.3951043325863,56.44540392449831,51.00932444255105,41.567045618982206,32.930241166542295,35.3803551175351,33.462667560991065,13.986641579606678,-14.240510383989475,-41.7129247353799,-55.162305393234,-47.95701618321337,-35.22749898144533,-22.20272680235426,-8.604966911898138,-15.162107569887617,-32.64909301990237,-20.004762659103033,2.3585163227792307,-12.130953383366304,-31.632455957260547,-21.18779555512284,-16.83894946914453,-22.301363651656406,-1.0761056562600295,16.15543714951068,0.8469475563256381,5.181260920848534,32.811746023768556,17.706643957177263,-22.033358931171755,-22.767317193101263,-7.5721338461212255,-13.560285777944099,-19.427179135783824,-15.447517235234276,-13.214234994458742,-11.571599580245035,-15.23793969334313,-19.371449312419895,-7.116120119772848,2.736675982838456,-7.424000264370694,-11.187962295862329,-1.8450398585927914,-2.7227840114456185,-11.59382862094269,-18.359116258307832,-26.979643105902504,-46.40520784841402,-92.0308832399414,-137.8358897185797,-132.51968405686068,-124.43165508658996,-168.72553134447708,-134.3940610886253,113.28301107927274,485.17713352523134,785.6381218586267,774.0180010845596,278.4099976150776,-380.5612239967286,-600.9021294759593,-369.6396028233118,-167.54993673885613,-124.88111513930222,-76.01651092847857,-34.83246998143203,-38.574748222493895,-18.006067494349637,5.708337431185246,-10.965287781672275,-11.433334098325133,15.562418615244066,4.3538491285068694,-37.749500693940824,-41.07878595701911,-6.901051957189123,5.248057121630701,-4.162076305352576,9.394931589573456,32.91614693671423,32.625536712293936,32.12770578493676,54.78912699888479,71.10847122495892,62.02992620597399,55.487441689267,66.80740247864026,62.42727493815288,20.677988062945467,-17.84592704402095,-17.050132707014633,-10.573598836002661,-30.8377075602405,-46.257074366751155,-37.64692001763281,-36.69670703630464,-42.797551102948944,-24.75522536969938,-3.9512040212305237,-10.52848886753489,-16.492498936027964,-5.796127889001374,-5.411933498024361,-9.864764992880112,6.145366247031937,18.994269704135778,2.4606768664212453,-14.561037377450031,-12.851162267053184,-22.696087001043225,-43.60846204177867,-30.426380618486576,5.7659094512186915,8.432783123310545,-13.463254844341947,-15.5799000264212,-10.43774957131452,-17.928642281710346,-14.806096399662241,-0.9963605817360843,-3.297744740399356,-8.58414975580211,-1.500458495388493,-6.561510299411957,-19.27089403296443,-5.69271847316824,16.102778199766888,13.53415790646867,4.181099990653645,-3.180566438544548,-30.77472208108368,-65.99708013347397,-83.54298454889457,-98.79058402818887,-117.9545748309306,-128.95158533356087,-149.5619489678359,-136.0840926565916,55.98943736926819,444.3510549344881,799.9552000800692,821.7084856188292,365.2370953429272,-306.58355935594517,-620.7966651025683,-420.4370402621973,-171.73133071283462,-138.64611170613426,-108.43760049131362,-20.76744324054185,-19.983688441381638,-52.60582816142955,-20.468575249740695,5.924228230507136,-21.76005311913933,-50.168115780476974,-44.19499295181507,-18.217127387016014,-3.0208593171239073,-8.013938998809387,-8.62265417641655,9.495215856555813,33.061176404412706,46.75307954459377,47.58416482221338,51.263345083615214,66.57687987994707,70.3020858791603,57.98577929874744,62.33724787571967,76.99229682045356,62.32789396144333,32.142944251756234,20.16287779475807,7.180509308550353,-22.22962035985206,-40.739571082094365,-45.96097110634574,-57.35815747631835,-57.80391118713546,-37.38382441373136,-29.406694292520736,-40.746775525080324,-37.99248441734813,-19.811591115879118,-14.956758387792242,-20.085977052548646,-10.591033600049546,5.117962697760031,1.1339180826620598,-14.129863680412615,-15.432838546298438,-4.559432718453966,4.158882296760243,5.729653034562974,0.33809700007525656,-2.7822596149168035,1.0894679500081246,-3.036371134887329,-17.215484884163793,-21.722809607197348,-15.394447461932558,-14.138912025277154,-19.49821047723456,-19.202949206376,-6.419199687702292,4.50257554525513,-0.25678037974837054,-0.10351500208420816,14.338874356747873,6.095622632435239,-26.407826411309667,-33.36129590285041,-20.119330743810302,-35.63840820997346,-74.78722931199712,-105.11682555333088,-117.17494563309637,-119.60491557294094,-150.59602458323593,-190.77351043165334,-86.12298260797205,239.4054245942208,626.8931015731355,836.0579484352527,640.111274247786,19.15261729463805,-537.4507415079206,-538.6113944636755,-245.27559682329095,-135.12694373213276,-129.45272513128972,-48.86680383343928,-15.347394809883298,-45.006863299343586,-19.36325500025802,11.359174195425915,-16.257490352222057,-35.48246787134972,-20.46736350442989,-14.655812634655298,-26.13292637921419,-29.26871982839609,-12.393159579345085,5.019616006891383,7.588403207808662,14.312858678666053,33.265753298695415,44.827838800140455,46.62726943627399,50.72178044061053,59.82069820692304,68.87737632977233,62.743887119084285,40.744031017266934,29.64441749491469,29.027287251784035,10.362118502298248,-17.965655804821257,-32.26580284562039,-41.16367301058486,-49.94996717212103,-47.25419849204658,-37.48301072946479,-27.332595392260792,-15.940762982730654,-15.747434208730496,-27.780748431975553,-26.575942194132722,-12.702948251438503,-11.873400031684753,-12.73890998462636,5.229551260008627,17.169387684396447,8.140196271731444,1.2184393486951244,-7.162024137146549,-25.793035756966162,-20.01965873797706,7.622429006904113,0.07451849648127151,-37.14142538584245,-47.55573200770325,-30.90766252799306,-17.024179064184878,-4.260320281666473,11.282693789002389,14.432638529863285,0.85699334896103,-8.12670151151665,1.234116151314364,9.115720964026234,3.6506642985606277,1.7669201210144792,1.845070531678128,-4.677795184026844,-2.608754789507132,-7.734346109820807,-51.82391841308815,-100.27109113871253,-112.0356814695431,-112.53076797647165,-131.94913486093043,-168.51838696551312,-173.1233155091286,-31.804125541726407,300.0531067900368,675.4548931840006,825.8085074060014,520.2835455032643,-124.2427490912298,-552.3590650061718,-453.4534270508452,-205.24003433789557,-147.06317139105488,-117.95773132084511,-30.403929850813412,-21.49815583856038,-40.52981264870717,3.8094561571537433,18.52272660310559,-11.31637824909284,-1.4008967608837395,6.579123121339414,-34.55510429531324,-55.32466810237144,-35.0337330843397,-27.88135185969872,-26.220908997652057,-0.05078217616424929,19.853756286520017,18.080975774668385,28.854495558365322,53.22282469188126,65.8685821057328,70.15148965208284,60.10049962137737,28.046945044782746,18.817101820365107,48.039494712074166,51.01631556511328,6.956601758023643,-31.363592749929154,-45.27590534637571,-50.112900711864995,-47.67793582374607,-45.348691026549105,-45.86360261303216,-37.00555753824176,-24.68969364190621,-17.240096927618666,-9.243931760738004,-9.6596175840649,-16.516534250109004,-9.453274268919174,-8.629183691302263,-28.32346708947501,-18.78229130717171,21.141461764775954,21.628969002646183,-8.100876058839997,-11.97591770500528,-12.276889204859923,-23.854281057218287,-7.04029983712406,15.972826789477589,0.4583220978958451,-14.856720093362838,-2.551970977133422,-6.494449472168867,-30.04522739755218,-26.90592097320935,-4.577460138319772,-4.852165783274014,-19.690341052176,-17.172713176893545,-5.363214468196723,-6.65888638092737,-9.590720246693206,1.7109972448924742,6.662430171381244,-16.139846050205975,-51.431137208124866,-83.95075447519022,-113.01938208979101,-123.1548000932645,-133.74689390686814,-186.30524325492357,-166.5406629719128,108.18991498323322,546.2589990597946,844.6041724932684,774.8087741538171,255.242802265808,-425.66983659992155,-661.5018782473182,-366.3295858131793,-109.5884556612194,-103.89691142283004,-72.12093574624193,0.8840331881091856,-22.571953573910776,-44.9684709850399,-14.649452804755644,-15.72987576243781,-28.13327936194522,-14.392081184762663,-15.492700731419859,-32.298145445531446,-41.19147988803305,-48.08516282056124,-40.68906707948369,-12.01905360650659,9.680826069267136,23.355350044144423,55.245044202136576,89.50824583641469,89.86142198458981,66.21481809240993,49.187041323029646,43.17440905060899,44.69344547362086,47.7828718719694,35.957399505407864,14.60388195764013,0.3594054755503042,-17.902959284788004,-42.38107069344928,-51.04410924940747,-48.02235255034845,-48.20977948826036,-42.833652306493356,-30.353925760361154,-18.348147026224343,-6.015851277190283,-3.7224130992307956,-12.15480332620648,-6.977957665719806,3.3128902278096763,-7.649760824524417,-13.514768611824417,7.218812246766189,13.291114695041543,-11.557171992809842,-23.94117094350506,-7.218271361823501,9.451951690023481,4.463498810070938,-15.560335452055266,-23.24838133128906,-4.406562124592894,14.604099209147895,8.981420132209145,-7.840057407903522,-18.076602009247026,-20.972480817506465,-15.890443522693785,-5.852446871915445,-3.0434179388691653,-6.570523438900263,-3.0246087303434024,3.039855540405182,0.31170143916652826,-3.942328382228027,-15.134408001750465,-53.459447032643475,-99.2492851832323,-115.23834137265105,-109.9856064396598,-124.30641542923597,-171.69551628382413,-169.48938535987784,26.736703693209307,425.66027876914853,808.7884019205322,854.464445445278,378.8399624402988,-330.93188723468245,-651.6102367443835,-436.15962428436626,-171.97259370248585,-122.3752611185319,-99.01379416361581,-37.89666716030533,-27.717377636834335,-27.180689490282056,0.3266319224593559,7.078124629612894,-8.824930494076089,-25.042973309504145,-35.89932234658579,-31.026634167995276,-26.35784863579045,-35.1283548640469,-26.154573528737878,6.026522814495726,27.313172770976273,35.742376654116036,48.602757461123446,62.23394995504872,70.89628812226209,69.79939520508927,53.473122892072084,37.954235179704185,38.37102864852833,42.87890132721534,41.95532102208142,30.626002187595052,-2.0530609303816516,-34.78282770208804,-36.16455223882845,-29.10039428522686,-39.00659194449061,-39.12693223936224,-19.29031292313228,-10.980212346575996,-22.03726020295398,-29.759253184021215,-24.66829474261806,-20.38108461362242,-25.151509535101404,-19.779313838713648,1.0916517636882563,3.7949884972066563,-10.757559193762283,-1.47408012434334,16.41114106017872,3.342044542456563,-13.314783730309845,-1.9169375418628878,10.94590844654791,4.403927584359822,-4.944984574658713,-2.2212462371068824,5.663058434210058,1.6130355599408155,-12.060521530388485,-14.56483503763306,-7.512339349876234,-7.260944709281148,-12.283082912517681,-18.867504750356616,-22.93750476627472,-10.249795245543424,10.635234470165077,16.61164509015112,10.672971579244438,-7.4477355945891315,-48.07789214260667,-86.4045074604046,-102.05013870574876,-109.96959094177444,-110.34011944760636,-125.40210425694255,-181.99229062170295,-148.79796872804275,131.5742170523693,548.2958210503826,833.4226738695286,747.2408708172143,185.81879898593968,-467.61858889641996,-608.1705438358836,-343.4393420311085,-220.42481613213894,-212.06225426863506,-79.11457023606889,3.0183760568286857,-38.06937550756798,-11.131959675520683,49.728784451938225,34.053989690786345,10.817727830806184,4.394010786958962,-15.482924055165256,-21.859529082256724,-25.14522951197862,-33.056595095966394,-5.02051750410309,30.790570908031704,28.299902373963654,23.76185292871557,41.99150622989391,55.03471934786569,53.85424590208512,50.32844924016913,48.10950862044673,45.55127268677201,40.583187219597505,32.35225535905347,19.544687966745514,5.413408689690875,-3.8823520580647735,-16.684751173917682,-36.676492363503975,-44.72211435315115,-37.92203337156975,-30.05685529348173,-17.61743611223314,-10.142801463687498,-27.250018977857078,-41.86557372532134,-27.38907865698807,-13.275214491995365,-13.545101334270251,-4.52723513549487,7.0133468150485605,2.2694963622123048,-4.916759986945461,-4.6017208480788625,-6.679848985045393,-13.070347336980884,-14.49224136201377,0.3465201238441722,23.46509293379507,22.614760638916923,-3.6969536567318286,-20.337773053199275,-25.132576417347785,-33.30381756580542,-26.560826077327796,-6.588730994006749,-10.854119343506348,-30.02878118171202,-23.109849559577455,-2.9737207821175033,-5.321244426006956,-19.787087036444376,-17.772540375472587,1.5152986019470802,20.558854409654792,21.623133144633925,-6.421088665363351,-51.800034435436174,-84.53383039590658,-94.65809569830486,-95.67706230988047,-102.56333578725071,-138.53839004792792,-185.4732028937429,-120.97992156329336,157.53328269426927,567.5331646266184,854.6175178778005,717.1672141605616,116.95399644935624,-470.54134210454595,-557.1144447400809,-305.86746851306344,-148.3174030110676,-118.8384493469915,-79.89745019462656,-56.62460770759232,-51.45865518636671,-15.26022819642817,6.235121355646545,-10.229627344008257,-6.280285006060595,15.478208060944812,6.964427447451225,-22.508097568672,-45.26835786293774,-51.54801092206348,-24.193466987118157,20.770105163488076,26.832989680424525,3.5929410754659727,16.448978466421,51.40005675194678,59.085736648234246,65.39492476142668,80.78241793633921,62.56574281180322,35.7335330509829,43.90270911015,46.0782629898722,16.831487145376336,-14.298171888431774,-43.95352633323247,-60.39576696581393,-38.7180919922081,-15.374331521902857,-19.690535786551614,-19.763584311377556,-11.088388346392538,-11.629204944428434,-9.30364275191555,-9.219601449791199,-24.83987123672503,-33.180438993961666,-24.911207728189943,-18.905021627328146,-16.54302698425341,-11.404506387052223,-4.330804074047247,-0.09309676602834571,-9.35160610250102,-19.351945794459503,-8.985940002547917,-2.9709541318024506,-14.946905509382333,-8.100396320544661,9.771980955618673,-1.4387908205308086,-16.615048232601733,-12.528384231913488,-19.28742049661254,-28.217492643025416,-9.713528353192673,10.172090027499834,10.783300034124732,8.591470847290326,5.01224418463177,-1.6132549323051286,-5.149783467270433,-11.831615498801186,-17.41722901044266,-18.52193702898846,-32.99199651529359,-56.911177885679386,-84.86099042578647,-129.5669292555019,-148.06698668669432,-121.86679140119699,-146.63249263377767,-192.36147671467455,-37.31513694409543,364.8391985277966,786.6731193450878,930.2373094186205,551.5466483249704,-186.70731062339684,-626.7177326739966,-472.82521129432087,-191.867054272673,-131.05291669519892,-116.25055441411521,-49.64155924372977,-32.984118253426146,-49.216715389332045,-47.80621983399005,-50.7034734350826,-46.37661000749929,-22.341796292021286,-5.118937062159535,4.330909735618842,12.355261938234642,9.204863376242372,0.8071269257823515,-5.717598848168032,-2.319297948980184,26.283363583609834,50.58702082514846,35.48141025004436,29.99233006263344,72.21526302561746,94.78431974011744,60.206769575836695,34.59902383984565,48.21665097948437,53.169372744829246,31.289856777452606,4.921340540588821,-24.284371508827395,-52.68542686819491,-50.70144448731163,-29.086316935428513,-41.506894345796475,-69.09956759965112,-44.65984130022208,-4.7982487780354575,-16.277618917646212,-23.754999663327443,17.200501801756527,30.957891742894446,-9.483957844841814,-29.58344502414379,-7.913324255829751,3.9251883208947973,-12.204648410511341,-23.382976120287246,-9.795884397469182,13.641256719045575,29.68745391857433,17.153763308291825,-25.831351355184122,-34.08984067821774,5.087226017354619,-3.3784445558618437,-43.52692320421458,-18.001810986923076,4.625355789562757,-31.91257993636669,-18.52717584430426,26.795676590138804,-4.568003230147969,-23.77981897818912,34.335222500992124,47.1394638914825,3.070637823929939,0.18938758009638068,8.073456704283576,-17.81636365384628,-38.26244542920129,-56.52231436900342,-96.0052427192976,-129.29448369425688,-130.55303037291077,-116.63748929747828,-140.5721033594073,-164.2998509946204,1.4354238636234982,395.99138829000026,761.3631506411944,817.9175122903571,425.45877014575063,-244.29151526320987,-618.5532910793593,-434.66220941650596,-159.66669434082675,-117.13809696170507,-90.6856910007232,-16.084950429875903,-29.1439352260506,-46.18385622387268,1.6022729211836584,5.033682326517411,-37.31174715882635,-28.787274965858465,7.522912492341703,-10.081029702425099,-52.17351521749115,-28.724255906943327,27.892485529592385,17.086840487771454,-21.85614975091522,8.635917091149597,64.81104431058804,49.80813049477814,-8.257183347526569,1.3730352223798619,88.10083858201011,127.18298448040919,66.82614411202748,9.753523633038206,15.0140351411289,23.420738701460163,-0.19294973385014713,-25.921362169631834,-32.16004292858117,-29.287742322605006,-32.9958229892482,-42.92526668415629,-45.756287768634365,-23.868693658253843,13.251369645100919,5.775772506788414,-55.21048572473476,-70.24123321446709,-9.9041521338177,21.160564440397163,-5.089496519216322,-11.871113386638136,1.3069941820819544,-12.560743103345779,-27.52753667962278,-10.94736219924387,9.661407272520265,7.80876551865871,-8.926723533593448,-22.836137225151127,-16.02857219758285,8.973585489806068,17.50000291051184,-2.7746200212489445,-16.04911919851209,-12.301285273952583,-22.247508585628957,-30.321992727766016,2.4808421247169994,38.22456910769605,23.410540630172,-7.076133814012788,-3.113205929233615,14.492192124547707,8.260887990917396,-18.711157414421752,-40.15282453734412,-48.433980492824844,-72.52736938900455,-116.02631632109657,-123.26333687625467,-100.25466709084492,-128.74377588032047,-155.04335072601816,-5.03836786266028,333.6704306861725,668.8934451978516,742.8556586267456,367.48634955354896,-255.49338549933225,-563.5818189050399,-382.1116346674904,-137.32842950269443,-87.76008603097,-74.94816701708389,-21.930069870238526,4.260688474353728,12.564020938489172,10.384288869367609,-15.816646147418396,-30.260122288504164,-30.02092939606323,-42.31713456775518,-46.42364842519066,-29.192599546839688,-15.408036509696991,-16.25940766180227,-23.528119338720092,-21.174703064564277,0.320985930070135,26.39377432167176,42.67604028083737,49.758592661004386,52.97298052781689,63.18517935131739,75.35338753554142,68.26939247482848,49.61292774921814,39.12198651899724,27.616793108372164,4.024558748076219,-23.104322150235348,-34.21329132872434,-20.286492707331938,-16.630948636931443,-44.8626039794166,-51.24124639000689,-19.703475988391173,-14.05124338732789,-34.48686021096136,-30.604962162725805,-15.874569143902345,-9.741952563716108,-0.12258464093063459,1.7680144634597497,-5.833668303063959,-7.756997152743999,-17.551339128591415,-30.449285089484153,-19.71800269466924,-5.256280867490688,-7.411434158003981,-3.680385376333634,4.687866791112505,-3.9627290731704825,-15.056330457184078,-8.557918114399921,6.201878892165103,10.867492898600165,-7.03552414863589,-37.01454937910952,-41.81532675070805,-12.598599840104772,8.87545780752273,2.9802137206679085,1.532971353236488,16.435393390631706,15.665540171662784,-16.399464030705744,-59.57894355392578,-97.42930960398651,-126.48078939310798,-136.80989440812814,-137.98183561744793,-162.58476430802136,-156.3436247178713,23.080487879186364,390.59238813439754,761.5792148516823,873.3045621910763,505.6993030020968,-199.40492405966782,-642.0847204022987,-518.7502766908015,-247.40135923228485,-168.23089207645336,-123.16793363500838,-43.570195738326845,-36.70105782757926,-29.92604294846,17.223858656097587,-2.286972191934886,-39.66742288359096,-2.536913541117407,12.443697238691108,-39.19286903640202,-57.85392842477134,-39.90330693455518,-38.642835858467045,-16.55299429520413,36.14095077767875,60.169569099444416,58.97659807843098,72.1880773661189,82.40436431856926,68.07166661919089,54.810552471583826,62.75418564518386,66.36394027415295,39.233153764701,6.750840560844852,1.4579866477397458,1.2697279768480536,-20.54190324003551,-45.04227313312429,-55.84034633404127,-62.63668356617287,-62.65974239412607,-40.71758779715951,-9.110870172258927,-5.476520590682696,-31.344253016119936,-37.351124618423476,-11.045295149315809,-3.1680737124229097,-25.170319109159543,-29.50879926257339,-7.360187739326843,7.2905173336635265,8.707376252689006,6.447351643962357,-6.149387050738024,-21.480038450083068,-20.625591168895692,-12.296984793465139,-6.9380120689713305,8.829810884964042,23.996836726511034,6.894344183245007,-20.85959997898253,-13.84365032648181,8.589676191584616,5.978833910167536,-3.4894015008252914,5.68799849212668,13.7354569402223,10.30420100569295,13.461308866544641,16.000556214377863,-8.766092417910112,-61.505759216671606,-117.60947251392787,-140.59077141102685,-123.67562955725425,-139.05011394877377,-214.02524948735572,-188.92901983215185,79.73668938590106,485.68240313775425,798.6891075393455,775.9458474203516,268.2329466739885,-395.36633979922055,-600.4157057413422,-335.4638079822936,-122.6039208089906,-106.01937617132553,-87.6587361066767,-60.68578866804857,-58.715446796118144,-27.290364403590775,-8.95013514765057,-25.608227092309058,-12.431185604295656,2.1534999664764456,-22.183199050278816,-30.287682543591245,-13.026697070599829,-11.459635602507646,-15.424330259953548,-7.369234468038201,9.588328804924902,35.16948204360168,57.126638014335626,65.62827375710657,64.4885619369056,52.3269183960615,40.74928190325416,46.36974549741375,52.63664023602823,42.166493110259225,26.123398525638162,10.424471473274318,-8.492989138635071,-25.778807871601153,-37.11810362703109,-39.483615473257245,-34.85655751183679,-35.772362287002565,-37.95433984532343,-26.7546063567305,-16.874472817377768,-22.16639907818332,-23.865389366198844,-13.972698660128195,-5.323781801998297,-1.9346636505064616,-5.23838289452376,-9.73385476347239,-2.9779394147013,2.569299961848415,-2.8512432395839546,1.0860330328781664,7.6929738550579,-7.982758404992051,-22.215615157193064,-10.36854455031335,1.945007886455496,-3.6891923232989505,-15.586258793433672,-24.26870550275583,-24.737367902775606,-17.14063390888848,-4.641407456858818,14.93281536131279,26.23222104657789,9.843290456839487,-9.674406827472362,-7.583493125423976,-15.041706081124858,-54.437897161715966,-94.89073495326666,-114.11110678233183,-121.522238359402,-131.91936339634145,-157.0701697750318,-151.25636553836836,2.651473671200577,340.89340673012384,699.2717078488873,781.8325357993583,391.08427501213055,-243.98341538147145,-565.901330000321,-406.16761467989164,-173.76897455686992,-117.34780309138439,-82.42524022241503,-21.053289899422268,-23.684373774620298,-31.44834140702293,6.514802681514988,13.292892295964247,-19.8907261289709,-26.30671425006705,-10.856939729355052,-19.29049843482935,-41.770736878539715,-36.96465594589629,-13.510909078987801,-8.064027297062488,-4.319552104498822,20.666466715210802,37.67072688257767,43.17580031045137,65.91791146676299,80.39307441084142,58.06509724607087,34.806296911320224,33.923222362855284,32.20920194273432,21.080357104678974,10.76160269541299,0.9525650327062576,-13.054052957359719,-29.78861992060651,-36.89983875663657,-26.22083050795699,-18.420215392030105,-30.271733004161298,-38.89009653740382,-29.011368816920644,-18.53971966838399,-10.050843538992396,4.271532816683095,5.320947424446185,-14.515439527079778,-28.625647057491854,-24.70650159691702,-15.53196192342531,-11.91230768912075,-12.565334303199563,2.8315136477780776,36.69917547017643,39.30375439441901,-5.432644460428442,-32.5262467342085,-12.895943223402817,7.219168565907111,5.083135502577413,-5.5208611121915965,-17.982817307904543,-24.091682501280033,-22.320343853262024,-21.474112205607383,-13.993568240229198,0.15732977817360805,-0.3100208553137094,-15.496209528817538,-32.186534690731044,-54.76479671254817,-86.46460158834263,-115.35849185446804,-119.72187852014495,-106.95841674465808,-136.8328706968843,-178.79035397795352,-47.31447917911119,317.1300218665028,697.0831539582131,819.0787690340427,509.69029764407196,-134.6520130915368,-600.9714347009084,-518.7237914410798,-220.6189564422533,-125.52173205614807,-118.55266449761601,-42.51610606309177,-13.814156437332002,-43.256102286719525,-30.72629062482211,-9.12376856090977,-14.908634515700264,-10.333623876878073,-3.752251510409593,-15.201485188573525,-24.65437489733601,-24.079610336187827,-16.81210582750965,-8.290295125268907,-9.57206906483825,-2.736859534620776,30.465317481247304,61.63960351671773,68.04712985627398,61.48410799620363,51.953230058581795,46.16972130822936,41.66511422006667,26.607133606292958,19.938124596356857,32.64505079744155,23.606398872294093,-14.591422280306306,-38.7850132507955,-45.27689035984905,-47.47092340866748,-38.93522497430921,-35.07791664373819,-39.89842816687406,-29.917031434310157,-22.724211985916867,-34.12236119931085,-28.658879146419903,-7.834586273441033,-2.6241330666766913,7.115044377748589,23.176675288496817,6.600468566253509,-15.043999657090147,1.8080042916274266,9.757766700383335,-25.006099271504233,-43.68853789843496,-18.413280066251204,0.2717912300416998,-9.722691129385879,-18.74149779060075,-20.664282059558126,-35.78752760804669,-51.18464752816772,-33.04042790333027,9.175399998757351,39.00411494022032,47.12987947423697,34.78127685779367,7.416661452626441,-5.947569428317674,-8.073424201236682,-44.52459551806412,-109.87260269111948,-149.52868361582202,-146.04110319221965,-135.4496572185553,-161.2292697182159,-174.57654382951088,-24.728978598033436,339.9104177079811,756.5647666116186,921.4567648635093,551.6826429890333,-200.09446777840503,-667.8928324569861,-532.2413708378087,-234.6141791930185,-125.79405764427278,-72.00588681522626,-12.79565160519185,-21.159076041321967,-27.399009066076353,-2.4159586062996823,-9.924741530035185,-17.918468950816013,-1.000867001847194,-14.133918613050927,-46.146058261270205,-40.657250013063965,-6.449552562934127,12.182849593444736,-0.2919631669210032,-7.737140947784476,25.329390327721445,62.841441011508266,64.61168049422967,56.071053482725816,54.4573622529543,47.44880428134594,44.12768291114365,44.83863541392555,36.983936725937184,34.12760109049916,30.487329584623744,-0.27839423785360307,-33.17626037094983,-37.94110632197088,-37.29232511399136,-44.446822798083446,-49.10008577630395,-55.10344169189733,-50.93249821439022,-22.017472561615758,-2.3937295537925145,-16.235191165293454,-25.273565456776538,-5.038458762076985,19.17734715628848,33.01126147223069,34.36601134966414,9.790703732124534,-23.907498071791363,-38.224378851618624,-49.54723350314592,-55.88458503664984,-21.6342800492665,15.259177762292754,2.450053056768901,-13.284396712939113,-6.35784884392957,-20.694756359554596,-27.46660290203248,13.003415919592374,30.66463941049984,-5.7543876603561905,-20.650205860270603,4.162871960363871,14.413966308087279,-1.49628550424546,-19.006894716830004,-20.423909128563977,-8.915921638290568,-21.848813584318137,-76.61175886881847,-124.77246900474779,-123.9372938605843,-108.91704704046398,-143.20867784193138,-194.95396152941427,-115.85911142602978,181.0232415960209,594.7259398952964,882.3851389147619,733.2290251245411,83.53144816635294,-546.7832440000134,-603.0865484735391,-290.08026030110466,-119.11463752409526,-103.40748503265097,-52.48002792229524,-13.146751829683552,-25.16989011745487,-20.700948619173722,-7.125060300435539,-13.85959524043692,-23.211829188277534,-29.03300581851848,-24.455348936813735,-11.684293309414286,-20.22608078952552,-33.69372355454038,-16.282140668382695,3.4389978239171644,5.350261888675249,19.9426169601138,41.690847111226,47.81067888825197,57.11776597577141,66.69520956422457,51.61712198822916,40.280308187994876,54.09712217434179,52.53136219889459,24.959387226844434,5.8285933385493225,-6.014762391523314,-25.81699738172823,-42.47297916801581,-49.03806455850877,-43.67126468309841,-27.656082799937863,-21.88542981833855,-25.555865010075046,-12.892162635778309,1.2911772852867855,-7.967026158947309,-19.678007856218716,-21.475950936952692,-26.668702424366206,-23.594869778653067,-5.107847250896018,2.7294755922782024,-7.638490994196953,-17.658094004543784,-20.36101437121087,-18.773784770459777,-16.915744614502305,-14.951345942741447,-5.563652734743249,3.423180810701485,-1.7398230828597825,-5.326001937897704,2.251229932144639,-2.2499414504156867,-16.004724078291495,-12.172519766306497,-4.831827046219441,-13.313889077197745,-13.776865513259029,1.3867910514814596,6.147010435536028,3.4429084560327095,9.44117625512159,9.647478193162378,-2.522554503057142,-14.748230353579755,-38.0806372837834,-81.86498578344003,-117.50262091159023,-122.58638447347676,-119.57210053444422,-141.88252809460937,-163.73891377773242,-78.53006646445874,202.7590909574149,608.4035200249723,851.9070161168281,606.4339621100752,-56.932493441350786,-560.0050965847892,-518.2364223918421,-232.8489634469744,-96.66690089824155,-63.67134837596076,-12.50673906662469,-2.5843089300976203,-39.75164912298284,-55.587420111199975,-44.233121517645344,-20.252971911766945,1.1110597854313706,-3.917929043088691,-18.250088960675413,-21.14662874300801,-18.571694274708484,-2.2078651056086915,10.886045457992136,-7.924989748622807,-4.5975597626342735,50.52974019937424,66.0076159557524,18.6869465536101,8.804132682860168,45.646936686042736,48.83296009520207,26.068360459485277,30.45729929228338,45.04718199337742,35.920224943410524,15.196851548199186,0.9718074008724331,-15.281360132722059,-42.334395902287945,-61.706242202286234,-47.128925841422365,-13.80868393538617,-13.455490199330296,-50.10385547452396,-61.928418748229184,-32.00821620305833,-15.771367109231761,-23.290883962876627,-10.422992125245706,17.17963172952772,26.017885034550694,25.068496704311013,24.169542814730516,8.420396206686497,-17.800973275440533,-35.84417289683522,-41.54185341245084,-33.5420351589625,-11.662028532218521,6.98670284922,2.805979488280297,-11.078078037341827,-0.9179780716732964,20.817884568463697,5.672581182233202,-29.951463173356238,-30.38603105731175,-14.223990781270786,-18.430175556611854,-14.407161097839085,5.00669187074023,-3.634527373054162,-34.58222339735339,-34.406680319575926,10.985682198888721,51.76894811994523,37.95686527767188,-1.2777346677454782,-16.74757890848165,-39.583482296791786,-97.83321675771039,-143.11640565796097,-143.7000460611517,-130.38453976246203,-150.1663554812705,-182.98340440034875,-89.76083266516429,231.0510710760745,680.7443393720594,983.8349287679897,774.5386120759663,20.119247298382533,-623.7059382064815,-607.5370848503228,-290.0105414147803,-162.4971366938147,-121.83732009051167,-44.24781288389207,-50.68003503547874,-103.38389706091019,-88.48829249969874,-49.45559521559032,-44.708776384226425,-52.602368389753295,-22.90653528238336,45.46993993382749,75.77069637880459,51.182046349193044,35.558629461818995,21.67776554506724,-12.407612384933726,-18.016005558332775,13.201934883227528,42.243411216801675,58.46962174424498,56.021315637938045,34.84119538956216,6.6908113510964835,-17.997415591024605,-6.2743157453004805,37.86755418304743,57.621132569597755,61.101955045938375,54.85931230866203,-16.817936394095938,-80.89001262356769,-37.44496468105085,-1.8227151793274885,-36.996935576726536,-29.46391406979025,-17.788466563955385,-72.97685190032232,-60.25474586520589,31.66374066946305,38.3868922583965,-20.03194554277749,-39.07578467994747,-26.077419117604897,14.621182426817995,40.887165821208676,-18.389261482544526,-62.69509773227103,0.021048120927524394,33.206280852677665,-32.46907119805959,-53.66945249763364,12.048376027896051,41.95535589647736,2.2258526931138896,-25.34566633340423,-4.158775034243039,27.746199469776652,20.536107078663996,-38.13847915592333,-89.4766163181411,-64.3935851372236,3.6744763005289434,31.064825895005843,19.875788817131102,14.350963333646567,9.663311982387217,4.711898707011887,12.383365736449901,1.2807076909008686,-28.784851490675766,-18.017104392212563,4.973084322353926,-36.69657893826562,-83.11283797199822,-65.56180028828294,-70.69714673064632,-144.35087139154973,-197.2452180182752,-185.2994277221801,-83.50195439793637,203.95878782320645,642.2932698928641,926.3664113713309,700.594693374012,-13.840899057613115,-637.2599688144435,-645.0426367397683,-284.81769083052785,-94.80375683416854,-84.01422658060008,-43.19964104830268,-19.254983614417895,-34.69871600186839,-17.563267546255087,-23.36695083122924,-50.385412023698635,5.5138668268856605,71.26313280229984,31.911990360765525,-23.32538255148385,-10.823048469943714,0.09128455087101806,-26.167620396724907,-30.026925339805384,0.5494840951233968,12.071791370844942,12.832423936477204,49.59472589959778,73.42510317876342,38.52686446129117,24.818888828502317,61.7956681326282,69.25999851921695,48.51036909820651,45.71115571164715,30.20725022645557,-2.1048291907290815,-12.886489452901106,-15.856352822970575,-26.502194918174304,-35.20450920526172,-44.086856206586134,-34.89777592490039,-9.06608473226872,-22.22720768877146,-60.457363103880745,-48.672335643855945,-5.925445110080444,9.151175851191175,13.625450650749231,21.113868085465135,2.6114105088263244,-27.431866363274573,-22.742217256261064,9.874063873327517,14.190408215526919,-35.41042683783847,-83.9276123101694,-62.07797444602309,9.197527370853708,52.66781504546057,44.04962011569927,15.80089795210828,-1.1192419135251708,2.7040565611049185,12.646476101202612,3.1596950044009233,-23.131677860494328,-33.07469070500786,-18.71064589250679,-10.290238252197627,-12.74212307297769,-1.5240504707327496,13.186233815045876,8.228200876812677,-2.8272155388395888,-7.273465636773512,-10.214998843555033,-13.1185376142666,-26.515655722065222,-47.46367061195615,-48.16227857809774,-44.448897891565935,-72.3388303940527,-97.4753722667758,-88.07026139626848,-96.67941303348063,-129.444829947515,-68.34619068180179,169.07022361657573,514.7691166175805,757.7864428285375,597.9130868233674,0.5692262367534511,-525.4064658383909,-537.119460956892,-279.44821931904033,-134.35090894687943,-64.74786853971474,-2.7627721891419554,-15.275036792232498,-28.154278315242536,15.287216945806954,18.599198757698723,-12.224889735334244,0.23597427885055566,15.202293651086928,0.3894307621659703,-4.157407699479659,-12.178076766807106,-45.43470201163493,-50.546127169577865,-12.393978028039296,1.3977929802003763,-10.689202453403214,20.604506824588455,67.46308920355776,56.744609790527804,34.334639303578626,53.72301170034658,58.65168710856011,34.85934030597679,44.659857727783006,64.9239784828837,29.551720009803006,-22.375900689072502,-23.097290760354923,-2.056073935322262,-18.66297690520104,-50.39197580669647,-38.72527400435916,-6.194074581233199,-17.522997252348112,-47.81208691751914,-33.700901778729715,-3.8460306438886462,-4.421093852615478,-3.866661084576892,11.007515020118184,1.9336510959276616,-16.332075988934022,-4.579644074621061,10.61295223641303,1.29494977983531,-11.455598821057379,-24.375371367686586,-43.53252686368933,-36.487894988136816,2.2033529777158067,24.206206820679444,14.648025191477323,0.6299029065659951,-10.45523055669931,-20.75460730027141,-21.035983181283882,-9.222190589974872,2.4256481568417314,-5.829968034385402,-29.85591222307746,-30.407343677837172,-2.2879745204953537,11.553704718527804,3.6876767548345306,-0.8716841401372317,-2.8283926273189657,-5.4723284545346935,-2.9457274589771423,-2.0671958019893326,-2.4431674008483437,-7.801388030658117,-42.3368559205151,-88.34446588903091,-95.52962912746716,-76.0559740588013,-81.25534859314125,-121.46009388302497,-152.14330328096764,-77.93979601259129,166.3666731775062,507.77299543553795,750.5823257888405,634.6328740607205,72.82416767056694,-508.301393248651,-572.0238503157516,-268.7126404413417,-103.83263622288858,-99.53551279036054,-47.61228990870327,-8.541808921344668,-32.27093093848039,-20.716971779493772,11.573839292553519,8.908042854390752,10.057829798198918,11.711352328773069,-18.171447796696427,-30.595437578433092,-9.294918950941392,-17.832479248424015,-48.33703694665122,-34.76471646375002,5.264935873708737,22.304144616247903,34.67575739153125,60.52697307723817,70.13094767984441,53.23659238238692,39.535917072629445,48.62191984923548,65.6346605373661,69.07123079721036,61.21537984157676,43.26862328574649,4.166638835898329,-31.549969105529573,-33.02676985648918,-30.930958083341014,-49.77652394267638,-56.32284229349284,-44.80268184918512,-41.4845810137171,-34.48436518549483,-15.277423907215685,-8.709556451685977,-14.90670576444916,-16.360493918244746,-13.61131752153007,-6.095641965738407,2.2922939447796598,-1.2868413182337726,-6.469491009860214,-2.1417103878455954,-4.841407966121476,-17.179121624258435,-19.47855493917615,-8.874333045905626,2.781643297755892,4.657333859829446,-6.360534775029649,-15.106086343207085,-12.237742681686175,-11.966628238142642,-15.122404551437178,-8.203704894384146,-4.243698946911543,-18.721869334733434,-30.16731525608857,-17.78737040367139,0.44365433795519493,-0.2582766212901433,-12.66172654135034,-12.122079458840261,4.38407714080271,16.42083874960549,14.729379453206777,8.842563835428042,-2.5096845407131587,-31.005215781368904,-62.47343966573399,-73.19674712409883,-79.18000867381105,-100.55596812238097,-125.28692212328758,-157.45248296431512,-166.2151655157868,-19.790243632348563,328.20837680616035,698.3011462851108,816.8949895852672,478.5511936935635,-181.6683838892626,-592.7440703667223,-446.94739393663633,-161.0172947325828,-101.86859779094966,-95.20576632681988,-25.56124567701268,-18.4819368103403,-42.11963193039336,-13.673645795633908,1.6852906780126986,-16.94442575929481,-18.758072537207788,-9.716376657624249,-4.8793882842721885,-3.4303608280887055,-12.671939531005005,-11.011507429824109,13.450200595209273,26.214626219521854,22.581414854134966,25.41545896445359,24.07507753123304,21.69267272838399,43.463912199392105,62.66069940237151,48.26041940672698,35.50161455239629,45.40881241497612,44.308376759224075,26.978726377114977,14.886585623960196,-5.22171987896626,-37.633963087049445,-49.436424493436256,-44.95673739204609,-58.573303951842625,-70.50125845857663,-49.554744603385394,-25.347278075727814,-19.996177102517095,-8.730070280235104,5.380130076710444,-2.4522985624306806,-13.218728560329811,-5.506304361973093,0.8423049136886149,-3.5323331977835934,-5.046964289523366,-8.613592497433483,-17.58106973142777,-11.919500791410666,6.377445606049456,8.782444557686675,-6.372985726095269,-16.699258265025136,-13.984080176808062,-6.914345705303447,-8.163128894675879,-11.341543844482032,3.0932453772412174,11.973218777567546,-16.02926033845337,-36.523227286224234,-13.788101687735796,0.4505875491774738,-13.685008517625429,-14.251590678370437,-5.611287283538134,-4.051433319957251,7.464706919664673,13.863392850601231,6.977389030712018,13.443469425444475,1.543616007300506,-49.29846053348365,-72.4428585100638,-75.44124421766713,-117.47871448905954,-144.59984073476716,-146.20864653906096,-178.0415787015273,-94.4917210000804,249.90972564984065,657.7228784158256,812.2969277936659,534.3129009832367,-82.29142194745518,-522.1417780049526,-415.1023651728997,-137.94781526739382,-101.07865667724408,-115.37692892974697,-34.59331842461093,-24.947978166164802,-64.82274594019263,-38.96953521118953,-22.01498156568186,-36.37725971726724,-10.10196796158522,16.219517294644398,-4.435387486457458,-24.063929365175618,-20.798347033243942,-17.195040596282986,-18.150552047381176,-16.271002483993446,0.5739554995425458,30.241955075488836,45.772804446333495,46.81552382936453,55.99112757599275,59.23869138283122,44.99358557848174,47.402187558111024,68.01634899553274,60.074776789629674,28.113596705326025,12.453389249653208,-1.2892425322039873,-32.552179255988975,-48.59745269852383,-40.569223645265275,-38.490501534882114,-36.67793350330493,-21.034712946746026,-13.158112887184098,-17.27272846505913,-18.780171511830005,-26.630250622233852,-34.55744524174827,-18.627398414377886,-0.36757965639959167,-9.752974950721079,-20.900501449890086,-6.497684206815219,10.938778641904387,10.238239381893521,8.861969398887949,14.732980501020094,2.164944651675988,-23.303429454877424,-21.274766438963084,-8.011841066292979,-21.75550506561268,-25.15682531015513,5.584652280823946,12.837374290690168,-12.022987177672592,-13.457245526374983,2.6145255436130235,-0.9235442803453005,-15.658717124788854,-22.875504990680216,-10.669825605240128,17.0089609467288,21.08827830391835,-0.0060113247598097,4.283269712122705,19.70035501415669,-11.303977982879605,-66.66148922450843,-98.07307442859175,-114.11871856444273,-129.3824755350751,-152.41265970250782,-175.85626914928662,-101.51577206473769,159.09841238851618,523.1077934413283,785.7758113800039,692.7384918096632,142.0093122249782,-455.95549914420246,-552.2120603449349,-279.50156152600323,-130.33579436649234,-120.25859988882524,-57.817813153821106,-17.592355258136223,-39.04992530736919,-22.900807904759958,6.999280602492139,-3.7405249723609835,-11.68843239015113,-2.925104861599949,-5.928047179744063,-13.082123443514334,-6.257430787873101,4.99570556608754,-2.3000653518733865,-20.681618307129533,-14.16872626270989,17.02115522022528,39.95086919689548,46.91966901593491,50.492416282252165,57.30672223696324,65.02914242878902,70.0982952023965,77.2844357738644,78.519289444814,56.695817763751805,27.60810119174988,6.690754379243989,-19.33427486385643,-37.86795187037315,-33.547954011939794,-31.245539355248837,-30.988636793390025,-18.014748293713218,-21.523426532229582,-41.41881517058992,-35.8954219668759,-15.658055431891729,-9.823079540046791,-11.672486371963917,-21.516023592450814,-31.72026103634885,-15.82902273251841,9.73686153355515,15.323340159638285,15.368473686245673,19.314164127488766,11.123303156921432,-4.564540077730507,-7.317505935460548,2.91169880998394,5.058479796679488,-9.92042443658813,-18.373743261479905,-3.340890376654289,12.849971528234681,13.622547048938438,13.432260272412174,8.859378836315798,-20.537247140314804,-46.41551462792185,-24.94174954391767,9.518619381925959,6.30690058547202,-1.6263804796522283,9.64624359068878,-10.516366935895528,-65.09625381106457,-98.04973762348487,-112.26475766303801,-133.60029082610058,-153.25308408985293,-181.55289673216433,-187.60191747022077,-41.233329459904866,304.9652961499796,698.1924717944748,878.4533390634882,601.2735741504958,-61.917369975721584,-563.9529532992751,-516.3899582105591,-231.86937900319643,-122.05355358867885,-115.08496403600144,-58.44969104199526,-20.33513207440386,-25.30899142819247,-13.64497899830564,-0.5505247488436815,-12.533286676196772,-18.72381641334642,-2.7811556231212826,2.950661400591038,-21.857877099163055,-38.47476881781351,-16.788976828989533,5.76531731105544,6.9604378731709415,18.122004139392363,42.84572458089606,56.64181719072413,62.032814301834776,66.93903745671707,65.48465482787236,56.95203091792587,48.08604369753792,46.773330383203174,45.227033338284656,22.9426822181943,-5.2580397660434866,-6.934436954069891,-3.563860774955554,-27.133598052984116,-47.61117047952055,-38.03138950297377,-28.400871393901475,-34.48074311343217,-30.214761202435604,-12.718969138552453,-9.530489784971817,-20.70991942993828,-18.837068601422608,-3.0911320462515715,1.5905436603229681,-6.719386721245495,-10.274266841913104,-5.490837858696263,1.469147252220262,3.1948275511365445,-4.1057004818136456,-7.108362185944046,0.9881813336839045,6.245745816793491,7.606706700401478,6.634929598670901,-8.716683416459741,-21.80323105583448,-10.252441730258013,-1.072033177434406,-14.301627174539206,-25.57869744847445,-26.68502166013889,-27.395695955278168,-16.562876214196347,5.587462169269861,10.451861144847133,-3.5208580656185644,-1.9118665176545022,11.440030554727652,-10.06418414213453,-62.97803845613032,-101.68417161371764,-122.09536436588908,-134.15906258136482,-143.38967142749837,-171.4456624330753,-149.79117519930634,57.32106942631657,423.1472532194112,755.6572078039135,808.5038226724622,375.81528998755425,-306.0448521644139,-588.2463655350643,-343.44778829679717,-123.32007997866818,-136.6038176538716,-106.92843570160586,-19.45064571945673,-32.61545217655002,-57.945613818927626,-17.93340766655011,-5.735275908982821,-25.892118577840748,-13.64603469511135,-4.589260535981534,-24.688622717237624,-22.520050210707844,-0.4639976761379181,0.4660318543158004,3.3326728031977675,20.60528023393895,18.21106135127312,18.77617587771587,51.943492990305444,64.4287843151958,39.65714042670575,37.25657547769026,52.261781448497786,40.65137282137363,29.61025446722143,42.16092494172072,41.38776722437356,18.298152740254473,-1.4791963410061397,-19.36194033747404,-36.99127687331168,-38.174435727041384,-33.47743278624597,-40.71077009272916,-38.88867621591198,-13.737174025318875,4.216001115802232,0.1254192572024877,0.17593124996766107,5.511444410129167,-10.372617413534947,-30.73547830917778,-21.350150257184215,-1.5394519988489357,1.0330817096247067,-3.7753597956249436,-15.737210709182012,-35.66425303413226,-35.117585165882,-14.851163081057027,-2.0571827567047674,7.341094536391754,9.10676325841306,-7.351341608686836,-7.727654134824473,8.528493173002627,-3.8105362089068944,-16.826115306756055,6.049620655912834,10.530437303887101,-20.700346094700716,-26.942482170829226,-3.882578477880415,8.800027613946895,12.84970389855781,17.741947527465268,10.432274323523623,-18.85342674313793,-57.96331958801076,-82.73090773846289,-100.5122106602065,-133.8016459428879,-163.12475478004126,-171.18518681353126,-148.7293920868865,-13.241070746637575,301.5190872260732,681.2374739848269,836.1066463575967,503.20795866385646,-150.17865682732656,-524.9372400632449,-393.80202494818894,-182.31248797849398,-138.7041974265366,-87.71286248752702,-22.33292131415513,-48.22146888403455,-64.0703662754436,-26.971397283313358,-21.0928310289511,-19.328821163987246,1.583268807115907,-13.081600583707171,-29.290331531699476,-5.612674548128663,2.9727966664032515,-15.992002710560799,-19.564442500235966,-6.13488609763812,14.233666511599134,35.74747313716004,46.49214709235697,58.99016589197595,71.79896218137013,55.164933803533536,33.583693702673294,52.95422785565111,74.2323702151754,41.240879767569695,-5.266031353819822,-7.388061407129802,0.28483456055161493,-22.960173704523818,-40.781338622960284,-35.34190364066647,-36.01332183991248,-35.88265324655139,-26.812090046453676,-29.636654707717476,-32.14731855716386,-29.8183501366307,-39.7687965463341,-25.878459554776367,10.875011161003975,0.37454194908509564,-18.632978834638635,22.220664018747524,37.79797563845736,-11.359382596046576,-23.60727311174653,-7.908335254909968,-35.080234538946435,-34.73629874514668,16.02243905812488,12.496096079841282,-19.716089650428408,7.7021203288791575,21.24160489327615,-23.786362431804143,-28.986864332858737,6.24460184178037,-0.6195737499989846,-18.762573509541543,-8.34156441755638,-7.821640007973141,-11.959026995922422,7.856892894775088,23.17686501635466,16.86149394388208,8.890873106631517,2.453143786225583,-17.939495766828948,-58.69898629737487,-98.18821945306675,-114.32175498597474,-126.55859911802708,-156.90233249641759,-190.86462928592601,-185.76543811874188,-67.11369807226893,225.7634362786147,645.9021250758832,939.8801640342094,721.0052978011488,3.592319389807912,-549.9611440480976,-506.83003529546636,-252.1607341210686,-168.50963433849859,-125.36480074367893,-46.56013232611477,-42.725848099990685,-64.81899186221995,-37.46970600783908,-14.775957119736962,-16.91204292545737,-16.745121061308552,-15.72147061271877,-16.304464900497774,-21.769668256909135,-23.895160190734178,1.1051872265495195,26.002508863090593,21.309384174133015,33.68110833137599,62.889788991292846,31.60655990063428,-17.74289977497142,23.19789985783238,85.58882066668593,59.699072150348215,22.096109586999937,48.38427649515246,66.37959935471699,36.45006818367756,2.3935707118788656,-13.34194528397611,-13.214481747551146,-23.697031124647975,-55.26836633211547,-47.91509235165378,-8.408628927834375,-29.05838424618195,-70.93336027771207,-40.9851787427767,1.1189472301755874,-1.5455748743199376,6.01219664543413,26.529390420246738,9.387489135028861,-26.93945430695942,-30.284751454516623,-3.9947153325074023,-5.073814367810659,-35.418231806743556,-16.82689468007964,36.3084358445416,26.792752251089276,-14.228077505270306,-15.409454075926744,-17.790283525041353,-25.442533865649153,0.22827489263627676,1.264925778951838,-32.789267495472,-12.396572825884947,36.997350166552515,25.879204138009744,-13.689177942284452,-23.739404233785745,-17.091984889611425,-12.752742308433868,-13.723755033224744,-8.332582532572783,16.883644075339852,28.764333675533432,-4.209168329363105,-46.99658048504596,-70.87030420205197,-98.82974849373481,-129.20332424794356,-133.1972721133367,-140.05156007283065,-171.29641530068363,-111.73310716820467,153.40140311089164,536.6254317445696,808.4946809351667,711.0168248957707,169.35252138588626,-397.7795746130089,-485.5393538086416,-259.242591765924,-162.6655689080189,-152.5243624555058,-64.72089932985796,-23.791696073194245,-58.16106248461155,-41.50662014892054,3.948223596768873,9.731570179043668,-8.467914429749126,-32.70548817663242,-41.36079035066166,-24.523789733149176,-11.931375986032416,-7.98097051527483,-6.307162835164709,-19.052644182596882,-24.38488725987267,1.6738990277177113,34.70277562044212,47.51209300550683,39.53834902028517,33.304552884156436,50.58917193897632,71.38925683986224,76.09065776411947,79.59775364671428,63.881419172266206,7.62127773844094,-26.564243829074492,2.4821543435553863,16.303521384211223,-35.69910900898341,-78.88521473078362,-59.61193247042204,-26.88175599250995,-19.74309226299425,-20.215045596887293,-13.809497816222509,1.0261571278870854,10.932818157213873,-9.174117950382316,-31.160400505749106,-14.352324332335265,-0.2855649747707272,-15.601147252720256,-13.11591394537167,-0.9702101475254743,-15.725606015283855,-17.610765555264905,3.569484341246298,-2.618360995390791,-14.090651174671919,11.852511691264898,22.7120615064644,-20.309300877034623,-45.088562485152714,-3.0693770611006856,31.128773691771194,3.690899624660272,-21.30539699085644,-7.719753997813736,-1.4146032293903357,-3.9182103640002595,5.6947552329055275,1.9964788343096096,-7.769579328848566,4.756449647066786,14.576598626992155,5.94420571175606,-8.316583791333597,-33.493206656574756,-66.84022938278065,-100.06570298791735,-121.4639508422311,-113.59467378602852,-127.83956477372637,-170.9379506495212,-72.29941981752071,228.04827473690546,549.484452528529,732.7405542015719,600.9519908715486,57.229237079577295,-466.8624438903325,-483.2007208397316,-235.34543061510888,-144.04657100218924,-127.87570834379571,-52.538300223478586,-10.119789320342662,-15.197157078351239,-12.79906349123118,-12.165805044535645,-18.201558793826813,-20.295956044489962,-16.947498285177648,-18.166847216002246,-38.94819628424365,-45.6156317259325,-15.208796048621092,-9.26849162372919,-36.64479445918221,-17.49700206123947,40.80981232361999,57.939720686605234,36.336203897733036,31.671537044070448,49.354102485149,57.172949774342,48.083654276042836,50.18095442872434,69.46233655854978,62.941321376368734,15.841947165962718,-19.72564553394104,-19.74830071243595,-22.223564658010915,-33.55203991470583,-29.041567536624488,-27.221084973657,-41.303672224845386,-41.6672053088528,-31.517478970677438,-32.64175333161952,-23.84304412891442,-1.85189361667517,1.9913307917555656,-6.173324692593123,-9.674191616296206,-16.4532070487867,-15.441040611688653,0.5097414630756099,2.7864811697145413,-15.808710214358477,-27.37748863046358,-17.7121963074065,0.08263026527586348,5.1174855400674275,-3.546057780987937,-12.527288109968406,-19.51765895744686,-16.232814562407704,-0.2536232589712508,-1.1562346121427858,-17.550843292850157,-11.997760931226178,3.4034330931351278,-0.816090969236047,-12.13530068180016,-15.869317015102958,-2.487208027582236,27.163740738886702,36.60288751609169,20.316863938475095,8.04867349287741,-21.80482392070175,-81.5600034854361,-123.32106015777099,-139.06867826922158,-146.91328447429885,-146.4465975979593,-176.44576537587085,-194.23726148384856,-11.574316767668762,396.42552880482765,783.0631284286915,869.2985638829567,477.59577398498436,-218.38880046694578,-618.4338631262419,-462.3979135279578,-204.8382146951999,-151.25642720133646,-108.39073579102042,-27.871611507996406,-36.25856648359998,-55.850372897124196,-19.065505604018394,-10.432374947937525,-28.931475896014938,-19.284764320380113,-10.592051059964259,-21.447003720527434,-21.74557392499824,-11.671398647545558,-10.618781561395345,-8.128656392115909,9.661818735455403,23.531627545948478,23.899030728049603,38.895774909332154,66.2250948695925,68.798771958158,60.978939705681,75.75058327954132,80.5670997048517,47.45468805923726,22.008359519757803,26.50017370561483,11.813000929855885,-29.02426210717742,-42.483814609989544,-34.55838181162236,-50.95491091262118,-72.84538009248702,-66.40463748432953,-38.97921259383418,0.22872983201892438,21.59825791784018,-6.526562196441255,-34.0566458799514,-18.605233547933334,-12.413547037075944,-28.1809893758888,-18.55371310904559,-6.550027496682169,-22.106589291710215,-20.827827705301697,6.3406985092312524,11.2752747358523,-6.890945397717033,-9.700282925178449,5.365366975297217,9.694648013186276,2.0096827590408957,4.316530262400921,-1.6005288428989886,-36.236385459372,-52.78341552704153,-28.30007496421314,-11.829004561131285,-12.987479280809996,-8.90425832906029,-11.546549063396427,-7.853487914118286,14.049818092905172,-0.6752222693930747,-48.52100686444176,-46.428744272953885,-10.809609543017437,-24.731585898260853,-77.997510816167,-119.4818294389822,-140.46350999600412,-151.5723485691979,-168.19952210435562,-149.3584416687616,22.027669002520838,380.6930678917462,770.7490109947629,882.0535794880736,452.88220162805976,-278.405102778342,-632.7499980858003,-420.18610801507225,-164.56817924383924,-138.5723966026788,-114.30120046805683,-33.6919031429976,-15.719677252229346,-17.386959442092973,-7.439806280645492,-32.173435689531985,-51.55719699169589,-33.34181092970797,-15.087184712053997,-11.498657246265402,-24.523789944181317,-37.76433603634735,-17.812573306536905,10.883339633718688,21.457384839942943,32.38918356581941,38.73927578393481,39.01108352298261,43.4912767466472,34.305378069602995,37.6598189970553,73.57036601737147,75.9287510448046,55.04425231106025,70.8378551325979,53.17509175090427,-19.956465633054094,-50.14590632188184,-51.41724904034462,-61.570251014061654,-25.163339689086385,6.662203719122489,-29.55330834972964,-26.99154060621757,23.30370313751756,-5.914088773540421,-52.8089232798429,-12.614314981239328,8.67975621373063,-35.854229194939975,-40.63862920335276,-20.582955723801724,-31.764559679559348,-15.392714928138016,18.862834380297333,2.9826126986980945,-20.84139621130081,-17.473721310736046,-14.923348762266812,-6.442577384481414,-7.903941689626279,-33.99737895043206,-23.502054515450173,10.015741862573428,-9.554057586971759,-31.59157447699662,-0.6609279902691867,18.633259263284316,5.8047125796671,4.443010220397378,3.649790260950443,-8.467000671739168,-7.779693420145818,0.592311856990988,4.0663381845179,5.195805641184155,-24.81451232076148,-93.16397110841962,-127.84570579389906,-110.52094815644554,-130.4869016327194,-187.0374830541452,-153.61442009952935,25.811242337570874,331.0932125653715,686.9249379479635,798.9021672338545,391.2163756278683,-255.29592065310268,-558.6490992235936,-420.74308665758156,-198.46837090892683,-94.14012686681944,-62.17452689656156,-50.143574605005924,-34.01182749912853,-11.841568215885097,-9.576402521562265,-14.241020519598536,-3.204872323348532,-6.35381954144129,-30.136925788430666,-24.862017702801694,9.198846223944223,6.6284643451700695,-35.883500944904775,-42.40231198718698,2.3418145924123195,33.90218933968173,35.061105381887685,37.59838550039867,38.92568523541763,31.46297928807803,36.18127129315522,55.46309892432187,70.77397843980435,74.07640702087126,56.43783542890582,18.768532042644363,-8.147765631605516,-14.204953578837031,-26.41158728133329,-43.98005371262634,-47.52995418836718,-46.21026337967352,-43.73694156325348,-37.798755918904234,-41.35980640461449,-35.89021493153112,-9.893958459617231,-8.305693792024865,-22.711952012099978,-5.075155709972535,0.6568364170247634,-27.555997464910966,-16.61590195080002,14.464063186641138,-8.023503361076784,-27.411162643410535,5.6334909190720595,16.380042563399623,-18.33012966594208,-32.48597287689975,-12.492604885747498,6.210066278184996,5.916027188870185,-16.608636490379705,-45.2537536859142,-47.15455142506854,-16.015442102816095,14.884002319105155,18.63571183331745,11.659335567036434,16.76527710531185,19.565165639831235,1.2430469258169055,-35.422157259895386,-80.01994016305389,-97.14701735688502,-63.06854429776659,-42.22262785145113,-85.56595988684143,-124.66542538096384,-127.43146549997198,-142.21678877173028,-82.7715413031716,189.9089205807515,570.3056360726237,780.7506961863304,605.2306829988757,52.19841874709674,-472.6403440474479,-525.4502051705897,-279.6853852687003,-167.7785346691474,-139.46989515663807,-32.34303889472697,-9.336105524888993,-85.28694649941897,-53.7038680614652,34.023448879246835,28.526476925801354,-7.073728712666782,-17.18039087201725,-31.336148558996335,-26.640515261797432,-8.780210965003972,-20.01643462702205,-37.29252600830612,-39.16751977050391,-30.864521513545395,-1.1369354209390163,26.47048633779387,38.94690456935996,84.91525150898038,144.79536697259962,140.54666463976724,91.48261541046872,67.61992096444368,76.28601698945705,68.8217348038536,0.3535288745376417,-74.46435310809282,-64.00660955329184,-37.3116969823659,-90.91908683921619,-121.78318406434212,-59.960220693700094,-30.72644436059378,-56.14933243321906,-21.349536940713918,34.39722284747458,11.587767535386078,-30.981326311835282,-25.02344242393759,-4.556407033996571,5.632439564954476,11.626042442577798,15.360765601620692,8.26276576543647,-31.607415446889625,-59.00852519000702,-5.387794647151587,36.630525000269955,-25.676621993684215,-61.45609006250166,-0.5113852556013967,14.088013635254612,-41.03181441125265,-50.633690035144575,-20.88506007815291,-0.12656838860979036,18.416625352593712,19.361078480129105,11.891108311973763,22.069231804146717,20.397672541782462,3.9929216973001953,-22.50045689475616,-86.61262402737775,-119.13252474767084,-80.93334742223082,-96.84361984372522,-168.3875023275507,-187.97901113833882,-202.10535591875544,-140.95440318167357,222.76808890976096,753.5262611120779,1024.4650799483534,774.7149622160333,38.24242741917092,-696.6908565622088,-798.2158176148298,-374.36056310746346,-62.61523774454149,-22.291665228049155,-30.563467343181188,-48.2600073577224,-71.44884701360871,-24.625625755559472,44.737961631317084,41.282753914683894,-36.698400565396,-107.5788626094857,-76.93548452321245,14.658294559394236,41.91129261110463,25.758033110647126,40.29820838235489,39.10758431852468,15.196077937430932,32.167962790610126,44.0235065360273,6.228132920169566,-3.196447388619724,35.053166952121586,66.17389096501807,93.80829051323778,101.02327604158309,57.00010911384131,19.789614398255026,6.304397166533779,-28.89971441858745,-50.55300760562231,-55.431988990174716,-96.60892075757192,-98.12105144910122,-23.79027689152141,-15.058799740884055,-74.42878485126495,-60.44117552739748,-13.581107477501725,-23.858315341038473,-17.274565426995025,38.214118596140665,54.854807646894294,20.790620351633656,0.967386001329837,5.704272814646721,1.145606449308353,-20.720856580209322,-29.817760783660802,-6.8410057707226315,8.088857224030285,-23.751775706328637,-55.49271747742839,-36.46680498600851,-5.002394097861455,7.97182089231357,22.25548266952259,12.0554198139139,-30.788612616671667,-30.09717755260357,6.859275019811083,-0.25675192576827754,-16.10170598330996,-11.193684743364823,-55.28173875313155,-112.2163775428244,-100.58526131371572,-87.08340981142918,-128.26243586681633,-183.44752119586633,-210.94542763250726,-96.21447043630334,269.10848110051865,738.8473504191098,975.9156434707772,692.140189279751,-49.5731834740465,-650.0854245537366,-607.8209527399804,-241.46484595424914,-101.26228015267982,-148.08114858300723,-122.05283390325954,-44.64163254066772,-5.067223109984084,17.083603692294794,38.11323316134788,26.313538812443277,-31.328861332784466,-71.23223264571595,-46.15161615529427,-21.96173730596311,-36.047873783111825,-32.99457896646129,-10.153022499324646,3.335759709819441,27.626315710242558,59.038639926105176,77.46386920601834,89.66417275885524,80.78042084226773,50.463902324756454,37.55396748046439,41.704944871549785,44.9933103247795,46.29109258230673,23.200757812704595,-16.56535525449152,-29.79845910497771,-31.12950361161048,-44.359804414583635,-45.45541294218123,-36.54980259137466,-35.42936456661797,-31.23167818961472,-23.318247156425628,-12.47490407039049,1.4189772341263147,-4.904972126302539,-17.601939443410295,-8.478488044741319,-14.482670225614314,-35.63695065456188,-11.52052671298958,22.043338474444614,1.2706724902311777,-19.292904985155893,0.41527352424084896,6.781297111549847,-8.399554717029416,-8.471375696202621,-9.337909588437473,-22.22909034939742,-16.800608051037408,-0.7345959626178313,-1.4221983971929504,-2.207232122180251,2.228143341177452,-4.986934833303607,-2.5796403629440787,11.70661301963175,0.22717130175464995,-19.090668491270613,-24.176180182253287,-58.746211319822116,-113.57335082885305,-124.904218578143,-118.56714545337552,-159.20526424054515,-205.55745326043794,-127.51407146392775,164.8281965387217,603.4835768015175,918.9455703590136,757.3874145433248,82.20580836466237,-545.8250806758248,-577.9111936044123,-255.3201371181019,-111.60887793965195,-126.96629970717979,-75.26347207669998,-29.97881709466637,-50.395257452767005,-42.67705761636468,-20.2090297471481,-32.435226425421874,-31.65070175708584,-10.181538585284208,-16.432035752867456,-34.33469544857587,-24.389567939518834,-10.736792113500819,-20.28233087786765,-11.134711737077517,41.07512178638831,71.67061456442715,52.2245478303894,54.50174384958083,94.53460843350095,96.42219040822698,52.46342842914096,31.12868780228407,48.41455990332136,62.11769043506668,38.13515042682588,-15.680613908904053,-49.47594913138151,-46.11611186059717,-51.63684218937668,-66.9461610430585,-45.286832510083826,-16.393224201722234,-25.424248465488752,-25.713693452850617,0.5252196520216188,-8.594538083725034,-42.981495122484176,-40.45368085003079,-22.404101984265832,-19.962745775653786,-2.601183823392244,24.925009426247605,30.59904825978829,32.15102214939593,31.564552303298612,0.1224685252476867,-32.357224936403895,-28.098564130627416,-19.235596899758015,-28.65630287219393,-28.56064492400163,-13.735648648022377,-14.735142799436325,-34.75700593178942,-33.26902722769234,1.5339927591299656,19.064648025384365,5.050545283877628,9.505887490518974,31.892281941824862,28.651184131326445,1.0129786318901264,-39.76191799942153,-79.67108292601185,-87.863645680085,-95.85749897299111,-134.0787790556933,-141.92135700905106,-128.9252026539188,-143.62077406522164,-39.09172236056308,307.77317764657346,713.6079983172697,872.0651250893726,542.7107258963429,-183.06710487309812,-665.9195693123023,-501.03970924429416,-173.55389957206137,-119.36972802932885,-105.26781909967669,-18.240365939944155,-27.071222241915436,-51.05113127673472,3.573102793597837,15.425430631906757,-27.302978249786996,-38.07472175908944,-25.563624038874593,-19.7905359739697,-25.51442477824676,-24.857245639610273,2.3447753984753845,10.662061775392065,-15.41684363343991,-2.77373311425983,48.85698177530614,63.703837861153296,37.7836828402521,22.89537399417838,49.4269152485616,91.98796377011917,88.07101956193867,45.91398418778281,27.357339556659774,16.805750250268638,-12.198024566924056,-19.501060015444647,-16.737125328489356,-46.326210868483294,-59.70486177346656,-29.336786053458685,-19.57979074592422,-37.85190554821058,-34.30876865260305,-18.71191029219367,-12.958542196356376,-6.665413459006958,-5.261874265005051,-5.319797285347086,11.497725272442443,12.036437823658984,-30.5324257559867,-49.531809489292314,-6.005568245180619,16.74173634621407,-18.582700036018785,-30.297365511578246,-5.583428381582927,-5.506852585632702,1.1623548862635302,39.74139607424211,26.319503070766483,-42.082143419442104,-55.638983311263424,-6.123058871406165,19.640817592077763,-1.256926980179518,-21.861649919217697,-1.8599522134752542,33.44501010867221,24.123142059041633,-8.692666027535255,-6.670999981305318,-3.1449724271013286,-33.745321986339405,-59.021561301699094,-78.19849360399459,-111.31513368571638,-129.09160081049185,-153.0743561490836,-189.3731584955337,-79.70526574866113,269.38515011733443,675.6744815572725,845.2302064657749,546.8695203407765,-137.74304079524975,-642.7374534872733,-557.8587039768844,-229.034413651654,-96.11608361856102,-62.73082637641903,7.936453589188417,12.594086558299821,-28.81711482866008,-21.190728443098905,-11.561126346775808,-22.286198708315013,-15.956190602021067,-21.54964197384737,-36.68535947112107,-12.008454836674947,5.959249715065759,-31.231278644117303,-43.91533274625651,6.743369848923363,28.703369423090628,8.89780779148159,36.33947484360803,82.66314469745656,73.56546108224666,67.16352155147109,87.28868076846625,52.74880770170984,-1.080324212067346,14.70864422788324,39.88600699946755,9.496423484985797,-31.773592164220055,-54.53273321158865,-52.449715550244775,-18.83960979140901,-5.75227065101344,-34.89288119629735,-38.54271038875847,-9.056974787373903,-10.228578370007959,-34.60875275596239,-37.54318920964462,-23.688232814529464,-7.123206881977342,0.7528431743126873,-11.548183552263556,-10.684917712903534,21.945404871140564,28.787143989664536,-7.714179355864214,-25.61583591294881,-12.296934600373966,-3.5540242796143,-0.9648132466104151,-4.096152579732809,-16.277244095013543,-11.655114730146853,6.699487237134161,-2.996245389718524,-32.816525378120424,-33.17287666428851,-7.9556329492874625,-5.249776527982206,-18.139370774505245,-2.54687189739494,14.763417094122868,-7.73004465202445,-22.533950637326562,-3.8465264144712776,-14.549465870099446,-66.10624914455644,-107.40466563441291,-126.40555633672946,-122.03086584057263,-114.139815912021,-160.010648324738,-184.27621770365067,6.433698430079602,426.1082832450612,844.1193511634991,920.4461815184363,411.1523021795943,-378.20203677282075,-708.8534461169762,-439.495157730097,-167.82253206240821,-137.67590020908398,-85.88073370894843,-2.26718834304657,-22.142986780481202,-35.221861548876916,12.387001742536611,10.848672008059967,-19.959670671509834,-4.458734849916036,4.521915091840562,-32.34298478432419,-55.66538909993193,-38.031618661157395,-15.341127899522855,-0.7051801106644762,14.004373680642415,21.56573736542017,30.12454007096762,55.89633768004772,76.64973542779089,69.16119705497782,53.30237833768717,53.84789778091257,65.3832654119484,60.93196992037269,29.208869270502902,1.641506938063218,-3.713440526636156,-21.043767935131747,-56.302553837282794,-66.62471947811954,-50.388441083069324,-40.61064695436634,-38.83441167518443,-37.84365043992699,-36.17388143924493,-18.68502540553979,5.818799742007231,6.211182933712331,-4.1300686941560905,5.614276472477028,17.19463309353838,4.656099416868553,-14.617795246256314,-14.85299375421582,-2.8306294447396247,-4.78164716441006,-21.375644884319374,-23.051352897343968,-6.597001655698975,0.7075355729662629,-0.235454299313286,6.9144538709843015,8.907608920979591,-8.479665737087526,-29.588880680029582,-31.3572034751138,-13.301414310719853,-1.323751002242087,-10.87127732308706,-23.62224079988591,-22.553881427445752,-10.549713188812316,3.0063093751525862,5.043444790578468,-0.5772875441033198,1.8081842247012467,-6.999436703122354,-47.274074080261805,-89.74533832501962,-110.3754694573873,-118.7840945531656,-129.19892224760005,-162.20243722185498,-185.73791488488587,-74.43002103568844,248.8867203709878,686.3318090787039,948.6084208778593,672.3292180269603,-91.68250202617486,-658.0176317056715,-565.2836471586659,-222.3247274783215,-107.41239450154785,-101.93852278937194,-38.43096583192542,-14.960734124279142,-37.685904637647965,-27.18631747409664,-13.288615151445313,-16.945067773635287,-12.735211246997078,-13.755600723426017,-25.71603372648793,-30.474963259411897,-22.888528428037944,-4.439350302278534,6.550427302661216,3.2552281443065847,14.750395898718562,33.31050258912809,36.671149731020066,56.8323227732522,82.59930391545534,62.279682426949904,41.658499528917666,58.82473469519712,49.38762181054894,21.163822341775553,29.247637415681442,14.44099041911948,-41.10651603765894,-49.26853222331898,-29.56367495499525,-43.232500309431174,-36.289872763521565,-1.2164366907988864,-4.524026190719535,-18.723262475519988,-9.497778649537658,-17.093116556190225,-30.03363288790045,-21.282871990062326,-27.40959735305392,-36.49735188346906,-7.512765130376639,9.268922666880176,-18.200847766206365,-27.047970033477583,-6.765521859859181,-8.229122454958638,-15.419771033324842,-0.5185820651825814,-0.4029136031835385,-24.316192366192787,-29.918270400473183,-13.120321086754132,-3.1579801654853945,-5.245271280854995,-4.175508691182529,7.564229265342622,12.6037968163887,-2.102020651926054,-9.73971403361335,1.6180770357596828,-3.140210539810518,-26.8786522594429,-27.696773368070293,-1.3484724410123636,17.662025663742547,14.735869778986235,1.63207340325381,-7.033096065127118,-13.477335988329273,-39.59379412357718,-90.08805552350971,-127.75069985751196,-122.94167982743016,-108.53739712713242,-132.204483427659,-154.12302668680996,-57.87252416582381,218.44573834244932,599.2066841114432,849.0537609087801,648.2520808443718,-12.300075313293192,-577.4416885494794,-565.949220112901,-241.82383408132043,-91.37544306377686,-101.74114641702054,-63.813981767833376,-11.10714148157922,-22.27515444174356,-43.14258126592577,-24.02486776561561,5.8923822154473875,6.469119219780779,-15.375109820413318,-30.70649214433318,-35.63925765725443,-29.74113833729521,-8.652925702949283,-1.855846374413023,-22.548046145771,-12.728682366016393,50.21781480849359,85.15324529232663,57.710960864567696,44.68686167386904,61.317564142748644,44.05211958962426,18.739819314905805,38.401142306854,54.58758676778822,33.27529017139335,5.361718756992629,-27.1570695944146,-50.64764412815867,-36.01658685210843,-31.286284267440816,-60.8659478818386,-51.26872786814984,-0.9925241410589152,4.264932032467474,-26.8718554819169,-22.357946851326012,2.571701068840536,-7.953120306064939,-29.655862089286686,-10.580400631690967,13.500371040169938,-6.828967387952918,-23.442918563360877,-4.314657706208326,-4.559767416178136,-23.746150689056144,-11.086695650130139,7.516014204510942,0.5242956119353543,-7.379189718047895,-12.979460721401777,-19.46454050402537,-12.789196861675892,-9.299478394107787,-11.183542220622535,3.1550972135874833,4.438119631102175,-19.26024663534686,-14.719185493080952,11.232432846067615,2.6223857492767095,-23.136980817381364,-26.533992618098306,-13.814537810844822,3.2324995770668536,11.736861837275098,7.276504125030826,13.564935661717765,25.008399950572084,9.851143495411579,-21.54108353840555,-49.24601602337724,-78.35732816997617,-104.10840439073753,-117.94435824191655,-127.52940663872361,-149.91519189443113,-171.3270010406476,-83.42534297265271,219.54373195363758,632.3163115841287,844.2049033031166,578.1178453452726,-74.8248531630172,-570.7967000339348,-521.6705884660934,-220.9507167906527,-88.41221068192901,-73.15861898774781,-28.991931046770333,-16.40635229326253,-38.60808489659179,-32.59091568700618,-25.484216590679587,-30.4548824138159,-24.4372634436713,-25.780858366430103,-32.12834511215473,-21.76634150801468,-14.311296350360223,-14.757821095023075,-6.108656924333266,-1.601539728523072,-0.6145093294503221,20.21528678820902,43.19461816346963,41.768081328557216,35.6436860959071,46.33922209303201,61.296262871827736,67.39788115595648,67.75103278707185,58.995517105524314,34.8586621530413,10.660803085024208,-3.5593097739164365,-25.34326101718089,-46.35518606803037,-36.96058793238265,-23.321907778323926,-40.35048819761872,-54.63303043669967,-41.97419721249261,-28.749799576367412,-18.483645175809393,-5.748610253521047,-8.826030419365605,-14.770207824881101,-1.700977375935114,4.692192294391301,-8.061247859700714,-13.467740298480297,-8.119783247462362,-5.427062738513396,-5.654768414343508,-10.44465594558612,-16.209616096330627,-15.4238480842935,-14.491233810733158,-13.256257297164044,-6.288659696094946,-6.052740943595772,-14.416710631280147,-14.458494384609471,-7.379052790585401,-3.207336612436899,0.6716023802624562,4.516442596344174,4.564720921910332,0.5404043851855818,-7.2222093561794125,-15.74451954822582,-23.425182268324924,-25.308361648048326,-6.892670459708864,19.628379887773843,15.459418432135887,-13.506422110575114,-28.69967505905974,-38.48625969739838,-69.8052682953036,-105.63662473275059,-117.10114228410333,-110.16021088613012,-122.49069515113706,-158.52778827609737,-114.69202360533461,130.58700233200588,538.0067115329068,870.9872832353758,788.1053478824781,165.20430664601523,-528.7608423425296,-666.9829851260222,-346.5883827801432,-126.84826492944143,-111.28464851004634,-75.717688819415,-27.317904529781956,-33.911293682947786,-27.62241139769612,-3.107359325773608,-8.82796363439305,-18.421486155226702,-6.501326528717895,2.213228316328209,-10.594255688605305,-30.79418339991559,-28.320528723282806,-5.368080839232715,4.210779145942459,2.72900066383619,16.750558181864946,38.34574970089972,50.34522842848658,55.65664045680842,56.1862810841672,54.696593950880896,61.76050435837132,72.81687048014406,65.84369448666334,33.68479850483139,0.25235324904947465,-9.959916669481341,-8.709551827307378,-21.647176112802242,-39.97943931744306,-39.36167916579913,-31.188067394763294,-39.36846018490615,-49.40185714957883,-39.188820547893926,-24.62090099714562,-23.631194097623737,-24.10621406179026,-17.651524481167353,-12.768110796591397,-11.03232449094224,-8.44353377994819,-6.009582053786666,-5.840007471231214,-9.41524388836358,-12.878268293288325,-9.216946522657103,-4.182210415261224,-5.173799133004755,-1.8540274966857044,9.652153067829513,13.93147022181829,7.3800104633104535,-0.729971011055838,-8.643332649202808,-11.935262553422763,-6.810336800002375,-1.917491757463118,0.12466982385963021,-1.674638021242874,-14.93027222054597,-23.869268662285045,-12.962980713270039,-8.738855501164181,-22.31346206339073,-21.316121740293838,-4.967654276875749,-9.740403624841015,-39.59063706082282,-70.45241415886376,-95.8944249040712,-115.25047622698247,-120.9972972379361,-136.19231948787356,-172.01654916401557,-120.22188153432752,150.30422331010354,575.6849747352779,880.7219571226166,738.3263417461512,100.10653548904905,-528.020367190811,-600.979533082166,-299.4642802236852,-124.88485515083258,-101.51881100119459,-49.17525158666328,-17.026972442990598,-29.838351310706614,-16.641628747719277,-5.9885198214399935,-17.120319209432697,-8.311848733535864,-3.2853450854004773,-20.005238376775843,-19.277037689576037,-10.94486679167001,-22.63863513369735,-28.09679759889282,-12.701395494255685,5.003977858581444,20.004555717175993,30.8611523529768,34.48295271090971,43.9125791585673,61.4880118872469,70.75978019019863,73.70514293552057,78.1582070503924,68.02106820231262,40.71721888550715,22.572988312468013,13.988746647427792,-9.867807544995356,-40.14190305407971,-49.18450938799222,-43.93745716979626,-45.20710159370907,-47.08486444863928,-37.0163414760779,-22.42365104144451,-14.372976380113535,-11.103952880517905,-9.29348150197021,-12.487610516516247,-18.92162863718084,-16.648627635281272,-4.845607846731923,-0.8993993933383848,-7.680881144056901,-5.377313492056562,6.6158855890604436,8.060865148434829,4.432806606350301,13.596413362642137,18.949835467979753,-0.342004113552683,-24.592190067625182,-28.714271432492083,-19.325249665401987,-13.882709992916345,-18.060486050179417,-22.62902109897971,-16.871420217702237,-9.161380559489416,-5.922214114740797,2.2390257141911327,-0.011533435344894372,-24.255513877758425,-25.218553559949356,7.009191441038926,12.378169508098093,-1.3479025598238543,12.013043013657258,2.6935261422571166,-58.8052169404766,-97.97809558271388,-99.35227125393682,-113.15392375282046,-131.46962540616653,-145.3634997475223,-143.09693289745593,-16.12232231294162,303.2601305584418,681.3598935217565,834.8416380855772,506.1766239532587,-173.45729544946695,-611.0820381528657,-491.46546721078334,-201.38426261826646,-101.08666739105942,-70.51108675462389,-12.546044605235622,-16.642944118988922,-37.080030190894334,-2.0226242512849133,8.15562363627437,-24.44909362305738,-17.865302987035697,5.363825072717454,-16.0128802793895,-36.43210316793753,-18.25339602097433,-9.524709104016592,-21.740924070568195,-11.71797282584917,13.52371974757449,20.92055041203517,23.979360927279338,40.29174321710386,56.407050513604815,67.3471434717982,81.37088631751672,89.74756997910232,76.30407736795328,47.72905114984709,27.587695364093587,20.14504001689401,5.889655850998468,-21.94052492103665,-44.674433946673204,-47.423294367293344,-40.783052354137794,-41.0567511185569,-40.46576119001191,-27.880515223059497,-19.54959620874558,-25.34528082300007,-26.068089072115274,-13.013810817395044,2.4972130330760116,8.745960874983957,-5.989474348268963,-30.568917388738406,-29.90071909383354,-5.7163957056663435,4.75477625525439,-2.64643761480961,-4.344545174696165,0.4198427981207047,-0.9120192436636714,-5.477608770402057,-7.547048180193826,-11.319450758970309,-15.89049634469253,-17.167943724493945,-19.30573974500184,-16.64812951118801,-3.3691295884908534,-1.968309492454317,-17.42573420804342,-18.792647849481014,-12.501111244432394,-20.446855632443473,-13.148749872651518,11.246775812923119,4.994978182659992,-14.469926101136448,-10.226263679135101,-24.304176849489902,-70.5434754188564,-94.07094223439593,-94.96873862453546,-112.20492573545613,-144.1639797839976,-161.1929694935639,-79.9689121193754,194.86093017039283,597.7851134088042,862.5697460095247,682.2774047646151,42.07262907220712,-551.7145620840911,-596.5657391722427,-295.3834518097128,-130.0511172449694,-106.49219181786006,-43.95358673971941,-3.988121047509196,-25.29580358957226,-20.159305180853288,4.11359680298396,-0.4331376364247319,-11.573189889536991,-13.657185202896688,-17.90941876822517,-26.80440091967311,-34.31257053708401,-26.340032139681796,-6.835312047866772,1.7440066974149726,5.630933467772299,19.359750687617414,31.94342196941851,46.26317466704091,73.9426509398532,92.16287380905379,86.7832824953816,84.15484419146614,92.20030576133732,87.81434912910798,64.19858097175623,28.53126928711967,-12.803408455824547,-44.28780875841832,-56.118401459287966,-57.55729598013072,-61.68221478848661,-72.24474504761079,-75.62045608019206,-57.73216375517592,-33.5343707639348,-21.941334566948612,-17.900469018456874,-17.718422027101326,-21.45677285073808,-18.642730062137282,-9.047204740849004,-1.97126253854956,1.9452161188041615,0.9226140756270667,-5.019560742996632,-6.903675621445682,-5.1587567319691345,-6.063930098383567,-4.835915643318813,1.3230283773263949,3.641426786475801,-3.4870505977591506,-12.641622976400756,-12.888346854773953,-5.6841229983113735,-2.777002327018586,-9.65050846452527,-19.917065316744633,-21.71061445224268,-9.529312087949513,6.740145987901833,10.94421188690405,-0.36293077189328216,-11.905711355259571,-12.565515916059315,-19.591794471805102,-47.590305940743804,-78.20225100922684,-100.04750326297435,-119.27276761329284,-131.7306093137899,-149.73419203039177,-160.40821071858738,-41.297603857340135,299.0701605470377,721.0755860884591,902.2783360843367,573.4520574693977,-132.46045717815653,-629.8747006145201,-566.5736179200824,-274.7383826820875,-134.75780367338626,-86.85841757824637,-32.95815402540207,-21.828999840393806,-19.471226328660897,14.369332754518794,27.869962179994673,16.08545223872314,11.41626262575997,5.336934300645328,-2.2153728978269136,-0.6057259700130455,-2.0048378235011537,-16.309220113640414,-37.05786203048723,-46.34034407828547,-29.710219911327897,2.4625499588979167,32.15896750130165,52.217049032186296,60.1222756155302,63.5394537132821,71.97374047301429,79.27734830835959,77.41813742993209,63.458920900469856,34.65950650413762,1.0721962708133166,-21.209106516129758,-31.308726943053735,-36.48716324495507,-40.46965270376968,-42.4688672790692,-39.36138861157505,-35.85978264721198,-35.06809000402562,-26.473425280136038,-15.092726483107665,-18.98902912510605,-24.028006803049703,-12.36768276314642,-4.028715072370073,-8.327957534874475,-7.517760823477662,-4.02895933686931,-6.914082120147768,-7.169948713161169,-4.8256330100760145,-6.053459459339216,-5.217893544079027,-2.351598000299692,-3.0472725536425287,-6.111137256464751,-12.874944507526179,-20.89089259761758,-16.985869703114936,-2.2399900898951763,4.783740421646392,-0.40821955672335974,-5.768228520286645,-8.017756784282824,-11.308253807749871,-11.771517323168105,-6.911785510770398,-1.4328352511958107,3.060327350809522,-4.845438145919937,-42.45959894146362,-88.50224744499015,-104.48524074512,-99.20161600013257,-105.79942665052955,-134.99034399217814,-160.54228824539817,-91.5748818341934,167.5117904925511,567.1271747096123,856.2413666435069,705.9386659404261,78.18708141700827,-518.0881628464324,-574.4970274985455,-283.8428402906276,-121.78264753057204,-111.08537623348755,-72.38025275036186,-38.88568737633783,-47.43737876033106,-34.983031641398455,-10.067055137360462,-8.997206656786492,-12.366468310421046,-7.763866843545113,-3.854897640403209,-10.727996386872295,-35.139473237963884,-51.27163659644814,-32.09443859220834,-4.344545132756492,3.1891749443328963,11.005137256476758,32.340433291185846,44.22867289179989,46.26631401833239,62.46616471220058,81.1849453952786,78.88910863962508,70.19415062435974,64.71652292898854,44.26949172011688,13.204727094410513,-10.710383872197003,-32.31590630444908,-47.06669315561773,-40.85580102667157,-34.91478105604618,-47.90393440293463,-51.06299055631814,-31.410713255834217,-21.56923163390538,-27.343277833750314,-21.88036365654804,-8.962368551648332,-4.771781465788084,-2.7959507002221216,-6.416240921997556,-20.59404271348385,-19.141919951085992,2.9299700773972894,9.479740198243524,-2.0496659963094537,-4.665573045741137,-5.558319400694742,-13.777464625387458,-12.09900124797505,-5.692215710727371,-9.430689525035486,-7.616422873964812,3.1356931732244924,-2.206374640889482,-22.408059896699484,-28.36767254242312,-12.521543426469087,0.07902220590260711,-7.9114173512427115,-13.172801718365179,4.202318818712391,16.58204472620365,6.1380333812911,-8.751605260675822,-31.56217103431038,-69.1768673854409,-96.37098609316412,-108.19943729774339,-118.00514108460881,-127.10062847201937,-148.78371407212023,-135.5940402466352,50.37551668514382,425.15782016417694,770.6415625412735,786.3099375451311,322.6367816714181,-338.0233019112394,-622.0857092530009,-411.3154034453602,-165.02730329591688,-115.04757037702741,-84.2517031300984,-28.559973393883567,-27.560492945449695,-27.399182203689282,-2.9603114599440126,-6.289612313191547,-16.605158239019794,-8.047941496294747,-6.635718588449958,-13.531461782356562,-20.162481976505966,-29.028047007410265,-26.88991781797501,-14.567131537936845,-6.74769523378162,5.310225649007732,27.440048290510134,44.71739070359308,49.62801942119519,48.671951730735294,54.65650283818248,71.64978730041355,80.154717148737,66.4142068697535,44.89444584959246,26.385631167302293,4.964844985421588,-19.01960309857912,-37.39444770033198,-45.43896156989702,-44.59668562288707,-42.68988121484409,-41.90428861603338,-33.30975162377333,-19.849786010923687,-18.466570298727753,-25.919131776293106,-22.006225921918585,-8.735472187612721,-4.037368159647606,-8.005971828731312,-7.766955480892342,-1.5614512793535482,-2.249852144649271,-14.203207804907844,-17.78036343804906,-7.536095727301447,-9.612250988070109,-19.714251502183824,-8.23892185322422,3.160861609277635,-11.072832296228,-15.242705139405032,2.888561823617591,3.8905403881837266,-12.218169055327039,-18.360100106294635,-17.33539202445275,-10.03477055517299,3.4709325432696776,2.0205205707171086,-8.611064602474643,-2.4991143554073894,6.702337740557397,-3.637758999194972,-25.68092247483877,-51.745481057865085,-83.6441722478059,-114.31323490013666,-132.0696738503733,-144.00732312062465,-169.0271499226144,-149.48299545877583,57.918040136216945,477.03265955481834,867.0433664927718,860.9004990846234,309.0983457891564,-409.410620597014,-675.7898972359471,-426.05424281521437,-164.26420184904592,-120.27744938475388,-99.96791153889289,-40.15628148589835,-28.59070695538371,-33.39120788517209,-13.888915116081495,-6.695159479487629,-11.65084488570707,-8.470871869954554,-10.883895972645448,-19.13309712490936,-16.897907348025242,-8.924123213193585,-4.377645968725884,1.5646197103243904,9.21883047566499,14.82229157339054,27.2253824839796,45.796937772793484,51.03487378476318,48.7809752133689,61.08701311957028,73.10344633626327,67.85466684283158,62.9289338800937,54.78016227064906,20.339247028857294,-17.836991728142838,-29.65842179557173,-35.13492695424387,-50.74907987587077,-56.977142999820146,-49.913276770948315,-46.76840014402205,-46.805899081027505,-40.45080252202289,-30.74030788398351,-23.719148304436082,-21.12659503602446,-18.65722911138839,-7.25664076230235,7.116697897084244,6.942092719430274,-0.9139541773721689,1.9002197769684486,4.418363102428959,-4.159537504051244,-3.4491140832402856,9.899202349926975,9.625813080186841,-3.5842910251655766,-8.319437220845678,-9.153260154918527,-16.48400201674682,-19.05023182419226,-10.752435846196363,-7.541424498210603,-20.99600858666069,-34.259495843401155,-24.612527878679074,-4.849014335412683,-2.0641752990822795,-4.77161562935138,5.673254683224566,1.2878870093042645,-37.93427260370213,-75.9534150028939,-93.53323839259278,-111.83619163704681,-126.222331944226,-137.7510332143023,-165.311325626686,-116.56533291367936,152.60337035176727,579.6915624304648,871.6515671893521,719.5181718517532,98.85911120462748,-517.4852780192102,-605.703551632497,-306.62057852721307,-115.33239344307837,-92.48823888356787,-46.13850846098153,-4.43934077823657,-15.486206619482218,-13.109094042262026,-6.77673942635977,-17.87492797229939,-8.102404677397534,-3.5607822750779388,-26.563352609541298,-17.025371543732383,15.444139364819915,0.6501783387663327,-30.80591189905756,-21.201450997784413,0.5483207823963285,9.138616243084781,27.291577562139093,53.29175969213108,66.44461429488837,65.39757550796551,55.75276701734505,52.594450717527465,67.51001042174678,73.08971903099504,44.75503234903119,6.385818252346971,-16.8520305698106,-27.219067334575293,-31.242097805135632,-38.61574031425943,-48.00924308712678,-38.44951375038825,-17.544256400434133,-15.914685093162285,-23.941559526178466,-17.901228045829093,-10.023270130200551,-9.16219103631642,0.04444890454592887,11.3072514062927,-1.6852381878626321,-25.439550073308112,-11.918105772107811,27.66846004200007,22.06455700126821,-21.514163083859955,-25.009099464502135,-1.9434572353147193,-10.632874281272336,-17.553752523263174,-0.16317719704360734,-8.487914223673172,-28.061778667643203,-10.389033322993281,5.105033519794556,-13.122629226889686,-20.431035944297992,-2.7586848415392993,10.15705665246892,13.003859241553982,10.066460160655751,2.6459270582385903,0.3632866456094064,-6.618847502120358,-36.845017330937736,-74.9982606956688,-97.34220425898654,-102.88246689038927,-102.7348039495234,-119.92799833407746,-138.80018620960425,-48.11649066832776,233.87178825380653,595.4780255726749,766.3102063836083,506.3112184055751,-92.314793434472,-529.0554283385326,-474.5130603767838,-213.94439389350595,-107.30691262408561,-92.22808894361589,-42.87338345208606,-14.3777242381843,-14.813676470539612,-1.5514456185963095,4.811798875253041,0.26853355677533486,0.7180304737683425,-7.1794275260238685,-19.770244230179987,-28.326368210880727,-38.445656926862036,-31.232777832201002,-5.227511350645294,3.8912750078277885,1.1002154655574854,13.4548993980748,30.514127805643696,45.35257744381084,59.63157986439183,57.758689265345,54.051029858778925,71.09625998219806,73.95204027664207,44.84376326703629,26.63186419810453,20.797633267163764,-6.723971051761385,-35.02096403103104,-41.21164448032452,-47.765546106772334,-50.626079314130095,-30.296171281177926,-13.344491350945592,-16.41312053205143,-14.72646966247638,-7.797976430351234,-9.918208515510702,-5.996250768714319,2.852040992525012,-6.426695402785562,-16.43944725756665,-6.017688772386105,-6.7611517363335665,-30.329973580761603,-33.791245848544804,-13.221379127809513,-11.529882173128197,-25.930284201642205,-21.66109983591336,-1.9485247659353035,11.883091601754723,12.326851957797725,-2.661948924342198,-19.156857165053673,-15.94538714000161,-3.2226376363816662,-2.6204967405949837,-4.796093422090024,3.679100170768999,6.782867554688875,-8.423335347164485,-24.7024255318915,-30.217275345943325,-42.48661883320888,-74.28509609424404,-108.7188315894076,-123.57474905557922,-131.77688407599868,-164.0425866071672,-164.07636467672705,14.40839533350723,400.3896272828355,781.2036608172732,831.5314341881162,381.7308312559809,-287.58270669556725,-602.1384927513004,-420.7833780424782,-177.1317291782393,-120.63087597016927,-94.5146940856141,-41.1147355691666,-37.4700980969681,-41.912512671057826,-20.44309106581791,-17.957187996586136,-22.13232421773766,-5.779285058010883,4.0256568295701385,-4.384883172669305,-16.73810505747746,-27.056431117712165,-23.600796355762288,0.036569015324899645,25.1313241301308,36.12009271350403,38.64723138480525,41.825470111912246,49.779484549075754,62.31664353526165,69.71295150766923,62.036407248449834,48.34317977774447,50.037822261070964,63.33877057893919,48.964364294502026,-1.0488354072990607,-31.481228050650063,-25.319911592158796,-37.03417861097748,-68.05186837905444,-66.72227229394606,-48.24013226026409,-48.323614837993375,-45.81185646177943,-33.783833080081365,-28.62890569697231,-12.711324419776556,12.068322064480142,9.571954275623789,-5.215938700315164,3.4768724295989912,11.650436712953406,-4.050755974084922,-13.003258542654681,-3.96403741924685,-6.9642501602456335,-20.552775766422215,-18.078642127074584,-10.995536068004014,-19.15891381203936,-22.334611114473443,-7.142892683462247,-1.375109280742624,-18.778665715619685,-29.58133413636573,-11.198214883087573,16.522314664247528,23.86537871062231,11.552215274804885,1.9508813352910792,1.89711149326107,-8.428209687858306,-43.11360711658318,-86.02976542386526,-116.80744776393311,-129.67769107678177,-127.06274316092457,-137.43342172523452,-163.20971108305378,-82.0851575885118,224.36530071157736,645.5936162446006,884.3254438317823,662.9506574953433,3.1459106854333356,-581.5489552169443,-595.4879298772893,-262.91604820174666,-99.02175090272286,-107.39323987542528,-64.19258877178555,-16.30710839522034,-28.36462769709778,-23.511392532770984,-1.393065290963559,-7.604384960756434,-16.8643356211995,-17.59142315440128,-26.12737771413787,-25.254833289780994,-9.384507549828628,-7.015909437511889,-14.32836005092877,1.1503393569308002,30.131274354164994,41.71663160147429,48.6714681941445,70.23351706525884,80.81004884049776,63.050855942189756,44.13595795535872,42.056952687777695,41.42470689979805,31.6199723570266,19.132053139156106,5.214263900279347,-14.832231425718858,-36.060381389009905,-50.75258237613892,-58.577315201384046,-57.28457705323167,-45.50887744396677,-34.136501466835284,-31.606588809488436,-30.467012383322057,-22.41601375136576,-11.931339213774617,-6.931587452785038,-3.8512298368120668,2.8046477707024717,4.042986746489779,-3.409343996113787,-6.056374270602333,-4.782171009868122,-9.175787996221242,-10.959482965168544,-9.57086557292307,-14.245754148314841,-13.45809269488182,-4.18265181969743,-4.187910013921105,-8.135697311237175,-5.463287284625967,-8.28505729273773,-12.324143544063226,-3.843311103775143,4.232006078280705,5.974726107776586,10.295020816559576,2.7508568899206853,-20.74745446194847,-24.701588586941917,-6.1449865839275715,-15.702692841720904,-61.990677587973934,-93.81229202165181,-93.02758909770894,-90.70328842447827,-112.42377885854478,-147.4247995474327,-111.16433761794904,104.61799458527742,466.6955054008358,758.0451255357254,696.3469318169244,179.76228592430064,-419.5506877234167,-559.632899459097,-302.1291952485071,-140.26231873261986,-137.28586829351264,-63.983961154401,14.40626297554644,-8.023218363980789,-26.230512080238285,-11.236843479108195,-12.3144053167225,-1.0284868145449586,8.196615574035151,-20.627750613932488,-34.78265091125518,-18.465069439493615,-18.901740302635694,-23.468239626353512,-7.592564363794106,9.75162351858512,26.695090915848343,45.91056303155961,56.91055872686238,71.71500894506889,82.06546249669448,55.763099366620885,24.16214426487062,31.42352186131359,41.18036703983651,21.2134145402312,0.8051070938494496,-10.189252821806589,-27.836561151198094,-43.77874506932296,-49.07330579088839,-49.30101964065646,-43.15394742108811,-31.835448375747113,-24.5913081557469,-20.852200022259684,-12.731265253908077,-1.9232010818550442,2.257525889153964,3.6219196440072103,15.402465785419224,24.05072232467304,3.903325148598018,-24.64572539754643,-24.123353440890874,-10.758931118492287,-14.632171814893562,-19.301893228237372,-11.853180335892297,-13.550540562758638,-19.983381391278144,-8.039265195834485,1.422392044486113,-10.595694612022314,-8.588491466183182,15.416486725236657,11.94991343711842,-17.757682626131412,-19.58239153618011,3.1761299039526065,11.41956861625907,9.710159700628935,8.177614078751207,-4.786164465718553,-16.66044981509727,-10.355760276070239,-8.79760593993853,-35.780007435567775,-78.70758782084226,-110.06621316663475,-113.41521914405622,-112.87052176034041,-150.33654882249314,-167.16973094149301,-16.854576228965783,324.0872275076076,685.6175357832756,809.3856612935507,477.2344195286473,-175.8578588277193,-583.4309099965801,-450.5025027299794,-166.08153021951546,-85.96792207682697,-78.87716835674225,-28.642553781353044,-20.419243047392328,-32.86432864780177,-5.282206081345608,6.775590600498425,-15.79672486827304,-22.43579487831825,-17.344589443505647,-25.691316386280825,-23.505890546004068,0.5416947844534832,0.39359459391964435,-38.56535491305664,-46.693722933557055,5.803919442806739,45.6103333111669,42.046054922871214,50.20522020802949,70.29082505186369,56.32440925057554,35.06571861039676,46.558181458567546,56.516195960911645,38.492702170931395,19.39072828332246,3.565139040737799,-23.718581021664548,-42.78669550924632,-42.415616310269584,-43.014917692916185,-42.2781845112862,-29.31840423251124,-22.643350691295385,-24.094596301547515,-13.253872544110084,-2.772737165414945,-10.636453052973778,-18.1820646042342,-11.853029722720507,-3.8315519120961063,-4.416306811393952,-12.585496044200909,-16.570441746578418,-10.995809837388457,-9.091858626428264,-9.87224652628186,-2.3853959312431385,-0.9071706469673764,-8.832091525137795,-5.436230137502619,2.6032504638416647,2.651845451606878,5.730834372828289,1.6898184971922205,-19.27786632639942,-22.014902823748415,2.369568868047864,8.472435455822596,-11.717433194574369,-21.535861211817874,-17.855841874148208,-17.636171613790538,-11.785620933819825,2.7099527798732126,10.724630574600624,13.270369726700972,4.35131026657144,-38.30814601495784,-94.02901215095008,-119.55468941654341,-117.34281065387738,-119.3770358738543,-154.3912584753615,-183.34484700736243,-49.45093750156899,324.55627567435965,742.4837535165368,883.4272824479385,540.4068695088678,-146.5526488699855,-623.7748646685577,-541.0940731256543,-254.70324000509382,-159.54418138982416,-122.65447084876071,-19.106175305815583,10.451837793343259,-25.711162464618575,-14.204109713976017,1.4117320676939151,-20.18055854444681,-29.991014541434588,-21.99769565311039,-17.37760519695912,-13.382600006212641,-16.90052331184427,-28.357084489533666,-24.90295594061334,-2.042388813727251,21.09539145701574,42.131490987194766,71.29632465710621,93.5162489449372,90.5208691382099,79.29157425048801,74.44176327265265,64.15650234340315,49.7720012242044,40.98083882506053,27.676588270875754,4.064522955860017,-20.40229479931578,-40.31919986618641,-53.932691650800486,-61.91405612063619,-64.31687693236265,-52.19372617679771,-29.935910631617958,-18.731638784061285,-14.901611112238143,-2.938277609138792,0.7003601847705916,-12.6674300944815,-12.644701633495997,5.775489026233734,10.132730840181189,0.6951461016747906,-1.0959523929693553,-4.225032955467041,-14.886514265967934,-18.561513354755352,-16.207009995993737,-7.838994752100531,12.801215069087888,16.325982532491057,-12.17260250314229,-22.233745721897797,5.078446707073445,19.352089359602402,3.8800377976242544,-12.820230840581495,-17.196706115467347,-6.68887967576261,0.354612900622584,-20.537888175757853,-29.6512399797127,8.020878866742557,28.097493223096713,-4.333046482424117,-18.041075463334963,3.0510750315183905,-10.368893309480086,-58.77302022725144,-90.68182966493069,-108.9476627422038,-124.53215395028738,-133.7283320476351,-158.52986923333782,-147.33557020513925,39.42822839257002,401.96764792113663,734.865052010179,773.4362985080704,350.8093780655287,-300.48172236776765,-597.8918981169542,-390.03902915958065,-150.45070132555782,-116.38490886709002,-82.75440954701205,-17.823027903955378,-29.777348298755086,-41.607815181403254,-8.308503847794217,-6.489964100585464,-24.110981333739208,-18.40555599095145,-16.1901691655314,-20.471370778025886,-10.385799129672002,-1.482818913922209,-5.528311911490984,-5.420265963652383,7.080698123083124,18.759892780210535,26.509821426404613,43.03468503858715,62.04438870023112,68.50318327376964,68.51552577981343,64.81806563170305,52.66911988453877,39.76089556578876,25.27115351631753,6.518966615421398,-4.317361142463582,-13.612145722824732,-29.317316559889587,-30.428720093948904,-21.97013665569566,-31.547767423954575,-41.431261916866234,-30.096772264658327,-20.14746728045988,-21.07010907643228,-16.292393905987844,-9.77254485409672,-11.070009621571721,-9.024244046146913,0.1029473785170616,0.22459861145019033,-10.295508707499113,-11.79483505039854,-3.3617241476826543,-2.729551684055444,-2.102747783930014,15.31292249691845,28.328776796423806,12.316626562002218,-8.871737245881329,-2.4354116029634705,14.532605973331833,5.858297149183954,-20.289116577864682,-29.462037812055442,-17.198950401703335,-3.070575748208034,-1.8299513262389873,-16.231266248929035,-28.459130268448572,-24.945457636535153,-24.114446344386323,-27.082306497857587,-5.357647315877436,