ECG,-5.483674967398866,-12.873398352113945,-9.978890901467352,1.8547350696040361,7.179882988692205,-2.474998562138108,-10.94968847535863,-3.6454162240854178,11.374184304989072,23.293139438614734,18.536995531290426,-14.85032962593526,-46.794963938913305,-38.61330411750876,-11.368971859680528,-3.0625236347653555,-14.615544402601973,-33.91094882373645,-43.49654916376423,-29.004275464462175,-7.724743281886019,1.552858756515242,4.183699956746748,4.350064430610072,10.006464118171603,27.76295025682692,31.859948928389393,7.294540976819729,-16.605022134841363,-27.92674328102737,-41.859697144715625,-50.23007529585984,-49.15354127492064,-58.02181712252805,-73.1977740212689,-92.71581712352615,-134.34669041024023,-166.8080358434119,-136.8713599367274,6.961787596641159,344.1162660330066,705.4162853570107,619.8287479089679,89.98039635752787,-233.78700872438986,-140.43346512689172,-75.65851953325719,-156.70906995609863,-145.82680353888307,-87.97764227659891,-94.26931646373986,-77.49179299595798,-36.376062869667514,-37.3295458183495,-31.930502139101353,-0.5679849041738567,7.306020050723126,1.3038390301850455,5.534094689590344,2.93944551332961,-5.698935573249599,-1.8125751522916813,7.717375726869204,7.263746954144334,-0.11521664715506086,-4.912389010736353,-5.542622459330071,-1.6544353908414537,5.733604969884356,10.604441337466515,12.336600721509901,15.176759063621732,21.054487458801432,33.0464368273318,47.554977996690766,53.88684045285317,51.89528038752296,44.806537289209004,33.89717910380459,27.70986480020338,14.541521857416516,-30.339766958590744,-78.31662588070773,-81.2083146387092,-58.209675100753195,-48.54566190346932,-42.81322521521825,-27.881697230509353,-16.558565520006127,-13.234945343547977,-7.884562472996819,3.2491201510780536,11.959284006041031,11.34648340625731,8.268240486163968,9.384819047989016,12.409255050178329,17.6200435881402,21.537373757769416,20.537108314338745,24.434160274123336,26.611641629690283,6.752086385801398,-15.35771531349794,-12.566539249856476,-6.038269935032015,-10.911498380728466,-6.729879142687565,5.312746438635131,6.463959660639462,2.1524416853301727,-2.860269755000573,-20.10340969675935,-41.931742480257384,-44.98469370342903,-31.81831735484907,-23.39743808153101,-21.742882856047082,-18.792058292467463,-16.79870292967083,-13.072706914400612,-2.934243599044432,2.0218545496182028,-1.8414997627715994,2.1247951769320537,18.730381216137413,34.44422236547634,32.336707012969,3.3722670943493505,-29.722631391969706,-37.32624611141405,-36.5465920738138,-49.38904506768871,-60.67904420945201,-71.68747500353535,-91.65868455014342,-98.75532069100251,-100.70817224509102,-123.48777860120998,-132.72528131836307,-52.473274242458004,215.34945586384663,619.8444720381859,741.0791570223289,310.6444167918174,-178.84624230695755,-217.93275926822912,-87.28051878423963,-127.96756903693208,-155.10166696170353,-75.48809138342797,-67.03109047987228,-111.64659449190512,-89.9853663770389,-48.33841709151535,-38.77135776196015,-32.1681670420244,-19.775527807066617,-9.152516766128521,2.6778628265459723,11.701672072457256,15.106110410702982,15.97159417415153,13.748497681368505,9.792128859225851,13.517643568815128,23.756462862346034,16.244077426910465,-13.70804788427438,-29.10849856810823,-14.583771601694098,2.977000343814813,13.027554639943217,23.350137329058473,29.09747508305672,30.13373121083802,31.201872147674763,25.820318266601088,15.244608546971502,5.833970804763791,-9.174518527960064,-27.471356628581322,-34.10642173987934,-30.057254021473675,-24.654666476684277,-20.518624715199394,-21.987051533638677,-26.82197161868675,-21.786233842632992,-6.277400944735047,4.848552191381369,4.237820881543362,-1.1923266733149753,-1.5925677217606116,4.319512655895852,10.252647535726252,12.736576396347326,11.240902627554224,5.294869121781847,-0.1873431637823968,0.7245786675782036,6.778505346740177,13.47764259044049,15.40550209924726,10.16075083015199,7.411084060665562,16.0411274504548,23.748909499290022,12.444258656456096,-10.147123858200427,-18.50043247196813,-10.828296054042319,-8.23166627094816,-9.171706605957139,-1.8891699221931706,-4.939953223723908,-23.13956320825376,-23.624125519519545,-5.5388723587298925,5.649673992965504,14.261862336086331,10.594375119556101,-27.976498867054737,-60.9043691118696,-46.25806454953637,-19.133626046969802,-11.327396821675737,-9.4077273013738,-7.9777002932468974,-6.220843567825224,5.895180306115255,28.381854406791437,49.70055444370887,42.18631302688144,-7.814053607560467,-51.41417257623232,-47.15252061231702,-34.18266119864371,-44.759655054390905,-54.70057902152586,-65.76053196912626,-94.30424663104235,-108.25564042456061,-99.49638170116665,-110.6696436273299,-136.96833449593998,-111.30548174921404,80.85971333401662,485.03805656620483,763.88871194656,479.2401006017784,-81.99224261127146,-254.0108868018696,-108.28508791026135,-105.25868089455662,-168.36204378818738,-103.26087624183664,-64.7619732153166,-94.67085783050429,-64.644133864095,-19.180065318948223,-17.462128883797167,-6.983384740585388,3.6722363293380837,-9.38167852999376,-6.980285985727567,11.400632450064498,16.603411117391467,13.426963426135426,6.752801978071602,0.11387691757743745,5.496366488090242,10.481788332020049,0.8339810744634617,-9.12934070855011,-10.81827773415514,-9.755103848746286,-2.094670822787596,12.8142418345736,24.111243480906996,26.608482028153677,24.00336453943755,24.254387457114305,31.717185548435875,36.531172313712155,28.479357230470825,11.347525055849351,-8.743940842095194,-25.824532944320012,-30.62435034807786,-23.778491783865768,-16.38011370003437,-15.62351523217017,-19.41190589421663,-18.41658081921901,-8.008122681103561,6.2324483619598805,19.161219582838903,20.514572894239418,-0.11050550858284236,-20.919479940965136,-13.456163433547177,6.613822307598879,15.387733503642188,17.6622587993281,12.567696730286631,-2.104196227087906,-0.7188212636247071,22.44447644459988,24.401346631899386,-12.117056406936234,-41.51177990586271,-32.493819829119346,-11.205033629567154,-1.6052438531616193,2.0079177441204052,-0.5538406937067979,-7.542177094363268,-1.4720729550464684,12.249563219312591,11.372490603358065,1.1142360564777007,-7.520609229500186,-19.807590202436685,-27.744962281240404,-20.840822209692845,-14.199343050076523,-17.40564320212341,-18.17788426987107,-14.28592282279228,-12.855216462129071,-9.197405142492695,-1.3194850664426205,1.70144636070469,-0.18671475572031326,-0.34076686544149304,-3.1814001462393353,-12.330211659428548,-17.354733427275036,-12.643937964680125,-8.627428026773002,-10.90453390104842,-8.271597078879891,8.399736337582791,30.111161761996907,37.77534721081885,18.618767597082257,-16.11474598645677,-34.373437475751,-31.400613548323253,-38.72058179381214,-58.34894124046157,-67.76189748079058,-76.80718541387748,-90.41148688235975,-94.7281669802772,-105.50696824658158,-125.7005212195018,-106.25967257832399,49.65695646843474,419.3140023765843,756.4355177986388,585.0660018627,22.277989698348797,-256.28264339051265,-149.82086884737717,-112.14232384374722,-173.26947734385044,-122.95393898568614,-68.25500683465185,-86.09721416458379,-63.90602710633406,-15.56731102082556,-9.323123925684158,-20.931271429116585,-34.651077503587416,-40.21159230588718,-22.001730985249786,-8.750813244566242,-10.948379811356386,-7.928843422322174,-5.974661881539163,-7.51583028623612,-2.122208510080748,1.1753788714385172,-1.0170115941354396,-0.8024241605487332,1.3469739998703851,7.228063196118793,14.912782440723728,15.642978675945184,15.040821439877542,22.051065260968432,32.09658798261614,39.41640041932047,42.47065815805195,39.86774244652803,29.131029864071394,12.339206738282867,2.122342754479899,-2.1168099712661337,-20.079099304751175,-43.62024124886017,-44.85601003255503,-33.45691755161517,-30.830193914864545,-27.03986241440041,-16.100325686828022,-11.07931510996609,-11.217361736799702,-5.944714641879287,3.034585043099033,8.336821720349464,8.975846704875066,8.213336897809814,5.967173126005981,1.7063741215065729,0.5326543622132291,4.437053995674725,8.344295398855332,8.545164575997365,4.457376217756417,1.9557603051030306,9.175960992105093,19.788513932666703,25.066651102110917,28.367496723042038,25.81999257256328,14.913122547407447,11.621464664102968,13.058637362612608,-3.0691696017911667,-25.413723435617193,-30.75325427271016,-30.763783497317746,-36.06337747500791,-32.61552724872405,-20.990088247275416,-17.534545443806053,-19.226214047205442,-12.187104578920056,2.3855101893487447,15.485443894549615,18.656478108743578,-0.743173351711583,-36.98465509212912,-53.2667171197333,-35.17733807698911,-16.787100420547294,-18.14431381781077,-20.112831325447548,-13.62804559827125,-7.614639462932242,0.2234279165655515,15.323361167789578,30.80566065373942,35.09155243901024,20.626272422587345,-5.713986738861182,-21.566876631396422,-22.137649872108476,-31.309390522457523,-51.14557615229153,-59.218306535543576,-66.87091616127961,-89.70982194636406,-105.4774210437989,-114.72080314141779,-137.45708560832813,-142.17855451750674,-35.60448431875473,289.98611810401445,693.7852601522835,688.9088485306546,165.18896141532895,-240.98737729246665,-180.98876538920842,-80.2817443830838,-152.21944727835583,-150.78027247057122,-82.46022686595748,-89.96856122900442,-80.33002947343265,-22.332613085254692,-12.560373464591269,-24.884083914506263,-12.46831825138709,-6.807576892818034,-3.2476357730924983,15.766948702528651,25.635804155034716,18.297636499369546,10.576235691660006,9.935135100374268,17.881536999488716,28.073226867115217,19.4274954276019,-15.411461001822543,-43.86796320110962,-36.293938844950304,-12.45916343978088,2.8766859667602516,14.33768315074248,18.497305021429494,12.154833491070919,17.085585319763684,36.37920305323803,46.093906622739894,38.07992603383836,17.524397019372582,-7.22259498288052,-20.624818038399333,-19.289576488491907,-13.906654145920147,-12.276572792467906,-16.89755907866195,-20.080218933673347,-13.18899025911883,-0.016253332732887316,14.507343083070534,14.63510548014666,-16.995135872018782,-45.897840984908626,-30.131579605647538,-0.5904241184376389,5.19889678938454,4.514947133472747,9.050598898674838,8.522930711374515,4.444983135324008,0.4793554731468723,-0.5699909009551538,4.1605483745938425,5.2517747013814855,0.6912130811747987,-0.05547211299523713,0.14895228842422537,0.7490762637307684,7.028984068620987,6.109971988469053,-6.876433934643934,-11.945570077994265,-7.97366547665268,-12.853016941573761,-22.995160962374804,-26.729531002727853,-26.941435791676277,-24.158213904341743,-15.236396596476615,-8.023867678921011,-9.861911377724109,-15.644782581537104,-17.087122028342055,-9.962145082530899,2.9498963491502703,10.341628418804314,6.5059105509918815,3.362184650012443,15.429264098935512,39.823481789637,53.291430905429195,29.122115740852617,-23.900406868536532,-59.027952351619675,-59.915319922846834,-57.57689182418154,-64.31171380267068,-72.91002663914266,-88.75888576341605,-102.28134523835631,-105.76263230095745,-117.70792506673521,-129.5099707098589,-89.34448796200572,102.2920214086144,486.03070197690136,743.1038960001497,463.78332484974874,-72.04308119088427,-235.71947805336708,-103.7095771872381,-111.11174548016423,-176.39302391740284,-107.3025922735949,-53.638127205542496,-72.13870364067287,-46.87483228589748,-9.581831462286566,-10.671846829442515,6.5095962215355865,29.975037355939754,8.052488420960142,-23.27088523576236,-29.090615977542058,-30.85331832144207,-32.188468862742624,-22.92328001105853,-16.229919829859984,-16.187659607975704,-12.051578193783405,-6.414611507439247,-2.0767540601330463,4.240575824414714,7.939258328204779,9.587492580814258,15.026286638856456,20.39700795129214,25.28821824170865,33.35030284348955,39.00937218232974,39.09764256970989,33.55465634692922,18.74192979930146,1.2273384178580398,-10.043036011771,-19.522269878596752,-28.107769971979714,-28.239565137398614,-21.00456168356679,-14.650190203841973,-13.202100326418632,-11.881719310082175,-4.3160817805553116,5.307155497905852,12.087417497854743,16.765200000316458,9.682507973826175,-13.037910172230665,-27.389583237926153,-19.048836504200494,-6.647972758870888,-3.390362730706846,-1.920223122097485,2.8291617425322757,9.415990474820495,15.923806344713544,16.641578279060194,6.423390233082233,-5.650420973406973,-3.2548963012416734,7.793800531570587,6.57405638548436,-3.8894839441049935,-9.774466779523518,-16.946280251073023,-25.26121454495616,-21.9119921905332,-14.56740225227199,-15.447350325357887,-16.556469665561494,-13.099617320930404,-9.115373021764942,-2.6826161727452185,4.538841981035111,7.078041147168564,9.038265021059269,13.575050639737487,11.183443327769016,-1.168780973615716,-5.885853954047903,0.9881404702665293,-9.598956082211874,-39.52945134240511,-45.37547553093508,-23.292338700451587,-12.722689444281379,-8.68353994028406,13.574456153432907,28.326099432411898,9.332651335546329,-18.066537802479573,-28.23091975436691,-34.600915881564234,-50.87052778121623,-63.79149031812003,-67.77695491885073,-75.3012484141597,-86.33028745385155,-100.69837494824944,-123.04651616914529,-133.71483058259113,-82.3713556819534,140.47518704664603,548.883555938848,760.1405932632467,405.0478192392615,-121.97932636648585,-217.59599163015525,-67.37540990008671,-96.53305381657526,-169.19801228343056,-107.58190801228913,-68.36710890801481,-95.32286697755754,-81.8357605226079,-50.90535420672037,-46.64378108196676,-38.048659647606925,-20.229869149971826,-6.792410054425101,4.538113589514902,7.347780408470031,0.5015528567783498,-4.683709110039969,-4.27433612459402,1.887782124032848,10.197829692757953,8.899982408177458,-1.720857291810543,-5.714218401630573,1.2529995266087948,10.929114448678451,20.56835069416488,25.066815475003526,20.207072069302686,20.381918319743647,33.14137931050681,41.970359745134786,41.09058139436525,38.39259247290296,27.743717372732846,3.283102822681425,-22.741846736874788,-35.44490028734611,-34.17648643665831,-33.38086020218392,-39.676080893850695,-38.76219382091557,-24.571732446063738,-8.852733224591923,1.6215759775216707,3.985092735714254,0.962713254591474,5.5868003606656185,16.71193688901134,26.329604082337614,35.56167104125761,24.565972856886585,-16.48144286006539,-38.03098688657029,-14.036519527038891,9.738249199426154,9.552439950217861,3.2391309009604896,-5.5624563732458165,-8.94981938937786,5.9243868627484755,19.394025115243778,13.242319464093814,0.02488904996895691,-10.064027716846356,-15.208274359302145,-9.254281747806441,1.002768411783311,-3.7084104921624252,-20.683224372968105,-22.974164907958553,-8.8237121005916,-10.327523799220426,-29.81904159054391,-35.47343743019685,-28.42738594926569,-29.940650654721207,-29.570188004280187,-16.041239549872998,-3.9858102265047997,-3.2365925524097037,-10.598012211470245,-17.417682627405398,-12.597046893568695,-0.6138395973260362,5.621746492167639,6.2509689941702895,2.547419026856783,-4.450274651600283,-3.918003493231274,6.290733160568768,20.64694357820019,38.54286228884301,42.176092752113334,12.655682586145065,-21.584906941414776,-25.02560279956079,-17.55477814823636,-30.5225963970535,-57.74596475519661,-86.66669392989616,-107.83273565084384,-109.12744979193573,-109.68110583561005,-130.50785382034584,-141.0670874276468,-70.14608477916723,195.2590442955908,616.9478601520183,757.870893990451,322.23210097391114,-187.52845037328828,-229.96372129350408,-90.66918799592904,-131.4065704175286,-161.7658473158336,-84.07072013263448,-72.23488999393717,-94.130048055119,-50.50810132918801,-14.917666225068913,-14.308531172763807,-0.32552160293684507,11.050044160645363,8.523723859650012,19.881099197740518,41.11536096262674,39.8461152954331,2.785341074781309,-35.40749984943436,-31.685844627393426,-8.18776094934961,-9.559570778175502,-20.80540394547308,-12.80025621135975,0.07424156301338236,5.8380647019953384,19.451279473613926,32.240775851037455,17.350053971849107,-5.601561787587437,1.8098036287893358,23.139495083797314,26.966585386285406,23.943668811191458,21.32493480521224,3.36094194205703,-20.965875482659737,-28.088152536269533,-23.593040518667085,-25.581714954843726,-30.8836291421932,-27.082194672958337,-19.022615718915223,-16.698459602480398,-11.986444616242228,0.3942531453196807,5.118623266993353,-2.033395894896092,-4.2146221488669,3.9165022080185117,12.43577509669574,17.415225720137837,19.340109461326907,13.716598749575422,2.421082428532247,1.8919828479700835,15.558463806204426,19.36884615063625,4.872963453572395,-4.8042405601242075,0.10800908001514675,7.305274015045505,8.503375475363242,1.2252063552174697,-9.314570232828556,-16.625809321313444,-26.992260859465034,-35.81782960430644,-28.331192257910438,-17.52149246810678,-18.215034656228823,-18.032039977928086,-14.520565826604177,-14.021508926477836,-7.800828531323987,0.6576619336924114,-0.050681821856368714,2.147002853362906,19.302938195012096,41.14124139673867,46.66509736347096,23.10486457598714,-6.351016370839643,-10.988425136709642,-11.41903438213876,-32.46357624128622,-57.02222535557592,-86.86953228685539,-127.3454852482045,-138.49498671875995,-123.83515021650265,-131.92816763952402,-142.60336199862613,-97.11260960563754,93.73040435317247,487.277903026067,767.1132583679265,485.6927679427315,-80.43460914388444,-261.8395434689266,-123.50007700885328,-121.58852376079513,-184.8493848676938,-120.17116801607106,-73.34222123010416,-93.06145094112425,-63.098722259880105,-21.22841093875818,-21.99082397548912,-13.571423347056404,2.058678242290444,-3.3553309054313836,-1.0940854232617916,12.116510771424421,10.810108129520486,5.91806080116344,8.360069215533969,3.1255962600704175,-7.40991527417985,-6.286562511772011,0.4663191192056132,-1.1743559229982927,-4.519306987304923,0.9231282247389956,10.466160550427487,17.71380590630948,23.705312352756373,28.42404950589796,30.569088113025174,33.22093136569382,37.258314302975194,35.555473807893385,22.433334287262035,1.33557223289327,-18.6522693764881,-29.07753565043704,-29.770554461706155,-26.953437557215036,-22.840063783712566,-20.429683037602924,-24.58534705943796,-26.199101636057613,-14.576949602166499,-0.13651889912560167,5.677356902976635,7.120332248368746,8.697145953282147,13.144321950906196,21.055375183641186,21.11539940602895,9.438762119735335,1.9683755741114397,5.256091473986326,10.658767590971564,19.224298899745204,33.52029035253638,38.41092939477842,17.319345246486705,-23.78402825116878,-56.160411904935565,-55.32846371242598,-34.46577589504144,-26.84678852308285,-31.972130672559295,-25.70052467418197,-10.344819620014118,1.0461021434812192,12.4361243145897,18.021489150139235,6.1859725823316785,-7.199536136114775,-4.325456432858837,8.022520280434927,18.554947182501888,17.191367646568736,1.3292012584473412,-10.976031559543536,-9.38555280602614,0.03878273710259794,19.346106405534425,32.076734050597366,4.398978209355484,-41.490988462217345,-53.24222066417325,-44.10144505451767,-52.69993754609057,-68.1267996360058,-78.91199696228048,-94.629747228053,-99.84930799803948,-93.68238612973926,-108.23572261879556,-134.63295604404686,-118.39608170578407,49.882902779021805,449.1424296709042,772.2222706711947,532.4894996353586,-47.695629601487994,-264.4658132668588,-121.00715028859483,-102.17442402228998,-171.85989433378376,-111.39496548277167,-64.50041202611672,-96.87826830190872,-73.4186802714223,-22.490061624823863,-14.691676133534258,-3.8839503685218766,8.284858320093097,-0.757375027224926,3.4905298546139285,11.341171192176251,-3.813266750521313,-12.811237908946772,-7.988061221279409,-11.968684805625108,-13.32448408434763,0.40428135661179465,13.098915739170046,14.900963517575997,13.822761497386159,17.907673935919263,18.210038659529786,5.485251470039243,0.6018146199966523,16.010090764606943,25.735677080480386,24.05986650299171,33.071834863609126,47.163944419897696,45.13515922743238,16.825152700612712,-33.10299689625592,-67.42206231091367,-58.99363331340497,-38.85476509101577,-33.90926619867803,-30.96972202627201,-26.147502968151386,-23.551990707400684,-15.099805125722142,-2.2791122122732084,6.7557837577263,7.752776387259938,-2.8008939955643477,-11.870709472654191,-4.246913066585323,6.603893994127208,7.170338678236605,4.908466037618213,1.1441126091683032,-5.300983736715281,-3.264069786448953,7.412954420289777,10.928683501454246,3.001914053800956,-5.622528606416075,-7.952580425963176,-5.043988692341497,0.4746243478205837,3.6403366299455486,-0.5416879461832309,-7.256803826926166,-7.558660320784252,-1.8275764007336317,4.882516629749638,9.399160662239339,9.26264680714449,7.643043154591583,11.188861205297336,17.720905671470966,17.672167308622477,9.381114957478252,4.618038362259657,7.890712674931918,3.192543948330286,-12.997264664553665,-20.163938813570415,-19.022430041147494,-26.45401434732726,-30.530511534695446,-18.490274558531425,-5.32538437392051,2.159704249717011,9.963521753245043,19.871218581829815,36.72499313719104,43.530087601509145,6.952286957808983,-46.25842956103244,-58.52799342717579,-49.32172501015917,-63.34635298019302,-76.56789679421706,-72.23454214605722,-82.56437497258926,-101.29657227327559,-106.8060898428209,-120.8583650155683,-139.356450833065,-103.42071591268149,91.26804704786034,490.87617549372834,772.1510515190053,494.71030629301885,-65.1148373377118,-236.41191899142734,-93.02524875399223,-104.26276905692629,-180.0969184203872,-111.42343730856473,-55.917857872886614,-68.47821490008701,-48.566148004697524,-45.84838664751292,-72.27244609685775,-49.15588950419493,-16.229154625965432,-18.571253108082598,-13.047406140823306,-0.22547340186895326,-2.6104801148846963,-1.8833735092012311,4.1396086010355475,4.1417338650951505,1.7151128361177461,-1.9802237750851557,-2.669458735872227,3.066808602773663,6.147918175718452,7.103761919058031,13.201283372307678,19.375741969230845,22.827053287270246,28.68939618700039,36.515871876503084,41.36129547607661,41.96980871814251,40.37584982090401,30.384518623656668,3.00951003270039,-25.774994372087725,-33.361377061014316,-31.909762519611036,-37.57177661542251,-35.80057690558753,-20.909227365882018,-11.677392844375692,-10.984810569028053,-5.414956071344663,3.9079507585762197,10.853739280066451,18.547799955453627,16.595918086650414,-9.446758200976687,-32.03488779441858,-18.617996491374008,1.8963174040190212,-1.8664293168963244,-5.4846092344514386,1.5969906446185478,-2.724795111776203,-9.094512588350518,-0.7632938218060885,6.12784758332316,3.3960522693542887,-0.254367025649628,-4.061396431234256,-2.209621951662192,10.73259811158677,19.964056242271653,12.816295165891646,-1.0523806028395186,-3.5427187368127955,8.939924254394207,21.191331234772576,25.29172499655471,22.783266275546595,1.3335111678858294,-32.63079726873969,-37.462015632147065,-11.2855564990973,-0.910388143844564,-13.629380909980629,-18.989112169515753,-15.4239644303419,-16.72081240736044,-18.591788482874467,-17.85374465309257,-20.661660301364563,-23.1610700040507,-16.22949312251182,-4.584622165448369,3.8766948578560623,15.016972901113586,29.798578493990355,29.726863840007034,6.005866671171493,-19.084838908899606,-24.591865813028523,-26.406748612452006,-43.9739634697498,-59.96704395617307,-68.78642977370207,-94.19244872257912,-118.64634123145024,-118.92166752009348,-131.06058638810634,-157.50479957202526,-116.5865823127697,105.12979033124441,526.6100732610861,806.9105239844363,511.5401815663089,-73.23327179587385,-258.99599860140955,-108.11280210070174,-104.06597136777411,-171.46525030046627,-105.00381970771332,-73.3373074418446,-118.21852904643822,-87.46506018902924,-30.335225111949637,-32.30564399809762,-34.72135492765897,-17.63673479880625,-7.530362154082097,6.108907221280447,17.286563787902576,13.126169906227567,7.299529716000379,2.734973596132105,-0.6013205628787972,9.396867488808171,17.609556902744366,-1.2735161862905695,-24.851457511215532,-20.532422248787604,-3.7109066055194515,7.070186888392136,19.95814950658412,29.091735083586176,30.342383713503942,40.75785303468521,55.30543114172503,63.168727894961144,69.02416589717583,46.060806457349884,-17.463601919582807,-59.571894397281284,-50.20824352035429,-35.991144576814094,-36.87641292783445,-38.14645662399599,-41.16338607823053,-39.13186806717369,-21.720718642559085,-4.2865727259296165,1.1760759855103444,0.8417846829113556,-0.639479148166946,0.6449358673904908,8.492458654306411,18.378610866713878,22.709110029932962,18.879414598999134,9.304469540470485,-2.423298307657433,-9.23535149972119,-3.583072049435811,2.413495106121661,-9.408308191537635,-22.890857768403507,-15.08518101918669,-1.5259610484572428,0.8211048147193201,1.6194595253249644,1.7236188260067054,-4.1777986603463715,-2.431246954452533,10.986378816615918,18.787928319118656,18.357957947554493,17.002519065534663,5.880006469175889,-13.718415057803758,-15.296005911908551,9.523300704477208,34.88702303299786,37.821172688956,19.31803960749596,-2.6932854814919747,-10.415441163052712,-11.974867053659562,-31.283397078152934,-61.65384200285263,-78.56605449194814,-87.87276727166233,-101.08639324809995,-113.49686307406975,-135.0900905727699,-163.84800007998274,-161.2453582398435,-58.82150037896585,253.28546736435896,677.9888285476079,729.5729378922302,224.0105702820311,-228.69308884155052,-201.78029519126505,-86.52335298024319,-155.0465183280973,-169.21074949372007,-93.20105637509229,-87.47120495233466,-85.27806324189181,-31.985951548504154,-14.347341188848809,-19.20342612725143,-0.9333404349239149,7.471016167342835,12.151369400137723,32.2250118945714,24.474083658894386,-17.879080060489038,-39.820151053075584,-27.03737958469467,-12.566495821901622,-8.368153094752298,-3.978910363611039,-3.0201645888852084,-13.192711114651477,-19.60726082359855,-6.964622327800107,11.458295477446965,19.123347406930687,20.74699926489317,23.34174026332638,28.433910762245834,37.280373320714524,39.65581740939194,27.287708093303454,12.030328603016237,-0.23025688961584256,-13.367944244556568,-18.741107305590912,-15.520904652997247,-13.454554647787322,-10.06290850315657,-14.648932653265721,-37.44445147278073,-47.004420094757684,-27.106669894868226,-13.307874192173974,-14.81929789628835,-7.925387386607171,2.9853551160711245,7.959115774312721,13.410358778602664,15.304934786420407,11.852447695326866,13.323638578230621,15.759206158406414,7.0408381584002,-8.858966080223905,-16.11232149116468,-9.925339642431588,-6.320849229459299,-12.507778594334667,-12.274818863432627,-4.9851792385099625,-6.236729499926413,-9.706329117386279,-6.069558951180677,-3.589489073907691,-3.3683819806807107,-2.1416468742964723,-3.357480781326873,-3.6862712966007645,-1.323655922755206,-1.3622485394938333,-1.458285441371998,0.13337747426840751,2.498381357845995,11.181338489750821,22.454309632904383,24.050557186849698,17.351758308260667,16.960853578880535,36.14659377644094,58.396061562092115,42.364563512705566,-1.8285948828941372,-20.7985769136801,-24.366973184062196,-52.1567160244991,-79.1272251148691,-80.56922058242182,-81.99192893006051,-98.55070385920664,-133.20890744420177,-173.6131276117592,-177.8389088981718,-131.45670134449642,36.565655116133655,432.4274433385124,765.170727226728,529.1429248651677,-48.471922629125984,-255.48693635645884,-108.37419725023157,-93.91171016978005,-169.8564774361983,-110.32697821730834,-49.18285425717875,-75.56167089187572,-81.84639674032067,-63.7715681204447,-56.74975945282033,-31.82549374765771,-6.186485885218325,-4.2865852623309735,-2.335842654462027,0.5849671535901635,-1.7737665262187488,8.305891399022034,19.26327016558984,5.6854753235443845,-16.492325257472267,-22.30690387916346,-15.96369971407936,-7.332121391410055,2.1970432397237056,7.995794033621983,7.700584074499476,8.327192433082544,14.646120653834428,25.03940173811057,36.328663531566455,42.033044545781934,37.81513836286552,27.81239594486871,16.216398057960046,4.948108613421276,-3.8719890030382316,-14.706818682585265,-29.77577475687733,-37.21774959758485,-30.657203460168507,-19.81574709899835,-11.409837912079823,-6.764012646996322,-8.990292076157875,-12.939432517247376,-8.176290257801924,3.8332210509427926,12.968655493367091,15.055186439663661,13.12601557449104,8.291380256921428,-0.0485207128806614,-3.134037180187989,5.34017959604796,9.567529344047578,0.602585236851551,-1.8803176235794206,7.978931726320999,15.353448598223999,22.971923155754002,25.405497553911154,-1.885759453700361,-38.25050075600685,-39.03226260990283,-17.477696418441482,-9.163120671212287,-10.802544444805749,-10.291028339114686,-8.551449423383641,-2.828502718753516,10.371227116436078,22.09706716346869,12.742048686822445,-15.681226598938423,-25.8863559285695,-5.260648973835415,13.800348342784838,17.871351960583524,14.921073907132941,2.414157721531887,-4.340922446858572,10.399324968373051,18.82462423773206,3.1568395486668948,-13.139663598016426,-22.15851347950404,-28.662414677668615,-14.60446553533745,18.845190991794013,28.700627849859643,-4.713341892418043,-42.248931807440826,-48.540844431890186,-43.07838356231459,-48.739981377040564,-55.579675318894104,-69.00537136355132,-95.65890172665668,-105.86912829517831,-102.74164714349902,-119.19855738234011,-134.30114548559732,-88.25683951686581,130.68716543211434,550.221191627797,778.1714723366446,415.89311315156993,-131.8427468993713,-240.0149720750004,-100.24639238294384,-127.976817417907,-175.33369085236072,-93.87943994667094,-55.448030775075765,-81.43529441867403,-65.85946087427197,-41.11444743926711,-31.883431269071398,-9.236788450333295,0.26568514138591404,-9.876609756310616,-4.725847228543504,6.7218217518349865,7.512848847549129,11.20049681558698,14.039125484007887,4.678002361029588,-0.3648006381832549,9.491892966736023,22.053758437500097,28.250170768604285,17.143198441803378,-12.043934852835442,-23.27013235136938,-0.6323471305992232,20.196266163476853,25.921832108526655,30.256880087400113,23.490978540960956,9.650375297354802,12.251032236910486,17.98026520467818,7.768455857608959,-4.5764689106641,-13.102191565156824,-24.78045828864474,-34.12581434522361,-36.97382419376147,-34.76673905122033,-28.86317110080175,-26.48322611808211,-26.207858835883457,-16.726880630172754,-2.096981409565462,6.902603434952897,9.395455652367419,4.286918094636606,-2.2661938761066978,3.7028280665201097,13.38703124243058,9.45970074871493,2.2729462630359,2.621927432051303,1.0957812759368983,0.10053558209683533,7.103551882893284,8.0053870147541,-3.025681898519207,-9.166027061954296,-5.959362570505973,-2.1277285919687565,1.4545229859302953,2.9877899286897645,-0.5782132405642886,-4.0198400162200345,-4.90774755280356,-3.266045287070541,4.45355904866847,9.11638709547514,-1.4959223524011431,-13.631399875250182,-9.347460155468703,3.4812289470605777,11.921481071514407,16.520418669377626,22.554111228494556,34.43773586110202,46.01609629123648,37.7162696232633,7.427946748435781,-16.94162431840307,-23.85632843052734,-36.462086101611405,-59.024660301287454,-73.71551224157407,-91.11912738761026,-114.65436368820906,-118.43011733566517,-118.19268171537183,-135.68228640581586,-130.5134446996919,-36.554831887305994,249.82714832346204,677.5068496777396,780.4213617946407,296.03676972534583,-201.47088225261746,-218.62142439571062,-117.93493249321997,-197.3761437820272,-214.2953404008027,-127.77008014420377,-117.46291421529278,-119.3395195099073,-67.96385712633449,-44.80905412063503,-38.83405982434707,-13.357764006144201,-3.7663207220670465,-5.801646230886018,-0.3447821107875697,-1.5613471342639897,-3.0857352731262573,3.1506956328065243,4.331732238196681,0.5047699175190363,-1.5859264647422116,-1.5774172401435491,1.9427196872409271,6.2384869910156695,6.694825139636736,5.456242479772423,9.175760702755397,19.828441714413145,28.22997589404268,29.634645686964046,32.76404671036266,37.785379123084894,36.23083182434484,29.867140259373613,20.592080973973257,3.9653886895890045,-17.5256728131922,-34.639574033534394,-40.01539697382835,-35.196085911945644,-29.42232899846955,-25.75315041376595,-22.34632896394242,-20.115447118137823,-14.746164669497734,-4.105345346401819,2.5437677903355542,2.473833774682204,1.6594680793311198,2.305450572277072,7.311032877069405,14.634798110806962,14.168668631330485,7.3891510624908605,3.660303761221785,3.2147134523162393,5.145612632684422,10.277570288623362,13.57281284456266,10.599961811615348,6.245015336271223,10.103071624394904,16.525357426524092,4.943296246325548,-19.675091128949195,-28.384054728317057,-19.97973387995458,-12.842034269215667,-8.966059783920679,-8.80761732721463,-13.254165634122378,-11.249407446046437,-2.8799478937099403,5.552047420799883,26.185377583768148,57.58251199749762,63.336932795559434,20.66287572810345,-40.17670323402021,-69.81283201675183,-63.95382062632819,-57.91342878539662,-66.62880452324968,-82.73434388497918,-98.04007045800655,-100.46706623314658,-98.6611938623856,-110.82683154922863,-118.495861240975,-57.730389618087614,194.8326109492676,617.7985598635461,773.5153436293056,348.3856893664384,-164.9720039141826,-219.25411965118658,-92.74623480076126,-146.4780724380845,-186.44964254261726,-105.74313112482278,-84.8362903601892,-110.8959743543797,-80.90173875120742,-48.481517657123604,-39.23587093715125,-17.568525748097223,-6.66014975151975,-15.123313233360932,-11.993258167720306,-2.2224788672286273,0.642165672919127,3.773616816969092,1.2727267351477671,-11.251258238130998,-15.188013569380248,-5.273464213492302,2.079402652173046,3.4062036507683047,4.274124233622368,3.5091147312755924,6.719348610787092,19.143825283216216,32.050477163722704,40.315556031214356,44.53764028076736,43.0508450664543,42.760043523205695,44.57849778535296,28.491940660615796,-9.691303647262975,-40.72288340260558,-45.4341258502137,-41.08865000725869,-46.36654030904644,-48.94108083632236,-37.1368207543718,-28.17720533752849,-28.77365724112501,-21.739821572432145,-6.257957826994536,7.140295926752231,16.17526468821594,14.548755530149883,6.250792731495455,8.865389524589379,21.208297890048716,31.688881598105308,29.255014329115205,-1.310585089923407,-38.33224337170018,-37.69077098964624,-14.194133229729959,-8.118905290998457,-12.244203506607,-12.538658139813887,-14.71755156431309,-11.694229539173222,1.0425901370875632,10.169360213597413,9.404280487462055,2.5236385831052637,-3.789800217557029,-0.8564118309043862,9.79486944679767,14.487660461362754,1.40687719806661,-21.967792956324047,-29.88747677751738,-17.537543031927754,-8.383751851181248,-6.718177073598174,-1.5750165680555526,-1.0849860758287306,-6.411075673290524,1.139346039252398,24.170752995301218,44.12107019730739,39.46549069095703,5.853984398842062,-23.905324911998058,-23.65225515509841,-19.491636144569874,-30.398473002693134,-39.77288397485044,-55.43090819070119,-84.55319188982034,-94.8779128431443,-88.26598402475236,-99.974559972208,-113.8133694103541,-40.76997058540867,246.95176830397168,658.3102653333542,715.9596933900818,222.1529896258048,-237.79910829015196,-227.94085537207806,-119.78664524286623,-187.62261638495755,-192.93094260982352,-101.23233449924246,-93.54043963676142,-105.34445029447636,-58.17423817177797,-33.068362247722064,-28.90638705173808,-4.22474536836129,3.1491511937730365,-8.446204333840704,-3.854759884726775,7.674839686728234,12.652054680942921,13.566111899046302,9.122902269530107,3.791496723002531,3.2929055738968604,10.78008867627149,22.136294905478785,13.076410365017662,-20.04768394975116,-36.69145010643052,-19.9919863551581,0.1535956171052586,9.208723323504191,19.007224442193618,29.978042878429576,34.59150123772971,36.302311716131044,35.61087643990719,18.431196065497932,-15.535630845828814,-38.91716536992935,-39.612173808859346,-35.64500541245537,-33.28127309437774,-25.783089656587244,-19.797663250677367,-19.577283747487847,-18.147967863165338,-12.22838050659306,-1.371118058704476,8.389255536785443,7.262032671186262,2.206428368687456,2.869494816284122,3.96786316902124,5.617675439427879,9.536590020779686,5.79322020519254,-1.8159421991227918,0.6833773156022438,6.808922273296578,6.786394371688083,5.4302269746001,4.294527466848365,2.8956678110217364,5.996832065960971,11.621491142799771,17.091841283403017,24.319784618589352,19.642735548817154,-10.810395233135097,-40.58904589720238,-36.35358312877068,-18.256168675613047,-19.306314058046457,-23.50806557851825,-12.498524809430982,-6.757772697178165,-12.037413157332656,-9.311275179142225,-2.534166586749394,-0.9942913062462058,3.5862031742322857,7.722537312381101,4.027716209108173,4.049112677363782,17.64944477270756,39.875915617176986,48.91659584659428,22.72180643543691,-11.364436250947392,-11.363851653647615,-2.0208983451699165,-16.690346345127708,-34.66028186409124,-48.796964446681656,-66.90387260268312,-77.17162877068554,-103.95116435839748,-156.41289213723843,-164.80930421603003,-83.05490816680472,144.7786422334382,538.5687365844428,737.1931177180511,362.8306826188923,-172.32456480405685,-258.71524386293015,-116.29032484872738,-152.17559326749733,-193.71785191915467,-106.30284171511276,-73.35197634161679,-91.43683079798683,-55.75567352791186,-30.332064326332983,-34.67274970707701,-14.32317623749181,1.3911448253775074,-7.01812498651249,-6.656446817265584,-0.44482067911177836,0.6516117213742092,3.356859203102843,3.0252217556530976,2.1890837723551364,5.3406707257614086,-0.3626877152591339,-7.8572614276770505,6.040804613526619,28.117244728551555,31.509830311578348,28.4172723226896,38.08417642372153,39.85540929417347,14.673745688925099,-8.98791843482978,-4.56529920788108,6.333484279884944,1.1219408127942634,-7.092799666521106,-7.02019906042112,-10.361116614406079,-24.06417325235563,-36.98770735731423,-38.70110498989425,-31.413069320767796,-19.667358149944008,-8.373778752491338,-8.25427457957974,-16.52823551762913,-14.694452307241306,-4.002594982703888,1.8870380274489233,7.764676954577705,13.694293400657573,7.739278284781247,-0.22401665357697764,4.8071959649976375,15.010391718189322,21.566702366574976,21.89189923946607,14.370981400210596,11.326723809861582,21.108743727606402,30.504876513746478,28.974099401464706,9.98786184478578,-30.243425569963083,-61.518084415109946,-52.19128215859343,-27.060750712414336,-19.481069589061345,-19.707407390100332,-15.566720230375806,-11.518159010288768,-5.311374654193432,5.50720693931341,19.21993536279833,34.723034579607,36.94064267486856,11.077332785663266,-20.903122534843632,-26.32621336921097,-19.593117784983207,-35.72505803739031,-63.439866191066045,-77.07393956722055,-85.98605932290363,-91.57990931386125,-90.32473946894272,-111.33297530335906,-146.34177829811972,-111.66946147994915,104.71412868319169,520.1191160440613,808.476234123667,543.9912403814959,-26.08454499088589,-235.76011495659864,-101.30225426141808,-94.63352346054964,-188.63586312300868,-156.5024118467016,-102.3728276568899,-101.8603525529703,-69.96494803074862,-31.805181233978374,-32.01955142460791,-33.06439420415708,-29.324572485422358,-26.79032022247398,-12.923862598893336,-3.7438215295269686,-7.813848113111341,-11.766898597108316,-14.425310069919515,-12.593887154487774,-4.1229127711568605,0.3073900458019203,-0.256184712201458,-1.954754160523283,-4.264412640789877,0.6928826637501091,12.814703364919929,22.88538481422936,29.93680466833218,30.94849704070222,26.58216068643804,31.031832926333987,38.174650638551896,24.46635933126753,-3.1603632351681226,-21.642271736661698,-31.679712773922212,-38.83746927972058,-35.42135990720069,-25.175646146740572,-24.857120378759657,-31.68774733267824,-27.596863986182747,-13.462785542446635,-1.9743200490729311,5.759251499642388,9.850764081902975,9.188144454657685,11.558569077209597,20.634875771467378,31.26657923336279,32.701374676964214,7.931192663888276,-30.68635512447561,-40.08590690484776,-21.3863889608908,-12.881717132713561,-12.777024621817116,-6.564559511864829,-7.796482576660814,-12.0079382551126,-1.7462756798661623,10.44949775094048,13.557415561363863,13.242593461159544,3.345943419225881,-9.840660162398875,-1.092826660090274,14.911796704475524,-0.10464140413338896,-31.063098606968683,-36.45487598490389,-20.04848013214815,-6.891252865443006,0.19634273211052822,5.92831578670781,14.06455856951101,27.092022563304184,28.964804112122074,6.690449632742941,-17.940233745698794,-26.07323986785152,-33.903495638255514,-50.216981028790066,-61.80236132477122,-70.91107521190074,-81.42660848850466,-85.31976454614767,-98.06984280809664,-125.97576058938077,-135.0360198561826,-75.18598589311758,170.4943492035939,603.4890045644709,781.7300286065831,357.4503918548959,-170.95896764467454,-224.83631864809257,-88.10464231910291,-136.85656492129175,-170.09903174351723,-83.71840072792632,-62.194095982112685,-81.3361488098758,-45.54743019570204,-20.795768252054685,-20.406133386814975,-4.504469703946926,1.3023558129333033,-4.042345650049715,-4.478436089220317,-16.00320176492839,-23.895637840785675,-13.634778986149517,-10.945279146049472,-15.667813079480833,-11.546690279311418,-9.01791770557957,-10.112826938730876,-7.249898477652837,-4.257231305555994,0.9551918899246958,7.34433307807039,7.96797769893706,12.344043584813518,22.929436742665867,28.99001323902256,36.94371514264754,43.7543534669615,29.373623165840826,6.039376164647037,-3.7448206518079767,-6.814103709030844,-8.988822715206329,-12.075038201887594,-25.46068387457639,-35.72479796816729,-23.419174053911227,-4.811781443200491,-6.1285053830892195,-27.020524266494583,-43.57115049336536,-35.98031258107967,-16.911077254137886,-9.335425620854245,-10.950061189868531,-11.661590387246697,-8.652834723217996,-0.14821250359130111,5.899798553414703,2.6157487544196165,-1.145649926414242,-0.7622317617910337,0.3274003106760306,3.207268996537082,6.15119695993518,5.580062510538445,2.806320057191461,1.3411426926106955,6.1718943030778615,9.66275340641596,-4.490096634640148,-23.030051790556662,-21.176535159117257,-10.534421293560028,-8.114479751886783,-5.040902076193104,-0.03623554670502305,-1.8999416356579193,-5.666728051666674,-6.28004447165215,-4.638989222663204,1.1850942816219459,5.829712288677543,2.065626655785871,-3.767513934937814,-4.589679440204507,-1.678422093342035,2.5397625857822983,2.819651116843053,-3.5622232142207144,-8.119965871988587,-5.285992012150201,-0.932291692891291,1.0466204282754175,1.3468181746302006,-0.8458233531221906,-2.5921025991384328,2.108015666156744,12.103552343410604,23.574163042227006,39.06996743889961,55.25977756320101,53.863416780451125,29.750257517648063,11.729977381566245,17.22578971428001,14.326516627269843,-21.917227156454473,-69.52768284790739,-109.42483814236134,-134.606327632519,-135.532335966637,-139.32841981168167,-168.4655058758207,-180.28558600303967,-102.33986150433067,175.0618230763368,612.6077658996029,750.1936033056135,290.96214407390147,-215.21585662791415,-227.01346620243294,-81.34314379963544,-135.17543153835257,-169.12595028414816,-95.82516848464951,-84.084981094956,-88.60668169536265,-37.17868406308145,-13.216840663847144,-19.157447411196284,-6.503858508559661,2.4190205247726198,2.941087827742461,4.793854562128331,-4.944878643401694,-14.995747970162943,-14.967079055522264,-15.898075764044258,-12.235123673528683,-0.8961823861050142,2.5167214452777085,-3.6270047469309548,-7.515234514737818,-4.525456145810904,3.2907248473613055,12.593936537794352,19.52581485273537,19.020899107369832,13.471077937994533,15.457036275840224,27.188492001835,36.889463288530834,35.81227019964009,20.114758021078295,-3.2756129775517455,-16.3917427617733,-16.937147634147664,-16.896570964144374,-18.7411753110782,-21.574657110758547,-23.710009687158998,-18.665187934577833,-8.964862189550411,0.10949964243192367,6.932227616205071,2.2830491416661833,-9.186817389338087,-6.175880231463845,9.32477166135298,23.197965046888992,31.449393067058832,26.749802799996292,17.822305851117655,22.213248878425265,23.472684476668334,10.506179477804988,-2.411547548964249,-25.768455568644836,-56.95939439542752,-55.7754136693881,-28.69762219729411,-14.548556057913046,-11.08845048229431,-12.392488995758594,-22.15542705568586,-19.239515936700702,0.7230555864641648,10.229526650301914,3.2923336890844688,-4.107540823992957,-4.018420323061313,2.7639111032193844,9.978833735622565,10.843319336688609,4.852569425650689,-2.4785257472557953,-5.707491027484394,-7.787684179993596,-10.054542479186884,-6.033431633970968,-0.9178043527953221,-1.939315469690233,2.798157102110854,20.83455660535736,44.20560272140137,57.84572408416781,36.68047231079028,-10.01134254679273,-27.31894196259317,-17.018631415486276,-33.92818265208548,-64.21860677534649,-74.65129621807303,-95.67237452723835,-124.94506677472194,-126.40561927972844,-128.15953001604632,-146.54484199121907,-120.80401563088576,52.95431641664862,438.61433900138604,767.1546464109484,565.2494615713615,-8.067237148501015,-260.76700351420413,-134.75036599264848,-107.64574493407345,-178.81452747538188,-123.18141823265881,-70.67515079872204,-101.8325062152484,-86.04818789504253,-39.86766688763754,-32.03096628048168,-17.103948865579273,5.926704302146189,4.726074909947403,7.2969345808121115,22.47821881665061,27.673003224588072,19.068176083696834,-2.4025269332636974,-21.385027664667916,-17.85112409431727,-6.42167026277362,1.3937262504163463,11.446022330394873,3.712540977870983,-25.74849870189442,-34.95690345410286,-14.53645624481892,4.56121819411713,16.58248902398389,25.16107990441622,23.338562117422526,22.657535379270712,31.913779136643985,31.52933147268717,13.335440374111704,-2.453161986302467,-7.148388291909313,-18.13760307270948,-40.31375286161207,-48.95040283416297,-34.5932897815227,-21.030897530902962,-19.482836612575912,-18.97302541778727,-16.02198696364615,-10.83202546434131,-2.216487633695678,4.333486001548457,7.734917191973004,11.756465160366535,14.91157443915025,15.330640170343965,10.016574532440146,0.30971072449795467,-1.8705092410766118,1.0177064200992847,-4.07138430257594,-7.042851363581096,0.38278464774081855,2.3235751195611516,-3.069736869364154,-4.109657315992709,-4.281040672391404,-4.423290287711892,0.5522174691648197,3.815321862851266,4.843280138435126,12.38654637363722,17.671551603981257,5.952042794338931,-11.15191895819045,-6.073541244140177,19.780134027043296,30.088095844480982,10.040411844107657,-13.45180270779573,-23.90208383098281,-33.10586895584014,-44.741825318756526,-48.664509871681105,-48.29171127494239,-59.163695740747144,-81.39615323492606,-104.3384626686672,-127.15705177476529,-144.2690749829851,-105.37417514786011,115.6468024410459,547.3941085166379,815.5072235546847,501.4569014890431,-69.75838586632284,-247.75208154354294,-131.5334782846664,-164.38087539257214,-236.5195945980352,-152.08994560896866,-90.9291839408815,-111.29144601445925,-80.31793720808574,-35.74519864575285,-40.14487921433364,-37.43067811798569,-19.848097183810477,-15.386314824670102,-11.348017428732195,-7.255636588723213,-6.677598087228951,0.36792841127180864,4.720943514591859,-0.8847338649880427,-5.483642834378669,-5.12128931062813,-1.2423023821356658,5.307323420994078,8.776885354483394,7.103874791679557,4.8532391465544675,6.52457881277181,13.888953535686111,23.76331020189761,31.14722191670711,33.10197799501366,28.47644399290614,21.352483800966983,16.038541810234197,7.8053139558126805,-6.840702825502084,-21.32852170861938,-29.166591576291786,-28.005010398665043,-18.346330572125396,-9.85860617926317,-14.655374885243702,-28.047978770677226,-32.27310695451125,-21.131666178366363,-5.350058201606611,4.800698352474862,7.825568489459417,6.596132522191555,6.186376149761327,11.449215724009088,21.77159298578576,29.64736717589714,28.026721086699762,17.761085975460297,0.36782806854452677,-21.822033956628403,-30.954279157120258,-18.05233702675489,-10.814345021326652,-23.180018974801595,-27.09836967093108,-14.775732100801365,-6.940455393397643,-2.824643902547961,1.5168736263280271,-3.2653350441971867,-7.217833108039845,2.641639153482083,16.10085506178024,23.69921183022007,26.985030521678162,33.52111852031722,46.16364675400183,42.143755120873934,13.6674716429926,-4.107849177423332,-15.133736427413929,-58.35212226586769,-97.77581921215435,-87.03330409172364,-72.82772620691655,-84.53285351220211,-90.35009248040782,-104.83331838405482,-138.98893777104206,-142.02129532516295,-59.6567314745252,213.0444348511994,644.1252324796382,762.9062183090298,282.05936083451576,-223.71289797673535,-227.43246641795588,-90.17837742615966,-157.76065090845475,-190.65047966693686,-103.25063178238322,-81.42089911178329,-86.13293516199076,-37.82242192831047,-21.233571872199548,-34.982112549267434,-13.305079549508283,11.106318152807473,7.870941648055307,-4.631292286642029,-19.075790392385223,-23.21349942472151,-12.326839740156892,-5.940931586083936,-3.7037173313383605,1.9503631489019888,-1.3080767869172298,-9.022091437584512,-3.3363582682393575,11.387313295115948,23.6461725298902,28.742759737966164,26.814801446242523,27.35815668365194,27.67361156119564,15.757062492085161,7.781427821796318,14.26385063666546,7.319240344434437,-15.30865602819782,-22.060749435246265,-17.260724918107115,-21.871886128597108,-27.80664425737878,-28.407348814106854,-27.032780152325557,-17.677170889282067,-3.573863959752318,4.565565108195691,8.219454830972088,3.437294502301217,-13.836317297688929,-21.86432030475873,-8.212781118701244,3.0576291847439263,-1.0342203193842527,-3.9939018752253457,-0.05295497609614408,3.760096579346562,9.855832887595724,16.353491139714617,13.90463163867905,7.068911722235488,5.733363540099184,10.724693830098515,20.548482125312887,20.823909155012934,-7.648502446632669,-41.9293349376539,-41.28327431927784,-18.9886595813477,-10.481918600765765,-10.966589899417428,-8.624282945344383,-10.23012360268596,-10.232582021795317,-0.9462163908636119,5.740924967884513,3.9921815081609724,1.627915596174671,0.7093565892128249,1.3332582569875928,3.212446408232895,-1.0323579405250793,-9.585371401217184,-9.7229083659652,-1.9092858842268576,9.12640902868349,29.677245295583663,47.640822798451836,34.43963603644583,1.7625355621885301,-13.465119894545229,-19.120567083957944,-35.63991342544836,-41.89531880967037,-37.7561892188124,-56.15511936555056,-80.2347479969469,-86.77569651386979,-109.77068418931086,-155.9843744886575,-152.11394015853452,38.84824439303273,458.2545346978002,739.5009588626929,445.55074579629763,-106.21007609937134,-257.3259522960397,-109.56556221280144,-114.6866146333425,-179.02395378714266,-110.71083426836229,-59.172660235696306,-75.7124740691522,-58.853792933160555,-38.05527748237751,-39.862619902952176,-20.038120636013897,-3.136545309365969,-10.517144518528532,-8.00377906125879,0.08222805405540612,-2.870206453163128,-1.55935795958802,2.238358942706478,-0.7616313593656026,-0.21617728769014555,3.9267780211717964,5.503279189132966,9.026710454152372,12.456787210403416,15.04188355804851,22.53566553470375,28.619420792257632,32.88471103052177,39.7176316170181,28.998448838125285,1.3228130576419588,-4.4576845210239515,8.291734733597925,4.525262300647014,-7.943461448343914,-14.044881114027408,-21.194774686496096,-22.147833417018163,-16.88839471918766,-25.544774555059494,-38.92328856722392,-34.52559326854207,-21.616604495488822,-14.124557424663822,-8.023322370094943,-1.8270692570451939,-0.029390936844245985,-0.44398590971551766,3.549117344779567,10.330354098420809,11.847911104330954,8.679172600055663,6.05662661703211,4.811939944377369,7.8928140139793,14.662977748638811,17.871085925653713,15.741737498856729,3.896140031703232,-18.459595758181777,-27.444255356967478,-13.703152561551308,-5.718116818656291,-11.525770866578785,-12.061270122747707,-8.827029919922383,-6.857721719632526,0.8859412375573652,6.681685427763362,4.2379038724931695,3.6522229859459894,2.235376527282154,-5.777238137667021,-6.8809320111600005,0.668353045551616,-0.8620964571200718,-9.936560852942621,-9.705316980304852,-1.8051750631662657,2.565255949275195,3.259032210233764,1.659045653418113,-2.3525820688759644,-1.8997008180133563,4.047404090783232,5.461825577454051,0.3273056266380988,-5.594778321854802,-9.565551773872922,-6.930208066884813,2.829506111953601,9.937006600963615,9.659020919559712,6.2628920274991176,6.32397464773517,16.252578145527224,31.748724179446405,43.22743776242881,46.72879805729489,29.702470240802867,-8.363746055878135,-28.04930340756968,-13.026556040258825,-4.045934522847357,-16.85560567202802,-23.276493082601057,-21.104564936607716,-24.87883848198933,-20.514654635980897,3.9853230906957915,22.855145652487327,5.566598820156802,-32.125127323513865,-48.08751586730731,-42.88008860854556,-47.037433003859284,-60.976258447237,-76.12289451185822,-92.70924808541146,-97.64155647578612,-97.50258282374344,-112.01083056258715,-120.2492444633165,-62.53720529877587,175.72816920194316,585.7958808397382,748.9150954876798,337.58600291845346,-177.9821913408914,-238.97982819348744,-105.6154543042054,-145.4703616139519,-173.2432016816912,-84.18975029511208,-64.02069275664957,-94.82905090484255,-64.62739237693172,-33.70979613161867,-29.47679422696887,-6.954803232413452,3.7204731021816055,-14.059961349464661,-14.237385010892162,4.98599601726781,13.029686851107915,9.734105249984522,1.835711878644684,-6.10523407295791,-3.311144485130276,3.3993944828867906,2.522034941253629,4.0227452762202285,8.103623616385281,1.3365989842843446,-2.7363941166015096,11.298959895376,23.951114288866872,21.685041607970337,19.85291266988863,26.12039818830727,32.55775279371856,38.191576976009436,43.32840627439261,33.90191265780243,4.876339054496476,-17.83058935306949,-20.642572291735334,-26.04431162076066,-37.19102072367622,-35.65445964029026,-32.47610634711786,-36.79621260515087,-29.023621292167114,-10.004441438895482,2.8430776289145414,10.759678909587858,14.558395528482212,12.389582101986518,14.2543862708089,25.62566214013762,38.971960975258696,33.32493989826796,-3.9201526500114507,-35.92656693448657,-25.261595105893996,-0.84618901827867,6.375490209302091,9.615742643474814,5.836273250788452,-18.300953234705688,-37.07599288555795,-28.3866882158377,-13.246503861217414,-13.221690521748148,-19.335299360122658,-16.46146904322398,-6.481378436674977,3.425515601131992,11.430262697137065,10.482446103854132,-1.8814194186316726,-7.412472797407302,4.525562582160246,15.808278153036605,10.320466248492187,-3.2585874380930857,-6.621440538304404,4.453029776043243,14.129398816610983,12.430984259923806,11.411850288570506,16.736955730716897,14.763844779761328,-1.709737405240027,-23.572876917053286,-37.71662028195049,-43.598926557747404,-55.488316864799415,-74.71317936199465,-88.1764112878378,-95.2265557832386,-98.06330714176337,-101.59207433619265,-120.1748974119771,-140.3439112592839,-111.0433027841386,68.93458780051398,464.3304721938939,783.9523000593492,562.3768269305134,-11.48683349842431,-260.08188877483786,-143.62401204641796,-121.09404765184101,-190.19439372221564,-139.72543013612858,-86.02133648772013,-99.7551266147602,-66.87667232646675,-17.634625147529018,-19.186475009391323,-13.545634100769592,8.64520797124991,10.109185848066051,17.960292567348244,30.234031978303648,4.318069963574082,-30.182349772924155,-27.457942014843976,-11.762264623614913,-6.4731578883857654,0.05811886305056557,5.461668972801977,7.431970581944199,11.915349380064718,4.026340722376326,-14.129017914863352,-11.851932022525169,6.238562115521655,14.469608510620008,19.436958390145694,31.37311156854101,38.12968119036862,29.469027036614726,10.755560990113786,-5.376982531655331,-16.208322805987613,-26.48579217915858,-30.584206802081198,-27.355193844245086,-26.979029883810625,-26.30730181602396,-20.156307136509426,-16.38637083240076,-14.195133618051365,-8.754101560288078,-4.681086793990186,-1.17517784936045,4.029010879978854,6.862893426296848,8.08793082668102,8.398726493273452,6.678395977081894,6.583235261007286,6.296727957718273,3.540298281602711,2.949640737432242,1.1065795285538917,-2.7762111936737175,1.634239640632165,8.75510706681184,7.699635686490082,8.140641730670183,16.3426065783027,23.38536724456725,21.020426770383672,4.847455588676491,-13.429808037804719,-12.617120010260628,-0.16377226114414656,1.155197515097493,-6.303225024568022,-11.088476422070034,-17.30662583588237,-28.838528958830103,-34.68238681661599,-24.737192146342274,-10.666871464250763,-8.73618845658072,-10.574271270585392,-0.7275420379530493,19.319252338831532,37.152394514171775,32.72206565052164,2.7028522410316143,-19.869075454088353,-21.792046121901663,-26.54501099053875,-30.539642410033252,-26.906539272003613,-45.039903293570994,-86.86555541967586,-129.7831559010652,-169.8756288020935,-184.4546445912718,-139.51290120868347,37.60539104972531,423.7040024732891,742.2233589877376,512.8824846019602,-56.994745625182006,-265.5618196778211,-117.03183989967698,-103.85695071566239,-186.16676213416113,-129.6420076313513,-68.19250630168966,-81.06474532675533,-57.48798589376186,-24.97272567159408,-33.051865198152626,-23.695570182062553,1.2852031333041554,4.948794312643031,5.556917807079747,6.310806983153504,-2.361623595082671,-3.235216305862105,4.630158900094521,6.692594582661685,4.545318455258803,0.6524559008994952,-4.282849385653965,-1.583187432849079,10.288077370378861,20.931355561843905,23.037508062590216,21.25034907138103,23.325218823743377,24.45777986260587,19.545101684815194,20.48280847963212,28.335651466507212,22.1303036237472,1.7622834363944029,-10.064543290426412,-10.31313848362315,-12.8877433190709,-22.755307737175272,-33.49760208923588,-34.82762523050128,-26.181655429188474,-16.339224080619758,-8.084185822249568,-5.150522877062107,-11.21907426214873,-12.876556463496886,-2.2313001865968722,8.162307141632619,13.342255782807547,14.019249937873553,7.7917194255403,6.89246570990627,18.30247989285624,29.401876735992005,38.29437411824165,42.898165418014294,29.02053283631541,9.346373487236114,9.252634432843582,23.0819370139424,28.8053111182744,5.5091010112728025,-43.285996314236186,-68.07561527128169,-47.71650416380694,-31.56825275353946,-41.06514574084745,-43.720788335651505,-36.01088387633482,-33.234546010823735,-24.42353207267797,-7.781799543306661,-2.3483440578953854,-10.253413279520963,-16.856157379844568,-14.952281328900343,-8.010452657723224,-0.9632358012039539,2.5786984238505575,-1.8188755600248214,-10.35086810363173,-9.26140881621485,3.774179859829937,19.530789179832233,35.20444959518677,40.61045125565944,17.476086380088514,-17.619660662423136,-26.05170414495185,-16.857972567744994,-26.686508609324086,-49.08929559610742,-67.29018081606232,-90.11142158439168,-106.26491660479684,-106.73472157412513,-119.88889565460748,-143.20703126121882,-113.66356781440237,82.85229430577456,487.34668662800664,762.6062236888147,476.53145146440534,-83.25671836972516,-255.3300764743792,-109.66930019856702,-103.42612750287333,-166.70184410122067,-107.06320493554085,-67.78184630800806,-91.77505598005943,-61.798842662433074,-17.609059769581314,-14.234149563244635,-5.439225522987947,4.772633506577913,-2.6130288709967413,3.634766074498791,22.233507755812163,30.37544628981411,35.11928003264522,32.43379664691655,8.104785425892082,-16.486642901205215,-18.233605702908932,-17.133378052448766,-30.742186083721805,-35.82681143860849,-18.032505310234427,1.3873973724690885,9.868553201496837,14.74063303874183,17.60712777489128,19.966680635151782,28.590570212343113,39.094934943782,39.51665712050546,29.24783148001721,17.652991978004273,6.523589792722335,-7.003304317671407,-11.192583368075748,-1.6795071897408977,-8.457808122363618,-42.476175000216344,-61.40244644523647,-45.55679045392377,-27.866593147588176,-21.662126757899827,-11.439232814672557,-1.1224006503088813,1.2230800175295435,6.205432579310302,18.03592119867914,27.487956054015882,27.99838812011457,17.562045438416607,2.8915502816347836,-0.23144415610643343,8.597700114753465,9.113439288952563,-3.247515436597735,-8.25716705159986,0.1466975524732108,5.372383251122369,0.17226176833729312,-8.246433849328849,-15.524107557458148,-22.18492561159654,-27.60172838884257,-26.523652089174472,-17.76103484053308,-13.389968886510601,-18.005136889292565,-18.859484410539302,-14.28135787373486,-12.921568285161655,-11.342671339406373,-7.428861824099801,-4.132725757324803,3.338906063264492,10.730060246770126,10.266481946466094,17.803141326316908,43.28934897481086,63.057887346895285,53.28653034527241,14.189858450849378,-34.97775397522727,-71.11194493769285,-89.64820671328194,-95.25599064905741,-92.07017582690627,-96.28525308322789,-107.63477748568798,-110.58447670276936,-121.44466778732037,-143.77087278768764,-126.60680335084105,20.03508254971794,380.7443420683471,756.4860706223817,660.6338548804167,108.02399401057066,-231.46969453070835,-141.66048724876913,-70.41629879257766,-145.32309932571223,-151.35138998986258,-120.14374642829505,-122.94853015666642,-89.36446227854341,-50.2542745572603,-49.49881050319949,-33.06695715597263,-5.73783354436666,0.35031298093371,8.40918569209557,18.593698162314038,15.885139380890628,8.896629800195901,-3.7477157121573104,-15.631914297040757,-9.044599946313387,0.993958015610481,-5.084217800705249,-12.180417006991219,-4.3855653807568125,8.38035545251852,14.165831254639045,16.50258767724312,18.667796136264926,19.221122666218584,25.732665009856166,38.83886415320586,41.93531576473258,32.32624391118226,21.015333853625314,6.174512480561299,-11.227723743548662,-19.68319737734746,-21.326155658348334,-25.292194301166262,-30.04086392634786,-29.4865065015806,-18.57414157012883,-2.2056327817480517,5.4514387150199255,6.472247540051392,11.924870355046778,16.698191542805965,21.660550772934815,33.90320331444112,28.59964827616826,-10.954711852455297,-42.68628268821739,-34.59242370870204,-15.244088308394515,-8.190102499737396,-4.788844173178046,-5.405619424380797,-12.966192065343398,-15.18694589712759,-7.769767483386945,0.8499854757197429,3.417210912110736,-2.7618817629994306,-8.914865217767256,-5.797799498550331,-0.47087177535657965,3.1875265568412194,9.035222888855088,9.983471625521808,6.3829668323583295,11.395382337460847,25.99192598584728,48.72361853533269,65.70762916087051,33.72671579554028,-37.93787284765149,-68.5111422724411,-47.32509565978047,-42.91566923777909,-58.90554824483739,-61.66848075059885,-73.76867358311364,-98.01144949700281,-97.54388765878043,-93.06110028035363,-120.39400603552208,-135.76896668772434,-12.955309295717,358.16663802207273,759.5367141952731,675.8236172182719,107.8773818714558,-262.95311140019305,-188.73432570831062,-116.10291318120179,-184.22637023803935,-157.65048753237284,-89.39428347966592,-105.05317843682298,-98.09795798418618,-45.717675782098254,-29.494430687000722,-21.784637262097142,-4.6455983031091375,-11.420172092334411,-13.670946915592,5.722618068111792,14.091159501501464,12.846526585808792,13.126393594699977,6.780911896950929,6.1193620875816235,17.058790798794575,18.331317256950243,4.559571037868342,-14.490193808792476,-30.88841976845028,-29.44104786637201,-9.1036846476192,9.133767503420593,16.96842125917177,20.517673061568008,22.765876618693518,26.376042994637,28.693466247555616,22.586517340114554,8.232850463926733,-11.523275421522962,-29.745026688826144,-35.22031917707375,-30.57769934716715,-24.137715839474666,-16.6153379288424,-15.607461616888255,-22.930130987579336,-20.742208595041685,-5.900228028439628,4.693036111769755,6.5532683251628425,4.7726601088041445,2.6040351238970194,5.245299865677686,13.804686745141634,24.208879023332116,28.805800563455968,18.897469694752388,4.023628966042973,4.366199597883121,17.747357709684632,24.65127633881152,9.594185914240848,-25.584647592317523,-50.63402352892038,-42.24222317868805,-21.17864147287591,-11.991235105493866,-11.313806271241969,-13.87648975688897,-15.818221032870861,-8.542402906136173,2.8245659168322588,6.069380867631624,1.3293887648843352,-5.254651048178833,-8.749393080451283,-6.724454440509781,-2.0268300781062263,1.7445302085281726,2.433482962083139,-0.13696672724556702,-0.3728984437286669,6.21623403037286,18.32650623731525,34.81101657699411,49.69274424074762,49.07842086858284,27.39769447443649,-1.7841379532234773,-19.714670427201014,-27.68350886794649,-45.0253335098148,-77.4050397031798,-106.91357603947789,-112.07837693036535,-97.53085281787736,-98.20054532955479,-120.48696128194857,-131.14142967227815,-83.22150857223528,154.23652478787915,598.4468767973311,793.8942798436051,368.1134697850571,-176.50107813024232,-238.92199651893714,-100.04407659561998,-150.1409938660377,-190.89593600236935,-108.99627477474955,-87.63359887060263,-103.97289709065092,-58.78766028448992,-27.24702024962604,-31.925181240501992,-17.112204351744737,-3.406602187375169,-6.5344690310586095,1.955427699606192,12.01283872252019,3.3435633078522464,-9.860336738174835,-13.71166832377646,-10.622482628429257,-6.775616523933096,-6.520779511717536,-6.07562192137591,-0.904362198527366,3.2255947543227634,5.423676236019238,13.449881911069198,22.86717842973978,27.63745391996646,34.40072633491655,41.17748888800901,44.703334743231196,51.79424830216955,43.52585618910743,-0.30382159832111455,-42.56776598366467,-48.262667018251484,-41.710327071879604,-42.45769794640111,-39.23830639710796,-32.55185379595946,-28.031291118501333,-20.534550455605668,-8.781964343257846,2.0646319586040764,6.27692356902414,7.685770742005653,15.59862216117369,18.938311580939654,6.389801566075147,-1.7179486934965735,8.320185762542089,17.804746031757034,8.627842080011002,-15.94400136798079,-32.55984251270542,-25.349227385895645,-14.723573371452462,-16.152842396906614,-13.171839961860776,-5.6299508937313085,-7.537089258521011,-9.649957040639011,-6.035578773969852,-4.699593414082398,-2.0993382146552415,2.6453894240888545,1.4109416364553748,-2.2241298851932587,-2.5962357245156875,-2.210454768762744,-0.9688431612529946,1.7111650456129783,3.2792308929979077,2.4999848220029603,0.28227151332806777,0.8443509579040807,5.304849128490883,7.612808623813883,6.5423545247246135,3.0550098214456276,-6.4075457871331825,-13.835238178956894,-8.417978469501676,-1.3887581071660553,-3.850169474287073,-7.526955910335233,-7.1750587888215644,-3.772486930303483,4.018412045339324,9.905112871209372,8.826420216619976,8.006938615153183,10.302359368907954,10.777366871000332,9.156672335853795,8.63812807202769,10.87456578582928,14.294417130386442,19.80920852149641,32.54983147370886,37.899304131846904,9.136005958821539,-34.98988973857327,-47.97595956399929,-38.308803552286356,-42.05465725926216,-47.531642858470846,-44.74380321310872,-65.28286296899844,-107.29427475331158,-134.0456090339014,-144.9112069447708,-153.5161554144635,-116.01112960384962,101.1317941818555,527.7686088253122,775.4679005117973,435.56317894644894,-130.35519922278513,-276.9015046482409,-133.66422057424873,-141.41178499009118,-195.93433381840248,-119.61709961699106,-69.37458267493692,-87.96579404613547,-65.41974011200574,-33.0959186592348,-30.01873536581868,-13.346702012733038,7.043856919298798,5.890661764581772,1.4380350443720396,-0.16160686553805448,-1.795036975303681,4.383502908816342,12.134912235429503,7.516402935817137,-4.693261741468399,-7.607293814005553,0.36016952027035276,7.133900083640008,11.466984316898072,13.290394200864368,4.845834071322361,-3.5467363079874,4.397859267412116,19.040223975356064,26.696953900976176,29.623367533152088,29.662672553628518,25.348462182276343,18.562901860383214,11.923713666430626,4.002420102159088,-11.838513082790087,-31.277186034050914,-36.20993056893103,-26.071980612877518,-16.884190887494952,-12.075922229981991,-11.334085272190762,-16.724395140226754,-17.49252315640542,-6.5864558618329365,6.250278391046972,12.237373493666071,8.720750817940521,1.3892933844755295,3.732283193152159,14.946183508008634,22.982384550642863,25.09917248969525,21.521025430637508,15.613303469677577,14.616591206644388,15.277755272739261,17.74133925357984,22.431553844119918,5.0419632992955865,-31.778559355901105,-36.884862232641105,-10.151834464553156,-7.784494254096661,-32.42008674108302,-44.43638809315901,-38.80968120486195,-29.326741293259097,-18.72428097737413,-6.690296214654907,3.394866752653707,2.4590286924281575,-6.248725593661058,-1.9785135202139568,14.916254135617697,23.74244308487657,21.43027832967009,12.340371920082628,-0.948449365241347,-0.7958594653641022,17.126894084008367,24.391145888751417,9.130823433657506,-7.087432828491448,-13.644700317754596,-15.378597861491718,-8.306238065195629,1.1088384122159844,-9.213240168616533,-31.22146267860432,-30.07998246004602,-2.1075979374287286,22.368970431519998,19.126479181169444,-9.989259921436375,-36.64701301878731,-43.37924658189151,-49.3052707026094,-61.46475171738537,-67.37638509906411,-80.49245805024964,-104.87187476402207,-119.73838185839992,-131.57028377510034,-143.26698225675665,-113.95122738530067,47.85858103426307,425.93795573425194,783.6130692834365,626.0590643691808,42.46165216961785,-262.48135891689844,-148.24572717312628,-104.29845284402433,-187.5861937758471,-140.6506829409796,-63.72804406440976,-78.46230301014356,-65.77137157138472,-24.881140498531188,-31.968914329727127,-28.89981239537206,4.628965898702933,11.934716896175123,6.950451052464725,17.073227598021163,25.710460019072286,33.35060522015186,33.80408992206954,-1.748483755228932,-51.94007112553511,-66.06605808771768,-48.08943373549613,-29.673045738173485,-15.271858541376437,-4.7922651792453035,-4.005082099147796,-2.1352114472919137,10.782686976529781,24.38082214244476,31.80840446978767,40.53506741203865,47.556838314869076,38.255062669465346,18.41354920110552,8.526561803936081,5.102112132824932,-6.503755506881336,-18.96609121767503,-22.224051203826505,-20.109506084101476,-18.133658352408027,-23.9959914580508,-35.06159338375149,-31.78885714254575,-16.7133524696347,-11.379568806196648,-10.866988936348532,-3.413863139975655,2.7721573440497176,5.80973445200782,9.211882524830525,7.936526217065552,5.7030768762246815,8.021034681411134,8.145053778250576,4.481716147529557,0.8886787244757703,-2.7188892574735175,-2.5981142504015544,1.3932335326585321,1.8425652140404383,0.16653698028156672,2.0174292269551497,5.743058651595655,9.996331391927258,14.697727557414431,15.448398098437789,8.418294155686542,0.01780063122310871,2.9579243305239244,13.164728014673914,14.055593576161531,6.428741321296139,-5.1253342988263135,-20.72440260070975,-16.67210573130231,13.198891415373073,19.939128620464817,-12.049929161875347,-33.13326122576767,-27.35204684031018,-28.146598100462096,-47.60402337512163,-71.87316397686175,-89.5385696553181,-95.63640006229703,-96.05328615095486,-103.87575328232221,-127.2097873127182,-156.26082673329094,-98.67614354704536,204.93490458524218,648.3769214566989,726.1398222562498,246.9224486986124,-210.93874234042107,-210.58221479291893,-91.99438253255023,-142.6857361856134,-159.28636176121648,-84.05501229229377,-73.83113897306252,-82.38546741046233,-35.02880971387708,-11.041057501048627,-27.034011309591875,-28.13348175175293,-18.700740701666952,-12.223716558322437,-4.355347471693378,-2.2328468278379567,-3.3100982247872093,-2.147002711473192,-3.834423682397958,-3.3839872279108407,2.91271883162842,4.778902569304684,1.183989362857953,0.12801213285249824,2.2095265616164035,7.976230521763629,17.730581064483793,23.607652576761556,23.332613224279662,24.395366032311685,29.2603874846129,36.19349300464448,40.78424157400165,31.88770960622588,9.238674398061164,-10.900221068063493,-20.597160126924027,-23.080314624557374,-19.408107377944933,-14.549007425570547,-15.260933127237056,-19.31590355181312,-23.046262612682266,-23.932620411269518,-17.262720259383787,-8.186824620696827,-6.961989495483004,-7.281797715518591,1.711636055453094,13.244664441128903,17.890243043534767,19.866997637635528,21.253166767680607,11.493891299073482,-9.813230001102076,-19.057610869687394,-5.742518959638065,3.612990523918211,-3.379438629459092,-2.0553574716196574,11.647603357204325,21.192372015522825,34.18443884981324,39.895385564227226,3.823139329610907,-40.29779434114359,-31.55568033310616,-0.4425231164755239,-0.6475897283797281,-13.057879062299389,-16.02744813538707,-22.497680488266667,-25.125927438036577,-15.270119320805932,-14.6005335226366,-28.914679924283963,-35.40893101047869,-26.468434878846345,-14.293561345406129,-3.4711157610712338,11.16985159575103,26.85519486263249,27.367560001414212,3.763205578065463,-23.088937707383764,-28.375066755879722,-28.3221305578693,-47.544077325002,-68.91658280397927,-78.84233004136068,-89.21224081568677,-92.84357806783451,-94.31022432687482,-118.1258417039873,-141.40820693175357,-98.15781055129887,128.34140994354456,560.2781560892901,790.5060994623817,410.6775933748159,-150.39190200868183,-242.56712405015622,-84.31885080321626,-114.83449619695494,-164.92655119640511,-85.72927828632307,-65.11510929946705,-98.73220695425968,-63.3597682936351,-22.56091272449803,-21.702715968284686,-16.002669441709962,-9.859109808906098,-6.947858277221161,9.601132336902248,21.81851618297723,18.324090719891778,13.575499426062995,12.802540325150847,6.23743711536649,-12.429510995225971,-23.892527420696737,-13.828332758561714,-8.293196604483207,-16.143680040237324,-9.444253424209265,9.246380161102897,17.95253446738401,20.602518536405725,21.92135770925183,21.729717513994625,29.19479144726819,40.73993663122122,41.815765421607765,27.87271557188562,4.413203220007492,-11.80500594922567,-12.337145818981616,-16.205832364137407,-31.262244378639302,-38.53149046309507,-34.87717407114748,-31.12289504434906,-22.65078802680975,-7.249137082786669,3.4414424842770197,6.398815888312667,8.105523435967168,10.44563448986473,17.640062492940512,33.898099123317266,38.409569310332735,6.583501718293931,-33.66583188860598,-36.109615170632296,-15.19323551934395,-8.242623131836961,-9.037134403786922,-6.748887287715439,-10.604287188925918,-12.245841826752804,-0.9449790968258989,10.197410290100201,14.294371502318167,15.260943444214538,8.458300672603803,-0.9796780381315902,3.313217274178319,17.60779371101453,22.590450009010482,10.951026122170184,-8.9124440875475,-23.9452191140061,-28.428218761233026,-26.756212875423735,-23.4032797773419,-20.081025101286933,-17.690149190810384,-13.942536420099726,-8.988462994932863,-4.8884592981014965,1.0926972191813125,4.384693196238327,-0.494486396135958,0.5015352843782779,6.3421951077496175,-9.74473964997346,-33.17934484334175,-26.336292985949946,-10.437275918233045,-13.661583854600645,-8.006060756471221,18.324362557554892,34.29995154047185,26.015285864239146,0.06323369082053532,-26.537238978683718,-32.44596736745221,-32.439443964647175,-47.24914273155622,-58.409538300510796,-64.15782849415052,-83.58882532794857,-105.97085076998914,-123.71137060736649,-139.84667362124495,-129.86076904162758,-12.02829160215434,326.94653027351876,719.9423912531404,659.5914934449024,113.66426790168163,-236.5289565960347,-141.3069948301636,-66.5158360618702,-143.61228119583706,-130.23164025773067,-88.9412942168971,-120.74777859072059,-102.20479141907704,-42.65248862754683,-36.52753260993627,-35.14851540639709,-12.42831604651667,-7.479341455469754,-5.055035690970666,5.343502931270947,5.255337403695428,1.78845993001923,2.257524725727981,3.5022106393436823,6.6722337997821155,7.753895571784726,7.918377568340294,8.962832779948407,2.232050898807194,-5.32044669306876,0.04559729213556718,8.756492497251916,10.914193923960447,13.291536074518278,20.833603595875548,30.79392808044333,36.516971707500524,33.85681100191188,25.27278187714463,12.478911551400198,0.6121171431171679,-4.116334167438588,-8.855535909577666,-14.143384579386396,-10.938204216055862,-14.629186213582704,-33.85891099422856,-38.215751257524715,-21.239116090911956,-14.487191688735734,-19.234671972932723,-13.210715206043044,1.496006413907634,11.657283505794442,14.30491453372762,12.132807225431307,9.449231848600137,10.383290265754828,15.025794006523284,13.004361239352844,-4.299888813083895,-20.71062417515513,-19.063763229750016,-11.276950111130216,-8.305654084253657,-3.681032364001982,-0.7434115443808604,-6.824826321186813,-12.701779825071107,-8.49195653439693,1.4672790791867536,8.867392958246366,11.955405861782845,13.350271233168355,15.400906795028499,20.974001967722877,28.911762917083962,31.826586704224006,27.5203725870052,16.5775465850052,-4.7264390549504665,-27.37577638726983,-33.028989250916176,-25.102058758022253,-22.370905264332016,-29.096567510546382,-34.66414383001232,-30.327423491718864,-18.882560104908247,-10.382539595218486,-9.408522563909457,-12.99829934498677,-16.001117042162804,-13.148490980071248,-4.020365003648596,3.826821835115446,4.310693654587698,6.5802523037910206,22.374750578019743,32.5963345932036,10.669434856959255,-21.49665135823919,-34.13264805761633,-45.526703936775206,-63.95008793944899,-68.48248900210992,-68.80594528316132,-76.23738880263491,-81.11882359999773,-98.53827219361217,-128.37166969551902,-129.41816806916603,-28.196463992384537,292.188372028924,697.8108188887604,675.888236034701,134.25857762723342,-255.42979954307617,-174.11300178562504,-75.84454906282548,-155.20872082228146,-152.8398294200539,-74.1139938476697,-73.74384697306178,-81.96310164129405,-48.48983419282372,-35.7563450043499,-35.05627295736906,-20.42985837848093,-10.525028470199945,-0.6507364404258311,13.010472996962113,9.857508876336638,-4.359862671173968,-7.153224114348378,0.0642607481862667,5.761620569316208,6.825504198740495,2.4303740230779853,-3.8091634716312828,-3.317092666094155,5.2126781861937905,16.754194134384555,23.524195221407773,17.51445572717399,10.142121089267592,19.183936120198688,33.272460550767704,38.7067271069518,41.509372991550585,34.063044088001384,10.658967284368282,-6.181832028135183,-7.537647683676759,-6.43652132529629,-8.13305630766116,-17.025803886871316,-28.768175457258657,-25.435352713766697,-9.05578758651094,5.902422525117966,9.82196366408778,-11.266690653315894,-41.05698429550205,-37.97102718731404,-11.473550272392162,0.43734671083080556,-1.0845850347768184,-3.928503810351801,-4.87881717953512,4.112705911644664,14.754041095448981,15.176925251486363,14.177906922656408,13.262321113123601,8.334930522079866,4.92122158641289,-3.9834423932843936,-20.019493864011352,-24.51753093844699,-20.69693421581769,-21.347219958195637,-14.668240506063619,-0.5126384742933361,5.221374153341921,5.8764675829942465,6.756524888532184,6.388476821811525,11.315347014997856,15.283540906344182,4.950208214017717,-4.551765085164698,7.362009181223724,29.70633000000355,37.76176479738387,20.819963857031233,-13.726931967530028,-46.64912095678112,-63.517288100767544,-68.2003831549884,-71.57146927209106,-78.97610528626247,-91.50282467719151,-103.92920824776206,-115.87637838374631,-135.00926346347617,-147.75463980223913,-116.34027666683107,43.71786911688548,414.6464235747553,760.9357099766756,605.3754419794254,43.328475227807644,-248.7214153461708,-141.10197825263594,-100.29380036549908,-182.16127232944564,-143.98240992159236,-71.11343552913706,-76.94857885316098,-64.87858364591689,-29.963521645026432,-28.838914927183083,-21.229458040351282,7.988723477608444,21.94003093720963,9.315093888039378,-21.86032433560124,-42.23229123582459,-30.11461956333629,-11.906469928914664,-6.9895019263881615,-3.989118717167017,-4.680087153947619,-11.193295355785091,-7.416122776148875,7.146169923397028,16.026244565446053,19.75984203332264,27.017573769463837,32.775163594921544,37.25432026475676,44.16417201583954,35.821785007389025,10.180815988441795,-1.517537219504479,0.1778927241245296,-10.2705214452208,-21.027674147033842,-19.324961432607758,-21.46911942119762,-28.144682252130025,-32.11236286106697,-37.447924713823326,-34.85860841933865,-21.881635041885186,-15.912861369778957,-13.81276843815843,-4.482031909749084,2.4740309633066566,4.268109495842008,7.517796253350607,9.619194193390223,10.971556152877461,11.97620968000241,7.709881596541578,3.93664906015022,4.8274637508780005,1.4541305518919359,-5.758879469479162,-7.50031538123287,-4.7979380312508635,-4.560100317491122,-7.571811482719478,-7.036278821090588,-1.7534234026729953,-1.172651192035442,-3.1494777076428857,1.6667859106725942,4.719581761706225,2.658433307234059,9.50994641795554,21.402879127610113,22.888292638409773,13.875306161371562,-0.3724699036336756,-8.397660966180275,3.9318493166813404,27.218257606638506,42.475721855994784,41.290134592176535,16.724177691377445,-19.42934072956006,-37.94767034583953,-38.34977915991068,-42.23436113632283,-62.40490571706859,-103.02706243278568,-135.3939162660954,-125.79172162803842,-114.05516112129118,-138.6717737275812,-154.30847809593635,-105.59591883000815,106.00221577307059,531.502875910134,795.0972241800172,453.6506163945912,-125.21452100529847,-267.4459118362689,-115.3497958294638,-122.20252100214712,-177.7426987074951,-109.63171769169182,-70.28659066274079,-86.35616894727536,-58.94176008699375,-35.32996203000747,-41.050682689442255,-25.35175172777636,-10.259056607286112,-14.75903542394514,-6.639987180273952,5.796402436647858,2.7884129869406724,-1.4326377902244172,-2.2369319384496933,-4.1838083748527914,-0.9149173539334292,5.123083148348333,4.151265285066744,-1.6873387234037618,-2.913460191860482,3.708681645516987,13.098571227324179,20.498297200587828,24.385730953167105,22.872526638691436,21.16772196671502,29.259487148691157,40.10214221636662,36.09552083197954,17.88757028330653,-0.579983343132664,-13.302704762584767,-19.37341858753938,-16.32749707621891,-10.008473995768028,-15.996636585534288,-34.21514064012936,-40.954281766003454,-27.840344670058137,-14.005812019470664,-6.94577530472382,-0.9624829333006133,-0.6691683220267848,-3.4835355914125574,1.8106210907277949,9.889524486106765,12.372722112442759,10.551915510589472,3.8750365924136423,-1.9766834439164778,1.2963050982673452,7.288719971812726,10.303167266870373,11.732768250267172,8.858526359706909,7.04773074864336,15.39903564536787,29.452716843600086,42.02875833071929,38.867041619719274,1.5383546483009063,-46.478297467707016,-58.02789016181309,-36.8417851532992,-20.96082852085759,-19.06661123481819,-18.34187740436527,-16.771183205287652,-16.98385532458385,-12.26449430760061,0.5162387958043961,6.2727079482171675,-3.4811579438701283,-9.475358475048747,3.610301487426465,22.72238884507771,27.322658321725747,15.499079200497995,9.23452812155054,18.901749522364863,14.862455895987473,-15.94463449258645,-38.49533079613381,-45.09413225056784,-61.72815071746565,-74.5251419016291,-68.61518355039706,-72.65629907655249,-87.49487511191428,-95.18677236180883,-114.44961928363446,-136.2827841271649,-120.15869883775125,-13.236790827446299,295.8648733668531,689.9307891365918,669.7925727501956,142.98090306967936,-231.29382022598705,-155.13388115093852,-87.29615519618783,-188.29993921918097,-174.70792764529887,-81.80898181508677,-81.73759358732441,-78.66715855296863,-30.028762864186394,-26.188898991199068,-35.048065389032196,-10.031715953274235,5.1625970089259,5.5775205794964915,9.299319308622238,1.3386027350825316,-8.922844352242707,-3.644146800360038,3.7667534274656056,6.18766075389206,6.874336936075285,1.246762671864243,-3.930129010441611,2.646932464296082,15.78763321572716,26.838095908846444,32.54181080739046,33.506791177529216,34.757941039820835,33.79848854792977,27.097827590512047,26.556816679104298,32.55943264209418,21.55194600334227,-7.433373215817224,-22.478441566966012,-12.404756924637706,-8.008006018760966,-34.72837507145624,-67.97065020725171,-67.55218377707655,-42.034629280738955,-25.437444530053426,-18.122808092337632,-9.959799543150407,-9.632936278430726,-12.153521044900248,-2.195084058974695,10.378169972534948,12.065788375492222,8.746309698813906,4.277322554475218,-0.09950205823652114,3.0902788244218407,8.937044075183792,6.032422452030499,0.12412273949485852,-1.2423989980554255,-1.665486767454131,1.4647019886889348,10.55682468247728,12.600205907526409,2.269750989011611,-3.9203106323281727,2.9812600275061794,7.529014066290423,-3.255350275009433,-17.353357307341938,-19.216881292358376,-14.646171340599057,-12.699103607610025,-8.820279157617938,-2.394728598637553,0.9528488893100682,1.92226518529821,-0.32105229845765826,-4.7679194543161065,-1.5095396576284845,5.8000269557426085,4.159517681104309,0.4845027615000821,2.992676730472121,4.0437578104887155,5.89527972170956,14.59584380478953,17.79486310999123,9.79822657761998,6.41608076237384,15.812844984017369,26.432904957532028,30.311741335379565,37.39903976951359,47.77091476201777,30.784590036112235,-21.67527173400711,-63.464844344859436,-70.24272027566246,-71.51217461518682,-84.25198610120466,-100.31900906157884,-109.9186440958919,-104.04593460552672,-102.30211886904786,-122.47666915385254,-132.02569570351258,-80.99121111903182,136.59462352752269,552.4981139088459,768.849217024176,385.1897650129343,-171.02427983409913,-264.23261617298147,-110.96869648911883,-138.5291355140522,-184.50989646037317,-103.1106219169757,-72.74672903561998,-94.42823993910996,-56.38088701262428,-22.122056244520195,-28.768833366201488,-17.81880371050488,2.7105831794482604,4.930659501080456,6.529928426706494,12.12451282223308,11.43266339479445,10.030541393335747,12.46482625667442,8.008879922521098,-7.452404601751103,-17.213574054841306,-14.088993559950707,-10.65994373391623,-6.046501139988806,5.565036320578035,11.927691201312378,10.402573773659878,12.97071033657026,17.981239109328726,21.25134008085033,27.292266365993967,30.64040213540777,23.797299712584888,14.335991282018455,7.6976125709675385,-1.745067532682439,-13.148613796912912,-20.201035630668052,-24.858853419176587,-28.066080166623884,-23.058357816797365,-11.972289811175598,-5.196854136667016,-1.6517038398893131,5.049762958475251,11.930764712243398,17.539673022238183,25.88191185317548,29.595744507463927,15.288882597339924,-10.91125279804768,-27.597022193236953,-26.958442104179397,-18.387591158425202,-10.346025552781615,-6.781031975967377,-8.900863263419517,-10.37838642136463,-4.846377498653894,3.725323805967496,7.295226049864588,4.029336300058198,0.9714223408185925,4.728352512061009,12.547942686648167,22.761610178949777,30.48976149115728,12.96488979433519,-29.206305877949717,-49.025141344013576,-29.48643885210589,-10.923572341578764,-12.174716363881632,-14.939511182544125,-14.50643835089367,-14.029887622904997,-6.0847613391659525,7.996828447028858,15.071102345465011,10.079589394368782,5.3746663954672,18.50288662907065,45.089137564258785,55.331585355890354,31.20590005451526,-6.117872708110352,-25.7660692812313,-32.73169854984086,-43.87163049673564,-46.820771920445594,-47.56294399013488,-78.71722068683036,-113.21393035676365,-113.71513316051144,-122.26911824470247,-151.21083102624962,-133.45256839021445,9.776381611097435,353.03723008623314,720.4574410005558,634.9617408316414,88.71365987268474,-258.2005889905934,-176.76702318125118,-110.18436481910675,-177.63026661435038,-144.78428861620802,-71.03818885819271,-81.22772795151583,-78.14225180633733,-34.39145738946269,-18.709052270850858,-11.059015031593539,11.524373272508647,18.76229331676386,2.480282785734911,-21.27994822733608,-32.004906989695954,-18.50606273392465,-1.6827850149884682,-4.66413740403766,-17.654059974835512,-20.1281640850536,-9.73429586055599,3.2536532627774886,9.771468263125593,3.964924224520426,-6.0113325272930265,1.7772540546437439,24.70425327066767,35.3286138983774,32.10301007642473,32.45612480417732,32.56426862996292,25.125769128424775,21.1915312939895,24.365004317179956,16.339249892883387,-9.803245347827215,-28.649481259173687,-23.124903926720524,-7.932671235982963,4.350608488120555,3.0457881423670106,-23.145881961035833,-43.96498826692029,-30.78218148207874,-18.368442324086985,-24.99306345094858,-19.79582497186519,-9.579760436801795,-15.165671065206215,-12.70582936037716,4.940557041216484,13.838825502932039,13.532514296386783,9.107745197041304,-3.5792768962581487,-9.688395587321653,1.7688980658341635,10.869228012655643,0.903271888104884,-14.187362250433576,-14.653053627642404,-5.808002340234494,-2.6698891074732334,-2.314010773194849,-0.7395935462746026,-4.290399798362369,-7.009397306806189,1.000583603314376,16.489863671775915,36.52869732271238,48.5224549268528,29.394188050988678,-5.182943883768558,-14.3897407149893,-5.630309154701118,-11.71977912965864,-26.801077330711944,-43.94119476431442,-81.03481491627227,-119.3679480970788,-126.47777390525744,-127.18877200076577,-145.4612998850408,-138.2430777145601,9.384163979900023,397.53026483840233,782.0015282390378,643.4512603819092,48.43758504514053,-285.3384076370754,-177.13446887847746,-114.82039113503681,-193.0993477232057,-159.83006557510512,-88.64564610481773,-100.43621282680044,-89.31230193323974,-43.454127513050736,-34.148526413706875,-25.62506708423372,-1.4406403531831486,0.9688675858418527,-2.353775975879353,12.890167580529994,27.10615335759572,24.68848409845838,18.184725121362888,17.375090876890905,12.018549941162348,4.731449236771358,7.20614247087819,-3.8116174558013682,-36.84597763619193,-45.01393045571365,-17.563779480353467,0.24467262203550622,1.061220231282468,9.695777114207523,22.480563279225912,27.2756915712452,27.857425598835725,26.169757731783935,16.74220674138236,-1.1486607347371809,-19.00332864184103,-28.75328673717997,-29.70374836024647,-25.186907134528532,-21.68420402804611,-22.047823172539527,-20.99040934159069,-18.186894645663934,-14.220117060621718,-2.933283248727631,8.063743997507599,7.928382491599414,8.020544676065601,14.409849828798826,20.02260895194264,26.993681947551014,26.913276000832607,13.071336703811731,9.51499517106345,12.58009854166602,-11.035820582662401,-37.583099855443066,-30.972250708377594,-18.759830003231784,-20.40467549234488,-17.26263124004165,-12.705671237172474,-14.661433195061097,-11.888717409941176,-6.447260215519137,-4.14133725910841,1.5307915082577557,8.20124211198352,8.04497979172707,4.889353018048189,11.846472491298192,32.748541287330596,41.17840755041334,13.734079928714594,-20.8303889266779,-29.25292765950403,-30.645640880569474,-43.3657805476728,-51.814607390967566,-58.586592047927624,-74.48391254974612,-82.03588732401872,-86.38586522057271,-113.37944912058562,-140.43137063775495,-92.40881891014874,155.70354200116117,592.183491980696,786.4889065291812,385.9374786053936,-147.72785962205887,-223.37656484941837,-87.74576197501645,-136.05838479326036,-184.79283754016615,-101.69679544913896,-67.49487776408354,-85.05034758131426,-66.90517678271794,-68.3293204231437,-78.21581152205087,-42.21974019824567,-17.143305544310177,-25.878958817094237,-20.39605036286038,-6.926036974074918,-4.294081839288992,1.5381872623544837,6.121209940913298,1.179082015964644,-1.7016454153943759,1.375543281242372,8.20552549105506,19.409595237518616,25.224587157672083,16.290521501649852,2.611179091693122,2.8549657106680564,21.198924511040236,36.9021644054849,26.829261408141335,2.6590903221925912,-6.288086605284656,-3.1695398417295397,-8.078418017916793,-16.523588069022328,-21.484528287557588,-31.496025763973808,-40.46580397840583,-34.226137989519394,-21.13877968451733,-13.678188133574722,-10.28054550539476,-10.250632183642573,-12.200430959358496,-8.080658784256658,2.310210907686316,10.055436587095421,10.452066426468921,5.649924529065983,1.335261368007897,3.1288788547763637,11.849449026268681,19.857003030359873,16.917690559908287,7.7277797937666435,4.721210292681917,1.5109483118615876,-8.62658548080892,-12.221784789025548,-10.406684901501944,-17.36719177580607,-21.1595145538234,-11.242226839813046,-2.0334510545139706,1.6626247765594155,1.0541753059593812,-8.274252604071862,-12.771881631793656,-3.1934345515878193,5.277467673753893,8.070298494164202,8.109808406659678,2.2425499958119888,3.234757857063903,17.814391375467267,30.061011507137398,34.12623661888241,25.04622120032331,0.42801344754265847,-7.414535899491838,8.993767252633894,3.0992618556911804,-26.890082768877583,-38.9092554912939,-41.13457575190828,-53.099067682461325,-54.102377376560064,-48.26597654849473,-65.17144601489314,-95.10256975124952,-116.29086806397655,-126.39116656445066,-123.66937723807833,-83.07893456854485,115.96284682760489,532.0751142242713,787.5745322101258,451.3181426924108,-115.21362594755543,-249.68842564406862,-92.63493351972743,-107.43120550334271,-183.78965562874407,-122.84937227033738,-77.4138261323116,-96.37434234060214,-73.98707103968282,-47.82386935412616,-53.97212432492037,-37.46825752596807,-8.855482571164316,-1.0625569822900047,0.8719817645115739,-2.5647000383315586,-10.541837109147812,-3.5554507501356625,8.894025338394433,9.956122809393836,8.251422155952719,5.624755369409218,-6.2343549122431625,-18.163936885718304,-14.638737826179316,0.19513453639344824,6.605342434010989,-0.3256091236533383,-1.3406147099292136,12.158463177310313,26.042191182212903,34.704121014219986,38.24632939661107,25.05740654273712,0.03978617508061122,-12.485320894257008,-12.025303733291505,-16.383826159007203,-25.573994717039348,-30.641608173005025,-30.69937605260009,-25.09723074828163,-13.799264131635507,-4.743685521011943,-4.429225118006574,-6.936393372638977,-3.6826424532565567,3.7410874738248383,11.032392251101406,18.44463480988226,22.942130933884016,20.556914109890588,18.385164088994387,26.643152971329116,36.309070526586076,21.603958348158756,-19.18989986356062,-46.8238918167953,-36.738570770493624,-15.822823553177157,-8.409058571202712,-2.7017738636175146,2.307171466729418,-11.701122500336954,-32.51474882639734,-31.107886683553822,-16.356137739828263,-12.701171741340769,-14.306830160450795,-10.037623262019569,-6.914937196861848,-5.554107171996877,-0.9137803800268305,1.016447797462849,-1.4519825083722742,-2.2062428966794005,-1.4668560741146797,0.10865695905321093,3.4659416156156615,5.513846646215854,5.525527692345664,4.057789729063119,1.8535796031495415,5.480211560850849,14.596712966957469,16.916869633079457,6.48370606200863,-10.87546147392705,-21.25923525885245,-14.398876223157359,-4.496336008713781,-8.076733659017268,-11.896151108808498,-5.238988848765132,-1.5602143459217155,-3.18903200822141,0.7999293077726242,6.5165761928477135,4.796006927222144,-1.0398332306112212,-2.1882647484852074,2.0678859237782508,3.176767006474627,0.06511808080865578,1.2517719745018039,5.023700026351988,6.230335247689457,10.21338255479576,15.89033939237828,14.827039588623103,8.339317671164878,1.60871448311251,0.5658013868788592,9.756230709978785,17.021927580953516,11.581128765942669,4.901172285684227,3.268391377500807,0.5495491363462088,1.9799601496302355,11.284190637705862,13.968878960300703,-1.189297401353155,-21.289607635535,-26.47593531429444,-28.99629468518218,-57.427942329234256,-95.69248549102878,-107.33042870472156,-109.28122693378141,-136.90388310322717,-167.68277468893058,-166.7214243129836,-128.89351010097653,44.00642937682565,455.2964620280072,786.5669202121204,537.8228254931355,-52.484219329092596,-269.1315939603655,-121.8666279866236,-104.33428869515555,-181.10709084826343,-123.82528686145062,-68.21925900524757,-86.6314528036818,-56.34164697922805,-10.059591176104806,-13.571558936521782,-8.916922849889625,6.180801665627069,-7.602552062013091,-17.803637291166623,-6.475268463752952,-3.304088858691383,-10.624415096810337,-10.541374899091213,-5.466907716962403,-4.311635806751225,-2.905943722511116,1.881016393069574,2.080355819994073,-0.7682975130052124,4.554718086585059,12.911934626709238,13.9458869353297,13.356779461115776,16.1584412450885,19.43334191422062,25.93290140586776,36.10871235451615,39.94253743303391,31.397400814764836,15.298820202049859,-0.11040120134944731,-9.666891699990325,-15.128413126103485,-20.46823863139634,-23.956023374644165,-22.29986696338286,-15.907599500867224,-7.400345244629344,-3.6950325796274024,-10.761808141208796,-19.915965130625658,-17.01113861102818,-4.221878615646336,7.242932107539584,14.67859323130041,18.36007969710036,17.605010933311366,17.584902026599565,22.981034270183812,33.78431366492701,45.805694007154784,36.47742244996753,-12.950447929369002,-64.78261565230272,-65.67499333386348,-34.120712832653886,-21.627338104710493,-26.71077497990425,-24.577869113906036,-20.091670824758197,-18.71798418016208,-7.017218758048774,11.72062361951638,14.616044470541453,2.654309961741048,0.9902881321702925,13.479843649959948,22.208593480613654,22.65365156634836,18.922358240552885,9.543033736454133,0.33989215441566856,-1.3399243005046335,-0.7665899528629048,-3.069281497160393,-9.851501967113947,-23.802759619658637,-34.6712864075293,-28.041234292992733,-12.88794577763776,-8.58956666684388,-16.034006794260634,-22.323447898850965,-20.067578186871124,-11.639998587481742,-0.9790181864122598,7.07417004221547,4.47332274258828,-4.078211274806293,0.6419341242170349,21.708148110445812,38.248230350983164,28.466862096621313,-7.736678906056392,-39.39873335057144,-44.21876084476962,-42.158922766583686,-48.44626044967487,-58.760002475328065,-81.38601273281532,-104.27505696248406,-105.55059119645986,-112.28087809768749,-138.7399725773961,-111.62485782640942,105.0532903728037,528.8583526124587,786.2295921899439,466.66806079745317,-94.06589624583108,-246.08917905425938,-105.51271306708017,-119.16799900128579,-179.62596314914214,-102.77749752412375,-52.30091999831181,-77.02875413154464,-70.08340206603285,-53.1921662861512,-46.99405208958452,-18.825841179531267,2.7399661302386944,2.6979842173195934,4.943715929532917,6.228193686023251,7.93190456134049,20.813593560916296,31.128002498932247,19.67630446303471,-14.87522158287389,-42.33425807304381,-32.39144204768839,-8.03339575902427,1.5566779650286429,7.230652854751055,9.283641894218313,0.5034070260200199,3.16522245934871,23.614774963322112,36.93429866868392,35.489389122206134,29.124401872624603,22.126576620523828,14.970854802626274,5.61258449517196,-5.820707097337604,-16.61885754370744,-28.58664180477883,-37.47217605404384,-33.18268275707255,-20.667231332191147,-13.4905966930861,-13.441878882710592,-13.336142870386631,-6.977282457377136,5.924833664365526,19.344739948186486,26.893412322572335,24.349500806562283,12.680847361382272,4.685566243874432,12.657273202153114,26.44606049224846,25.78477594130874,12.049243640105926,-0.049803248882266615,-11.885690201997377,-28.0195001373572,-35.917985837941856,-31.159634231744548,-29.019226090237634,-32.57090471460411,-29.47777854792563,-19.547265100018308,-11.023850425857656,-4.932916274133628,-1.6409376679252254,-1.9767971508572622,-0.18399932536938302,7.136926449482702,14.971284479210084,17.140903148224805,6.189991860381948,-18.25820020441052,-34.05829386941689,-24.87909370868033,-11.858197668394851,-14.084764555972107,-17.364027622060675,-13.682969494078147,-12.65501121926776,-10.86629660527408,-3.9807927582776887,-1.738739510115611,-4.693576383020975,-4.066521065058795,2.080852850020911,12.63907544251576,21.168211663797877,19.765461442418683,16.152655069864075,23.77369004241197,42.26945347649179,50.8516100094033,20.291185462974543,-38.04416349973711,-73.64941337842154,-76.40914047852297,-75.47192142621378,-79.70723937316865,-88.47787261490116,-98.58318536915755,-103.19290717057083,-115.43709450162616,-134.05443481248403,-118.45387703133792,24.806978657779496,394.68976977511966,758.6335692876914,605.6944782516123,27.611363171081543,-259.07485488836966,-131.00450908175532,-86.93066640439704,-169.8601958556835,-126.81305896543685,-59.152192359455455,-74.67204607435062,-63.94118834292658,-25.801641037663966,-19.85657771407824,-16.458876265492293,-11.64679626150191,-17.05877763661298,-11.772643825199973,-4.371047216637169,-5.562639057297581,-1.307902336020958,2.4367914160022464,-1.1109191080933574,-0.7939880970581866,3.3237916925887934,7.23502705560611,14.065892430845322,21.008433283255094,26.455623166363857,34.85717586099048,39.85697745497138,28.729515999302173,10.116521125011136,8.067657713629696,23.645903234427003,36.11957121815169,36.501257334616994,26.413707660941178,4.998387399608228,-22.083351400482293,-43.53632264165144,-52.35512634019295,-47.99903522475893,-39.25857801914167,-34.450179299215364,-31.135992286663672,-29.64352855621703,-31.93761613064043,-27.69524646020445,-13.326671424580343,-1.995378940218167,1.4066505710175523,3.3837847103808727,7.114552696605971,13.849190598367196,22.828682951956434,28.706351658321623,22.41913511440602,-3.4765377641798736,-33.18767184223028,-36.563667705047045,-19.267584174555225,-12.843528327995596,-19.012788588139877,-21.356770596990206,-19.227694199804844,-14.225700301341003,-5.7648449144535725,-1.9986170375907744,-5.3315036424349405,-6.906246359396279,-3.5256911452735835,2.0252099046874443,8.767707789411913,11.132380737355653,3.795666047639936,-2.261124265091623,2.9874012537748778,4.954967471460133,-6.657568775481137,-16.086319470208245,-16.231040865519976,-16.407185759151936,-13.315416254405019,-2.3275576606183495,6.071130360250612,5.664191282051543,0.6439184919948433,-3.851274258908623,-2.2181124712377,6.802977696925826,15.872443277357716,15.808371080960358,8.075828543367386,5.704265015651411,7.664148643987803,-2.6682173724227205,-18.155136417516026,-18.41119671000523,-12.261519413786498,-11.62971235676194,-0.18482439075161583,28.352196900783326,43.050401193873455,17.828150454422023,-21.88691142694554,-35.56699039445038,-32.83956610525453,-38.13268693792699,-45.331218750585094,-61.575277398538994,-93.9395430873125,-112.15663964856788,-113.3225870948832,-121.5167404938054,-120.87706234560551,-41.632251767588,239.6665843137801,647.4956105100023,706.1820299755908,222.06406865625678,-211.17350347363183,-183.66375087895972,-83.0027628340764,-154.92949278525128,-154.40650782775802,-62.053788341388476,-51.26871184111575,-60.37363447039074,-19.760424305791595,1.927348882410648,2.5668130596016603,20.28637489835754,34.17728210593249,19.670504542711747,-14.917576508270681,-34.51011665920436,-21.043224770922645,-9.297347822057354,-19.900579779838775,-27.11825746938127,-22.3997356247523,-21.688172228627252,-25.910630961163868,-23.84866541048721,-14.418257885981372,-10.272722514434822,-13.132136604725781,-6.377038156150062,11.836296863705499,27.053842851677885,34.4826216296122,34.430961359804066,29.16869581950964,24.81815168936719,20.05288477170106,13.245187054401892,4.465062336603913,-11.348963576295557,-23.484244073247886,-19.929852637847233,-23.007572730449212,-43.391818739234324,-50.599331120594364,-37.45937701403881,-29.50252642078689,-26.842993052557706,-13.341890169465621,4.14555446277129,10.209929124177934,6.538245728431482,5.574858101862249,12.590876613342232,21.106224966944534,19.164720102792845,1.3052212377259238,-17.749996970705716,-19.340248091388514,-11.369753406217612,-8.603246572388867,-5.479940197786323,-1.2476050786293857,-5.989073224998726,-11.58349869219537,-6.015561557507039,1.050101008008257,-0.6341323195541069,-5.234618279415953,-6.821572392334491,-6.53045131093923,-3.124228075252457,4.256970002963558,6.796383392967204,0.03668848784041279,-3.7499387549811107,1.6308603579452934,6.986209609126519,10.23834929025822,14.479433373062413,15.112677434380712,10.971397769807817,8.97040235588027,17.136763261220647,31.33423069902727,25.1786245339928,-9.192261076888856,-34.76831718831046,-34.2255740714732,-31.244238281648396,-29.68035276661298,-22.283410708997113,-21.12550537411533,-21.09262104656448,-9.401431009849183,-0.47224021111195924,2.6172836132817263,14.724103449927284,27.867596892537975,34.19086228610526,38.30470777090451,25.12782476896293,-5.282142700664226,-19.24830839526789,-19.958563711824645,-34.045260170981145,-47.48853082341729,-58.87328318470686,-91.49208716173123,-121.25198575776066,-129.06174626752838,-141.88237462892585,-146.5921999115195,-68.14207670743421,200.45781748757315,618.3879306514087,762.8961447043357,337.0367635184325,-166.67731046224486,-210.4797074934795,-88.62758354337959,-153.3645548597471,-187.39022181624796,-97.8604684211127,-77.47894994667557,-90.76983129193934,-45.834800682868554,-26.933571302709105,-36.68006287183312,-13.996714728042503,3.09593009155454,-0.17680947141886882,6.469330693007643,7.36177042970542,-1.6466199016567726,0.44538785066169506,4.710153389279263,2.722654186208544,1.1787648466163163,-2.213549290945398,-4.857831290826631,-1.0410012941588977,5.15201801290052,12.11142673864679,18.059918532429325,21.775752054182384,31.583165074771127,45.55300261848521,53.733110051579764,60.61115572069932,63.73430793674831,48.79219576602006,23.533958828020637,4.664581890555317,-10.99714154274615,-27.95114414066746,-38.61012359777787,-40.036812930178584,-38.637072164864534,-34.857553883984444,-24.55298729493638,-21.96290578483681,-40.96656888645562,-54.997364913650394,-40.063729231876884,-21.717519297707856,-16.92253101295259,-8.166395096422324,1.3921434685388512,0.6228803392144684,6.063249869599049,19.609204061816556,16.988954428327368,-4.890254184474287,-26.225791331313367,-30.9762789862099,-17.17658176612523,-3.167376831571792,-5.383615085344438,-11.231825400698895,-5.983576685820601,2.154703600107183,5.155981041632041,3.190667823791607,-7.624214485283378,-22.95895842375921,-27.980120078619183,-20.38426090542239,-10.908379455193838,-7.26196579551465,-10.043165778416597,-11.943147973831824,-5.749280633736943,3.1753533019681566,7.252747901039032,9.724872243766363,15.485159743395942,23.733058705017363,28.920943206897395,20.831858139835752,-1.6288549638543914,-23.019191086602678,-37.08516931036553,-52.31576071224624,-64.40701421779076,-69.2714235449591,-79.63047992769037,-93.92213579212928,-106.72818070733425,-129.12428920545162,-143.16466522134846,-89.89186897066097,123.48500520196345,525.3732786460673,801.5407290003437,526.6039552284661,-52.43829044826675,-266.81056549608275,-129.7183780369728,-114.61466808040892,-191.71431406583957,-132.56868234058467,-65.02429982596824,-75.52952936855962,-45.18193381097691,1.593152983668098,-20.956592033326885,-54.57021115050247,-45.441852300277255,-21.86390319138608,-5.371989340406202,-0.7814996767633424,-5.932218467801626,-5.555321308164622,3.051226067779954,10.580920267794273,16.663582052889783,21.161538591652032,15.959743108855394,-1.6892808508156638,-16.088048611106714,-6.544545221149114,16.67185496965816,21.554193983668576,11.073990201406117,16.268113057924964,37.508285199043094,50.87540958123723,45.03274750989352,20.525122666189436,-8.61767515866608,-22.257754662675417,-23.45625569939924,-25.091926618649445,-26.829837921379845,-32.29699659331209,-41.51410341062698,-37.15373626690472,-19.300313464659897,-6.819808390559524,-0.3926913101814531,4.201289822838784,3.026207595787918,6.298934823607288,20.301638300492527,26.235576074966307,17.75704845516993,13.537228792934677,16.75842375279665,12.641017419081539,3.2536426385731256,0.5762816530767934,-3.0170754005636926,-17.248344766977198,-27.437464913990276,-22.537375260616678,-15.490067961618239,-11.746414224742868,-5.190176808236826,-4.698446464918391,-17.21314969910722,-27.474247457556487,-23.029838780766767,-11.543557693478132,-7.547201342061648,-13.512372247690607,-15.481298448296993,-7.676800273943099,0.4865418986950756,13.874449444940996,35.28724463163991,33.43827375712979,-3.46380627679585,-31.822024786568978,-29.213593059397386,-29.54089702381967,-47.90977802433795,-62.351000500134,-73.82611951347991,-88.82705490531515,-86.01548177223232,-76.19286103616487,-94.57014234492031,-114.99685769942077,-50.73230699957085,212.94529231857302,630.9546047993583,767.7910466186318,318.7927847556176,-216.16718045589164,-268.38206229221737,-117.66885793672522,-158.13509342359788,-202.41433287311384,-124.25063253358266,-96.78045921720886,-107.1320264171724,-60.003258652826744,-23.649180864426746,-21.60656212233549,-7.014133226379933,0.6097897258998621,-5.6050400874838076,1.787008510663055,10.848892546035891,7.597274478374075,1.9179755338186606,-3.589548713994585,-6.929455730602117,-2.454001780016291,5.17307181864685,7.165469714975636,2.9314919734580607,1.0322310871020597,6.062337911412401,12.256465962502883,18.555978877637436,27.59503382857139,32.38782611249498,31.35234371425353,34.58400240338973,39.759874886146534,35.51087139657886,23.05541683051206,4.197630005400515,-23.327621479692592,-42.90155766978691,-37.7624700378409,-25.99791523460175,-27.21858373653633,-28.77770553657892,-21.577707364945738,-15.50256048667363,-10.551270815929815,-3.01955531450094,0.8183191810140613,1.2450260376579614,2.827784267120599,4.0553636422413755,6.305100416927039,9.377732416639919,7.902754248570356,4.496109362396915,3.63425568085927,3.861909288215867,6.487910747162893,10.29968752956075,10.75429827708657,12.020286875440277,18.022542293285195,23.496968971840268,19.195760129571568,0.4552056433451632,-12.309728899911715,4.192732836061387,23.405448531435056,14.693182542685843,2.012162174427953,-2.1341873088097856,-20.90927651476344,-41.27292841589943,-37.2498649460068,-27.214363246983844,-29.775937318291735,-35.081075943832985,-34.033921211523804,-25.830865400011042,-16.556471552989144,-11.094252008017982,-0.5390888454632083,17.55717539573848,28.937574325341167,20.57553333683485,-7.883681121510911,-33.14334656525972,-36.26297843719004,-39.823716566836524,-55.549423749125424,-63.617724814770106,-73.14110468627761,-91.47136631355451,-99.08967994240618,-110.29186685301234,-131.88757506374913,-121.8549964263248,-6.177171200477346,324.106332701675,720.6593655892552,666.4956563433725,105.57764075094191,-261.17957600132945,-161.03187779940117,-84.15068363452409,-175.57562347168283,-155.13304239381912,-73.7672299094599,-81.61988881227526,-75.36904793710414,-29.70624676025556,-26.40179823216409,-28.970701475479117,-6.898727054236106,0.16030078509603563,-1.6758050683394146,4.3772811564801355,2.85513365801682,-3.0746751531457477,-0.7057547093285512,4.642750453161062,7.569777427683507,8.874692740788875,7.943715687050229,6.3234037262120495,10.216612364489364,23.093331611676696,37.18259377372448,35.80074753848934,14.362930223968995,-0.7499483617785447,13.928676801162764,32.00724846483342,21.349346612137555,2.163363721406431,-3.324538963217912,-10.17123236621993,-20.523953219250906,-19.99519545121707,-18.88103404846788,-27.130228163490393,-28.6977218675914,-16.728390097861634,-3.756123209843485,8.523713309373385,21.754924454637127,16.11825090262029,-16.52144500660492,-39.69340723059922,-26.60408991535408,-5.177948228152674,-3.6217097508752865,-10.31806162541159,-10.811422447982313,-6.443619832665547,1.7767456903909635,10.507077817526243,10.462325329153815,0.6614009936943201,-7.0817502297817345,-4.404176594196981,2.9035180328819976,7.839758841390809,9.298089942650233,2.216721419917624,-12.683122003471434,-18.500094444156534,-8.31648985079181,0.8971202669391491,-3.4206793885300826,-11.859282818258787,-11.65044661043117,-5.108314544111672,1.1867715115333886,7.843714825637275,8.349148776426137,-4.54899974166648,-13.893188840605859,-5.287207702763551,5.746770110721789,8.820057717966746,10.020368247008482,6.983950087838245,3.5617841907873706,13.45170239735997,26.749238609950773,23.193180730000883,8.729364980974555,1.7085198934883992,5.528508576531818,11.376466986946758,13.18116807659489,10.965942270106808,3.0111824439317783,-12.122403191436884,-28.50352163099869,-38.53783739701635,-37.5853748557205,-28.96220888811756,-27.14195987344364,-32.97764958004832,-25.36050050184746,1.557529111041843,28.47479188877754,32.9212091525119,4.454293333198503,-31.738552355228272,-40.362519263907856,-36.63081840604923,-45.00846365701021,-53.27496999019334,-64.80553364836987,-85.35314083522475,-91.57678117222952,-91.50438054811755,-103.38816316892046,-106.12453761859695,-40.35425238091858,226.40034362939343,635.1450642220926,692.7512251981152,196.38246513321673,-235.5945439016509,-192.76436682291228,-86.1978160938133,-159.39734132117084,-156.6021516871217,-65.78736821616262,-65.54749712815831,-87.96159395284299,-56.77242105672747,-35.08838346937948,-24.797456366522248,-2.248858795297668,3.7984909567219702,-5.211485234235354,-5.799751698773337,-1.366901777414962,4.159056469876366,11.398004114360171,9.976017312644135,-4.590169345578964,-16.551560323815345,-11.358604161770343,0.9482291332133386,5.85194466359478,6.293313843977567,5.1363697221479985,2.4293406505860995,9.155054725479873,27.054117709645976,39.25989709661538,39.73254850121546,37.71490536686419,36.05129692549106,33.0051104239568,29.161752034772036,21.022404767551322,7.706902069514561,-4.516633875606685,-19.10662633182752,-41.854242010578076,-55.59022396514343,-45.26487314409637,-30.043306925937202,-27.893996812655473,-25.38307723417555,-11.7512631782091,1.3050495187102777,5.10940907743412,3.9733825356529984,2.316210818427836,1.7973861749202216,4.441650019762093,9.87987774956843,13.309396020433446,9.550492055930087,-0.011426347056532782,-5.469931546797702,0.2804199757116954,8.555883038671327,6.76291450534273,-1.6701815995849367,-8.018950633987362,-11.975363026788902,-10.320852296300542,-0.7156161506005169,5.5666003192578,1.6876341612538033,-4.260066353747154,-4.1142174807430365,4.614148841070871,12.851840888680362,7.402209973281009,-0.6085377599174372,4.6467460430268295,13.032671688032437,19.880838982712408,26.171959332672024,10.937253321034564,-19.276124078303024,-24.60783430888296,-12.606857559281412,-12.41023000857145,-6.02894216997384,15.087653795450473,18.32979221414429,3.0148151992587007,6.344644305562543,31.473192257964367,39.04155237388381,7.421028629347976,-39.29678328505139,-67.9630790318854,-71.45631982068528,-65.11664947715849,-65.79656637527941,-73.29871209141557,-82.05456359127604,-93.7170271027762,-99.87344153521025,-99.41522796182622,-110.38417188352294,-121.00330528447647,-63.55519485685373,178.8204664563257,589.702459275843,760.3287555751447,352.61658903790044,-184.07656908668193,-259.49590176909487,-112.99268139430812,-149.27705262239346,-193.29994873886045,-111.79985351568416,-83.05718527168268,-97.34522900107694,-54.296413948264174,-25.0821062830855,-30.229861101115613,-13.717684921609896,0.25581639492118846,-3.984484564001619,1.6249135492102251,7.917390029788457,2.799788105075468,0.010777215849005373,2.016470561577547,1.780339031245227,0.46087726322636025,2.311677537012925,2.9937124852904473,-0.3610670006625707,6.7480722967692435,25.550802149163022,32.598890010409185,26.75515209762704,22.693611703907578,19.79936558260746,27.090933547027024,49.01170626120631,58.34210953083255,46.02484663173855,24.704529777693296,-12.7057976990688,-53.43099238464916,-61.808597250705745,-48.653023216772695,-44.30155105118011,-44.02833311438374,-40.51559515626812,-34.51234505614758,-18.90056982519964,-2.972431841838036,-2.637975426271719,-7.800976219404569,-5.510331328244836,1.013672910842363,7.874348901547291,10.928871940108678,9.174670562698843,11.539164366379183,17.04587503739796,15.565175751666304,12.575533679832528,13.976947536710114,11.185835225477074,6.881699716472622,8.398182463210798,4.330860170439536,-4.563625987115325,-1.442612371399814,-1.2957150094426204,-23.75746773840868,-39.83402759283431,-24.009524615636344,-0.8892783138578277,8.104411293107416,11.123613145912834,10.850284675988096,7.8170576627785735,18.43151441996679,43.24943830686844,48.581824760735316,15.586862239675195,-24.052340998170408,-38.446150932311895,-43.95503373860885,-60.986158432554575,-78.42422651443538,-94.57248123496457,-114.28823362237704,-118.67937910527996,-112.91021218105469,-127.33545530680342,-144.3049505858038,-84.99762752160396,173.09840808543495,606.5246839385293,795.8938642056656,402.8223656843655,-139.7630917757661,-252.68460333340266,-131.00131278543694,-152.9962340106432,-184.4444137531775,-108.37137817639137,-82.32467048223957,-100.90170447698068,-64.39338123393527,-29.618736581196572,-24.49873103796893,-3.585959746215501,8.67517770497707,-1.4106656109802778,4.892619726841924,18.287839379776344,19.396364505662177,26.910760115207307,23.586162489485194,-16.578352331329942,-47.49089720938896,-32.519352048397415,-10.894014953333377,-7.653168246485969,-3.8897729418836287,3.155487559622017,9.993408897142857,23.859428300763312,38.0959915555898,46.02400853821006,51.18758803746846,48.62082621926365,36.0266084244071,20.67416417929614,6.999579307824901,-1.9866332255110866,-14.94054203243861,-44.31284861435222,-67.74618529853409,-57.14553483608043,-33.4108343172431,-27.19081527072226,-30.37851413555523,-26.614906983382376,-17.907668876014533,-6.953333536547289,8.133273186622025,17.51962658241329,9.1909430280867,-2.9262699879133436,1.7048893832655156,12.97159504924733,15.054179631183283,12.878469421598401,7.428481183373051,-2.77170380941516,-4.752624934319915,3.8807562332664096,9.771740503778517,8.416931970447807,1.1022229484866672,-6.556436327664576,-1.7377505890839524,9.840592552873474,6.432110520245986,-10.532074795066633,-20.65742044481092,-18.038389773487552,-9.867094443915532,1.647975704336215,15.381023555464628,20.23122446150404,9.364710356963196,-0.7613521550005822,9.137363575492282,32.262809231810344,46.09739859743928,33.8961242441161,-3.37735367229806,-39.986899859390604,-52.4162947374963,-51.281948160287364,-54.687692572346975,-63.46479321543509,-79.46202422028252,-95.13355737457377,-92.95577152647562,-87.70979231464318,-105.15396197744366,-137.8486763762514,-107.84369187574583,159.83582885551408,624.0646121971964,758.8852415814263,283.7765592443141,-205.2202836745183,-210.43756287178047,-95.8840225958202,-160.2401458863376,-166.9290214893861,-73.92192274150676,-63.4542001140387,-82.12658916950653,-59.27281695628075,-56.646470196055105,-51.55445786972701,-17.51185663986138,-10.8777465484037,-22.953150392555628,-12.460427618183918,-0.11167195953315101,0.6826633847750418,2.4373567721551197,1.4031402313106316,-4.121921482399898,-6.143159501258805,-2.8613026368331926,3.275321311661852,7.216999309749912,6.6394526454071645,7.097783996448932,12.694254792668858,21.964125285595895,31.969113961541048,39.90900834005876,44.30527525163796,44.21588741008405,38.42974317415741,24.732954817416125,2.1104327075099696,-20.094292730461802,-30.58932570767719,-34.268747663815105,-37.01965723356629,-32.708387443092484,-23.93394498707861,-19.606783168737365,-16.581403595115006,-12.305003510351234,-8.593354136184002,-1.998841916854297,3.734281396607596,2.2699694291607626,1.5944229685004132,5.64522368307224,7.5414459183797895,8.448024293684206,9.13110172359691,5.208244295810124,1.693793241974567,1.1746451277161463,-1.1631181843429008,-1.0973191557942847,2.3418327868121596,0.8777046913307527,-2.184928898672553,-1.0560396828903824,0.5647318215044077,5.216007281411131,15.282608411417193,19.737498075540845,11.96565316536607,5.039486981844788,15.367678662359099,28.13260099462954,11.838466615983332,-16.313500710966153,-18.469154080615695,-16.413447411954927,-32.68163439040858,-31.82905807949606,-9.158686678791758,-4.703351750102527,-13.48486923613996,-7.930929283652686,3.817345173484208,6.987861444360616,2.4731429235202,-3.49045139834244,-7.360150942215306,-14.908928901743906,-24.258232610496858,-23.265891500756425,-16.66674902311908,-12.864580363862537,-7.411971226717588,-3.087853562706602,-0.500612439247039,10.675030033810495,26.692883883604736,35.37980503554956,27.365502558880458,-4.45687632711028,-41.01671313294851,-57.72838304715822,-64.78319821992288,-71.76007817595294,-75.22709477753773,-84.5405243119901,-96.64558327926252,-106.15631660963541,-125.69677237269444,-141.26873126573406,-99.05124618744844,113.43824778230808,533.2901784011476,785.9927013708717,445.92217618738147,-120.3219329231088,-248.77850546686795,-94.10939061377937,-114.67113870364145,-182.45457301912342,-113.67467227087167,-72.5040148796513,-88.22727551797871,-53.540243797462566,-23.12914510850153,-32.232673665105075,-18.60376680460677,5.923428640309075,9.216589600740447,14.335320193570066,23.552207126581806,20.426393779109713,13.41228392552981,12.532260081522452,18.585933805944958,27.291276853491066,18.52184015078731,-14.210637056246446,-31.61107743459046,-11.000812719750645,1.6720293473320664,-21.17414162286559,-33.84310137215717,-13.455457973636255,5.654015677115844,14.945739365907173,30.770537984908117,39.63076577579278,29.220962542168223,15.369393891155845,5.414763765378817,-5.005412785265168,-11.500375183365751,-17.08570256102722,-29.984028538481127,-37.499162260129125,-27.13441535273226,-11.676143707381657,-3.017566595846798,-0.09040071078613732,-2.2828062594043974,-1.1993643825710798,10.383590758660802,16.41997774765973,5.677223982404282,-6.808316345744366,-11.173663772190807,-11.472598380575375,-6.779076211031146,2.3540838554828514,7.361117087564448,3.4696156202476516,-4.286731866195861,-6.829855762885771,-2.4732790130606546,3.222210765812078,6.960390327560511,4.204374809299328,-5.979753729527361,-10.453387185036064,-3.963651573326482,1.2810517217152841,1.598926330147879,-0.05262260881859193,-5.57779111482163,-8.249442700020039,-2.1636393426660283,4.333928734742269,5.860947440245679,1.699221714659073,-7.420092815701281,-8.816426210885112,2.704418017212795,13.139762355453346,16.81803585133892,15.463791789064828,5.077515068170677,-4.158976640091073,4.335632368389832,19.21589737801886,16.7877776840756,2.2563964955098164,0.5981800043554946,12.33389735599152,18.10203899072617,17.788739939537127,12.35618525577744,-12.280334908355403,-37.805753441577195,-31.415076322078537,-8.72955456080306,4.086239995624766,3.014530964959011,-22.580758802113827,-55.98027717569016,-52.30337076401062,-23.166015525341166,-11.407746509345621,-12.929937899979311,-13.085527395520767,-15.663419766101015,-12.497525005539348,1.6365420313845256,12.712014452366706,11.947442871522064,5.50494073179696,4.190693097940919,6.285869346972447,1.135237684204407,0.9962008297618921,18.688286743150776,23.482092833477466,-4.976314273300314,-30.107633433306937,-31.737202352906642,-37.942283690967756,-54.30114756782322,-65.33221719858312,-82.05418042798249,-100.42680129897217,