ECG,-3.2902049804393005,6.493893601194126,10.41637434106739,11.307256744578275,10.246338937035055,13.870479772528371,24.613353593434265,16.873053412362676,-19.727951835678184,-46.68258231467525,-39.86862184881535,-22.39813732473373,-13.839441989510707,-11.30534964074887,-11.392779830488465,-10.258286028719835,3.6031208201946505,30.4829858569198,39.97201931920492,13.911203281430502,-14.717480545519015,-29.467335206642804,-53.60446452440732,-74.52003484088681,-78.1488447046848,-92.60095537465571,-110.95728814601796,-116.84415914573285,-130.89982585593646,-144.4027795695732,-121.8546952657565,70.5122310367268,576.0126064092398,984.3850723183041,636.9641190680901,-108.39049718067899,-324.52646986630225,-125.03103980309518,-144.050825852938,-247.19831830114987,-159.56279438550757,-94.921129373311,-120.40673390740389,-84.67482766685339,-41.6963593265288,-47.02013968034285,-27.485900141200037,1.7474535219249834,0.2014357403379492,3.71161595046598,17.976610768894904,20.57223707966071,22.59489836750179,26.805959802930257,15.816476110505791,-9.07099382892321,-31.424575388136105,-39.417752047569934,-30.280549180897633,-15.846731710687598,-10.84829825950823,-8.859706014574373,0.4421947684277008,7.437470203298462,9.306132575884963,15.521831990231778,18.16443926599815,10.699202484002699,3.8885240440700404,-2.648913231349985,-12.518881189869726,-17.420668286569025,-16.54308960900872,-10.840627279183844,1.0399969004714125,11.34451282739212,19.74999445008864,21.26579002541257,-2.1791358800153127,-27.13808777668866,-15.055152413670132,11.013544805033293,18.060965314592295,9.999413960422327,-13.431697962997696,-41.51855564912738,-47.97746940091139,-42.29902771753497,-40.28240988780563,-31.999488409109965,-21.9979636845641,-18.36514211795866,-10.597760736322822,-1.8125745851037252,-1.3078672822645636,-2.763445319548641,-4.25241415140291,-5.453539890087601,4.763360132743336,25.55219874782204,32.17156918178111,7.449605462072075,-24.348623182186724,-33.2821219914171,-35.70635899453646,-49.49619777126834,-63.637366242989394,-83.06442223506143,-103.37494507830755,-103.52726826274957,-107.28694657633056,-131.87830652030266,-148.0552137934735,-65.93578364764552,308.8630687839345,858.1382247093513,893.2927488616809,216.5656135736312,-304.59758524183485,-203.42043934021248,-74.00882273503201,-195.0777364972652,-210.07925473485068,-117.55794736074623,-131.89744778717858,-145.4600484214839,-84.26518600897683,-53.81156135601185,-45.774882903610504,-19.665323230286553,-15.363518239976344,-23.03544967022929,-9.82502817242014,2.814558773591763,3.8910118383055163,3.582651135256235,-3.154352952586539,-11.119734865206862,-6.057447118274885,5.394695159633873,11.43633454197951,10.741686304880044,4.935238878845694,1.8977199467277583,8.923502383754563,20.688194706503523,31.580375350143644,39.40962296281547,39.06328111845181,30.11696580353069,14.746797279097358,0.49620251493510015,0.7656975445100365,-3.8810664358408538,-44.13609253141256,-82.96395443881696,-69.65152675134159,-34.04120740463043,-20.518083788991902,-21.275567551027017,-21.97516739177466,-18.99749050178611,-7.724869652414643,4.457586844579513,8.033572410257573,3.0859754529674195,-4.837729771305158,-4.099989548581876,5.110016932844614,8.96702420025147,6.957203944624372,1.5959615235831102,-9.666385717214679,-14.122523894092476,-4.646606940104318,5.085856944750813,9.044351908954138,6.633584231957113,-2.160950001252438,0.05461987312279204,18.50584987529686,26.72968803452772,11.851873970578417,-8.640358088451453,-15.344122584490984,-4.144673383937501,7.119254050408322,-1.3593447874411844,-20.321774427003056,-31.15751449745177,-34.19771468165253,-30.53236308204336,-10.368479710562163,23.317849315780897,42.28126534496196,25.205178097795173,-6.678792067878568,-22.041338622934134,-22.45148438727864,-18.441710715318774,-26.74559485041663,-70.55290639492898,-109.73412848479737,-95.8785309730765,-86.82360053461417,-120.86092377924015,-144.328941675784,-107.2114759802187,135.52487945379056,623.4398605404249,835.1711887985794,366.3230561666749,-189.27335229926905,-225.7072665797928,-108.28385103860855,-188.48489104711825,-206.77174576467033,-104.80995617328614,-94.95839645103497,-118.28648221956684,-73.84684329362561,-39.07470605242,-24.764150558770524,2.9047193111405356,10.164371788102603,2.1033597887663937,8.534377294801455,14.627775529587616,19.345415481030862,27.255982141309484,7.78355284733642,-34.94432997056708,-47.722670893989,-23.874310544164455,-6.860560836797831,-6.257939819343999,-3.148591372494206,-0.8142045561882139,-3.1748085084953352,2.794417110102597,16.59342740262959,27.07247816944426,31.621436503477625,28.421643033952577,21.720861639897215,19.83683952870917,11.691941332887499,-9.757930997083776,-23.445636639264492,-23.580604224650166,-24.851905437166504,-17.357805981020498,1.8046403608623418,-1.6656397280247788,-30.04689119902501,-40.00181050406824,-22.827021525948744,-7.298589924940433,-3.1897034682806833,-3.259920277652247,-3.1835216350481836,-2.346634119097679,-4.285143339576941,-4.930203991196166,2.94966950038576,7.560253448477392,-0.14463144746694923,-5.9062885890582635,-3.9157893625034994,-2.0610015938191344,1.3130039290661295,3.9301505081997017,-2.096109160316975,-8.068099565173867,-5.338612019788997,0.3698380631158078,8.565246158859974,17.10172550501965,11.073686271140922,-7.164876816563567,-12.852769796296291,-0.41387717684276604,9.41136747979681,7.635681825251661,6.614314926513238,10.405625710436746,7.854411237384337,-0.18194546689135582,2.3339730389368576,14.829544554916735,16.361166200661888,3.4077518937757416,-3.4148140804114036,2.8497613503642203,12.109184166505365,19.996406798119285,15.149220705330139,-11.051106147234442,-31.421405118753782,-30.849498743279973,-45.85422864952982,-92.17200748670052,-130.00143471245875,-132.30307129534418,-122.93213982827035,-130.84379522542966,-147.4442603780072,-151.34742336507216,-55.3436581796704,314.7671543744541,796.2329998648403,764.6292115648322,133.7618167641835,-293.7333327045572,-183.76500122432492,-85.57203424012677,-178.85777397449823,-153.81836490649562,-75.1187141098168,-110.68130524925812,-113.8707711579217,-48.21751585842023,-34.46854630458031,-37.29600065478149,-10.077405673888835,-2.8980759364012734,-11.402611780021143,-4.276293467660196,6.1841817506986345,8.690843465168049,2.177140811993974,-3.38819398509042,7.1296972679895365,17.78374778195939,11.523163555524924,3.1234070264901237,3.1315416894488948,9.912887674853803,19.518939597185938,18.65946078014902,12.949082796300338,21.3092586475493,25.92187739670928,11.417532682759079,8.378728377320888,21.684015518405882,13.13042184066613,-14.047223120784452,-23.354935697641622,-18.12578015160765,-21.381345066699062,-28.112566761712923,-25.57459237058676,-18.4409786848388,-13.0046259826459,-5.02122135028487,6.649495548538685,13.09557244131153,9.845263907520867,3.690027983506901,1.3275891550411538,3.8572764779061908,10.963936865006417,19.826217569575526,24.506306875211624,24.68853257483469,25.36666016051332,25.352990707873232,25.655946877821712,33.03295563528134,30.07932680897504,-5.309230305213859,-40.38995426153472,-36.845680459426035,-26.73321040339041,-41.40291039315024,-48.88030166876537,-30.256959183331396,-11.052538579720348,1.0758337380831389,19.63423152476243,36.79877205651961,28.693597928124632,-9.874226912168105,-49.99741678311525,-54.57742163781113,-25.343756469497098,-6.943414108511178,-29.462549445100144,-62.78641005636623,-55.157166991596725,-8.759401815941942,19.646993366396373,-3.0226887788770114,-42.715818149149406,-55.28626317587596,-49.66613688735643,-52.01854394133349,-61.11478587117387,-75.6894606480982,-97.94250929567653,-114.99807777729917,-123.42769498334538,-133.38389256456256,-123.8730617260262,26.896050575421043,435.2221279886717,818.50475354498,638.970904084506,28.50283416694571,-271.6446368390478,-152.09682446224463,-117.31021304936883,-201.303877043347,-149.90045155483784,-74.36072715725106,-85.60380272081646,-71.48396576539963,-38.30094313273665,-40.505774548284734,-25.464751818492797,4.142303057197661,9.036854379519616,7.107982222246009,0.4384182414711244,-10.074066450795065,0.1434011807251463,14.751302160997568,12.685329291357437,7.626018397156305,1.2412148781584418,-3.477980169427209,10.036661253652259,27.295993693198994,24.66758191784921,13.167288936082965,13.210881552632483,23.42351573868166,28.607319957782384,27.127597110353058,31.41733745033428,35.07520070938075,24.999965452287704,16.54967121414315,24.926647142041016,37.70002615767094,35.908213407458085,5.690077708571636,-45.524160415282935,-76.08110997814178,-61.00109263030367,-31.44207875992603,-24.578235604309384,-34.160763922647625,-36.65905418906397,-29.631084466812815,-20.79113608129147,-10.926019335822438,-6.76259950353062,-13.804907775190571,-17.29228992060687,-9.193762192808961,-2.4917283582814065,0.1814784229006321,1.557832061268389,-6.481097358131393,-16.00533039068357,-10.752121062594078,0.43328404940230136,4.967921717086217,2.0098236232317284,-11.536720503590708,-24.1149616788691,-16.741025301078658,-2.3321805994270903,-0.8626942980605072,-5.22060633450749,-7.899037332081832,-9.552669927381498,-5.317736806372428,2.1600075394826934,4.6921875113369635,3.776311073956657,6.396846021806198,18.356772090768132,28.754105980164503,15.794371053466254,-10.2004138404963,-27.06554772616098,-45.10824130369134,-64.78794571669877,-70.50811170944542,-76.83057980333135,-89.86930402622654,-99.08155218276525,-118.50849376396694,-144.1758498426804,-145.167518795673,-25.649767960651474,381.5680369827544,864.8638466434405,768.4867258564279,84.80919864025758,-320.52229307621394,-181.27509619742835,-94.32879430870761,-199.00809096689989,-170.41148158162108,-78.06846048608908,-81.0766850890554,-59.80795953244521,-1.0412113943248826,4.8733978186555085,4.629736011308267,16.759901369069564,1.5898889940324583,-6.522099874963953,-7.884583756582998,-43.805089054968136,-64.24057750108895,-33.29627477010192,-11.524078082983905,-15.112317922311686,-4.821526589576196,6.710419670789171,1.2362322904978535,7.882529333678816,32.04443340032632,41.1953759082348,31.234030825361994,26.200351022920557,32.38240619929394,39.855846116692206,42.98917693883007,35.561239808027665,12.282944520415947,-18.421568027208288,-43.57406494117879,-55.8904401138717,-52.507090018744705,-43.13236766107098,-40.20512178421628,-37.99350089499614,-29.048493165729425,-17.60288790903671,-6.874413774070089,-1.4370276423391424,-2.044034398966872,0.6594885265051147,2.1466818749578884,-4.803333268952716,-5.396611537994897,0.9859217116044476,-2.3572866895655675,-6.741911178678054,-2.2675901343244123,0.46822195342712014,2.483671421865094,5.705450022882634,-0.3722872110142621,-7.989828535282278,-2.9083712353208364,6.611738353761197,7.88894549835538,1.931824675149464,-0.5630262519335458,2.312421488645911,-6.077427444855269,-24.870251651607095,-26.978631225208286,-11.344089437597065,-0.9676630322311501,1.4547603438321115,2.7801729320200845,2.9470399079536325,4.92996227114013,7.957442418218458,8.700729658221023,14.45991954594557,25.675484060060434,20.875142911758235,-7.644293811329284,-23.12261874560897,-0.47638665902608235,17.764977201953794,-2.8952956891009265,-28.68690807091076,-38.22506251287297,-43.79053941138188,-40.88907270583667,-44.572030453327194,-69.17165704662727,-81.19938815076043,-95.51183067263241,-149.84111216573922,-186.81787917060808,-126.15621548704358,138.5317400783207,620.6984693307191,850.7086126736738,395.78919528535937,-206.6315921099668,-264.34910939298743,-94.88854641196708,-152.83735935420594,-197.9820552164719,-94.09647865286007,-64.76031722479192,-83.07072239315912,-26.206784256273437,8.400973528687068,-15.902571467706789,-15.325033336430035,9.14926203058585,21.49341955418705,21.690095766362305,8.388606702555593,-6.875436051304266,-10.869955845835745,-18.085333971291725,-29.169201835046508,-22.832699337372837,-8.508116093458609,-11.852951106459027,-17.70263933192906,-0.4410754557563239,19.154316126470594,17.984052454920203,16.786035504877187,25.946523143569294,23.502709373866686,11.503029142495606,9.26094442448163,7.225032770830239,-4.784793321299339,-13.567954557703551,-17.743224258765903,-25.225284566849005,-27.940432049961004,-25.539488148294772,-29.245001398338395,-30.19623094949937,-16.640039000582235,0.5593567609954269,13.211405296667209,24.33562288651345,24.548034114075236,2.7979006875845176,-22.720949152633032,-21.79980001200272,-3.25154176101874,-3.2086404981721035,-17.732582554323926,-16.5466479351847,-6.513667945250309,-0.8763180136299917,11.425611502766586,17.751489446411597,4.533465485980145,2.2379134819879587,20.764067044627566,35.455594930733916,42.79265233123057,27.63734001194333,-24.929794555875187,-58.342042518640184,-32.896740766598064,1.8247289382515222,12.793653526923997,6.125123072717184,-24.006196512490394,-49.02130626980727,-29.810283770446077,5.455340898063103,16.336486512168662,-1.63260044816003,-37.748535112595974,-54.62774583558467,-30.691574355677783,-7.176267631368695,-8.875556779652655,-12.097074638575807,-8.94888587564966,2.2803250127006436,27.727820852894155,37.179217240351846,8.570868082937654,-26.261022880038475,-42.53878265073341,-47.64063895745887,-48.84414700723339,-55.774239705332505,-71.58568052209776,-89.58285246862073,-115.96810063203665,-146.5562866553101,-163.01357693101542,-94.54762590236629,237.68125626742102,745.6397468386092,820.2861756902423,238.86015350168782,-256.6951435010059,-192.60615051198198,-58.14206075014947,-150.21163567877463,-174.38283637955567,-86.45588997257805,-63.33139304570798,-50.5463420248606,-10.911055520862504,-16.103147215308375,-34.89514871275752,-40.46219471245455,-57.136354886933375,-50.20177584248946,-21.060967517849768,-23.46191098827772,-35.01193852620871,-19.759628057455103,-3.231577279472276,3.7296319262703648,9.811205902023138,4.24084775787966,-4.669087619621246,5.89235094236155,22.31063189526975,18.395335865691145,0.8798949854194067,-8.337287402043387,-4.027829497709258,8.488010461328491,27.212637447089804,43.279957855202156,39.5013622028655,17.127136073555754,-1.407539103502176,-2.9361243065795044,4.628386868560229,-0.8098520253869985,-34.855174952845715,-71.80300219512317,-69.22938331779483,-37.14126691006754,-17.60252476830574,-14.84440924715749,-10.950826843147263,-7.2648535998380765,-7.250840984612786,-2.846082719387451,6.399697892051073,10.026231284453125,5.723683245825383,3.866274105995713,7.1143810844239175,6.594100901589312,5.884633495145298,14.070678485937215,16.263844928350515,-3.8279754004752,-26.177316436456756,-23.221675437745855,-4.961471496580393,0.4293894649075254,-9.453691061750344,-15.212552838667557,-8.571040451300085,0.6552255799443061,2.3083799229288946,-1.0177558985031094,1.1835511122471885,8.39614064276302,8.211446144564645,3.298602407982994,9.371170008023944,21.140051031925218,25.02933896170846,31.353346537407475,38.98502177049075,15.592754167170353,-31.564608289681967,-51.562170396527904,-47.48352263379368,-59.401870561348005,-75.40900673721598,-77.51739398951919,-86.2487812913729,-102.31050494041743,-113.34775039549857,-126.62961841098176,-137.0333937060326,-78.74441172642264,202.30220347247902,674.8237465518723,826.1394245007226,332.869038449092,-212.46802590627738,-234.05171534046264,-93.97705963597868,-163.78660751253307,-193.9800632200726,-94.94705341562836,-67.43160287061683,-68.9337759739611,-15.672103951716263,5.704031599065921,-4.18258944028039,7.35494339189589,18.90196552503256,29.05210068855,24.504165682005727,-21.22915077125146,-49.863302614758126,-33.44662042110882,-32.18016575277221,-42.737526282178266,-25.886911480464878,-9.817995471085418,-10.009456418031462,-2.624268134113338,7.852651716330843,12.859317189583946,18.085580920808454,14.772910435985768,4.655400375033383,7.489435683442245,21.07359305824441,25.540797486134842,13.883257963393905,-2.505369936057175,-10.052665979988147,-15.424814779593337,-31.384809798064712,-46.4964216489233,-45.63353775812147,-34.28562351467917,-19.72210695416748,-5.715535715972935,-0.2879849487639987,0.32401583261249556,9.39304676652414,24.893647435073586,36.54441000018622,40.01106384350949,24.400937217083396,-14.622112375644239,-45.191557739064756,-38.46920755062662,-18.79327674463745,-15.677917317219052,-15.97649363903157,-9.347468564645471,-6.2065445815868205,0.19799798680602976,12.16829635784105,4.999509196798048,-19.839013741251446,-29.84029376302559,-21.754171547539027,-13.278214275433111,-5.602792117365972,-0.8584519531899204,-4.156519574169748,-4.955801957996304,-0.45479953490727887,-1.3619020480363977,-1.9849311688020093,6.092908032324533,15.707757413433711,23.773091566398584,23.70544212223899,4.440214216600783,-16.794083915610468,-24.2745414724388,-34.58988810093834,-50.111471128431646,-61.52171019888109,-74.20584754137266,-79.65158047007637,-83.97685060368975,-121.37723935326795,-181.58769944858597,-176.8170252941422,79.55815663467999,631.036293897656,947.7903663492516,505.1768638205426,-174.4974622716796,-292.91831034502474,-101.20212990738219,-124.48148061140564,-181.2384667099891,-113.77941990589933,-120.14478699644471,-152.34398667906618,-80.651251103041,-29.211796516269708,-42.606897821621466,-28.967046677848295,-4.665347674341108,-0.07309734301991888,17.706142089004597,36.94278779398417,25.48472430098535,2.0210126725140043,3.2354641629119953,23.88246808059442,25.194843090288472,11.699993638780489,15.032112805150597,8.012707466155087,-28.588551621320228,-37.871810511362426,-3.9566219440706227,14.8362564272556,6.977796604596033,5.311763737687356,11.196840390230932,17.849174286071857,22.867725343677492,5.4761510446221315,-32.18207339632336,-52.22246380108779,-46.40988855103426,-39.02268851069209,-33.117916721131415,-23.64749706476475,-23.076049954412127,-30.120871555569636,-26.63111474553023,-12.744841769850833,0.3483687710384249,8.967662570115465,9.13867859236842,2.2839201070715234,-1.307161169533849,1.690994557881126,8.378611654028985,12.653761756551983,4.937686788505049,-9.14479754433648,-13.59943850916438,-6.635328547941531,6.426923314356691,14.880915303251474,3.0943896878246964,-14.533288432792176,-9.838172276501442,5.790458379016288,12.364682037433889,16.807303874928095,17.657858202738595,6.714257481362736,-1.4857441087912422,9.142221292527802,29.271605306623016,24.834158441040593,-20.179414773864956,-57.940800719657204,-46.22361588793294,-16.520296871777614,6.873447113713453,27.82155608858337,13.8758130056488,-29.56114402018921,-37.442663979567634,-23.576463260127497,-41.83763312185122,-65.87165153253363,-73.45761297080699,-87.94688351737489,-102.79302011533139,-106.93431000866013,-111.50209902107407,-119.05397309729949,-51.57843775999588,281.25507794876825,774.9585143049949,808.7574384362586,199.60325611967312,-284.30739274058595,-212.55532920913396,-93.20613482859635,-181.42296352834035,-183.45531662961614,-101.04115322099977,-109.0156336347317,-108.60187261289586,-48.48720315243136,-26.118416538644563,-22.293702408663712,2.0553101286220627,6.254369275079808,0.9505560957950951,17.58806095463347,31.17211358969219,26.00652726280371,16.032255369866085,9.091382505607843,7.890910896855225,7.7200128295751504,2.7738085526107854,0.5456921247379452,0.920121941557408,-5.724355121729534,-11.131490575230302,-5.5077638520362004,1.7500581881705974,7.203660557819791,17.624350357250748,24.84420829387569,16.620110031138694,2.1700682872823513,-1.4999756269637903,1.171503839436415,-9.454651664884949,-34.35888114041538,-50.921818868492565,-45.84390915038562,-31.55805790950604,-24.525157346469996,-23.10202280667313,-18.547337016886665,-13.951739499705324,-9.925172233300938,2.9823938210332472,15.931816676783395,11.0638763135826,-1.6289596804586148,-4.692346586423689,0.8308918302250818,8.75446718742402,12.25469779281752,14.103031199126415,22.366240435914595,20.592592082507473,12.186898019749423,32.50827687736833,44.90081783718292,-0.7917739833043456,-35.04011019331802,-16.095551025504463,-18.73187055110121,-42.332971810209614,-28.875119229484824,-16.923011059839162,-27.796497380462824,-18.034892969069467,-11.411178230589918,-31.720792104351588,-29.18891806273524,-5.069106284909461,-5.771702708569045,-14.990760691523517,-5.733786135886948,3.6711789778998494,1.8130413116738868,1.2042196291243386,5.723218861078008,4.689485314881412,-3.5301407723738265,-0.8093038903939724,21.182121786992152,39.35538403342397,28.330017448343767,-4.326384739034825,-29.255873938785744,-37.08312086424806,-42.653042469944225,-53.919870592873146,-70.12306624890435,-85.83675682073542,-93.4021504791151,-105.16910993112757,-130.28947505984598,-148.42719620357556,-86.93090825400557,217.10490519890246,708.576890398924,827.858566032548,288.279968487727,-243.52450569101524,-226.63458404881322,-85.7278920910212,-162.59490970332942,-184.10959665767396,-91.13346836489202,-81.6078136178954,-89.35541690229064,-36.599205307667305,-17.008106832422364,-23.67046146688358,-1.4975675887188693,17.52373169349704,22.6060895887958,24.778565326690533,15.973986692438181,14.227945295058209,25.033813884351336,23.862276212114008,18.703229181725384,24.07820008806776,19.06864447595928,-8.290105477136521,-35.82121649346481,-34.71784089424703,-4.7515679550859105,13.018818444074478,-8.266171813702321,-29.875162907586333,-12.8273918788609,12.67183764079332,8.31539808877339,-8.942652386762337,-15.705881447877204,-22.126490671338424,-34.523459951400035,-39.73441704714503,-34.46972662333875,-30.77854738249688,-34.61840489847678,-37.072090219236784,-29.021499368163454,-15.770342627438268,-6.302883161452357,-1.1273078764448314,0.06007559322012668,-1.029011876807477,2.698846130487256,10.26185559101934,12.23133700659006,6.476864412759749,-1.7227217360922005,-6.28283787312561,-3.411823743422139,4.46167355136056,11.413405023433501,10.930095838734152,0.3916160097585104,-9.335098120228322,-7.057471570378704,0.8839428135556497,5.344195987752901,2.7329824307677173,-10.155986547171604,-22.10337240528399,-17.50837249485999,-4.7797541150213805,3.04383187280445,5.482148984473879,-1.7612101066559749,-13.514774432452025,-10.456106605489925,3.583764852696379,7.315636105862229,-1.8208394440592635,-12.395007601933658,-13.184163444332206,-0.9164282633565177,10.873281682262379,10.574556195171223,4.137889552909484,-0.3664248083541837,3.8583054470072744,23.046894874781877,42.63489703958321,35.13359651285553,4.185376864020283,-16.9724417029474,-20.561817170054276,-24.12171812590614,-23.78446719967864,-24.508253747150782,-68.31708490857287,-148.88019941048148,-193.78593888007842,-192.61526161534664,-185.60935305749496,-57.437919232864544,365.1491239073123,812.8304989044155,694.7870993428892,79.81489931540442,-273.1602824147704,-170.3411585086588,-113.82398732068995,-199.87775281757106,-161.95730713557117,-80.95774523335407,-87.23452056131723,-65.66136828771752,-17.328448853697456,-22.556633200663224,-14.635772290990014,24.283517758345845,24.041559549408234,3.723606324585125,2.393766456738378,2.616508203473842,0.9002377105130339,4.853655774567464,5.6544301654328954,-3.2768649535630736,-18.77392674766035,-24.499653035134212,-10.86909093995417,6.907063208853818,16.419254492692023,12.423168102806258,-6.797308599549714,-16.88469320929462,-1.2236799820028974,18.27833596373437,27.821493302466457,27.757249330038267,9.988970022301864,-12.211303881928716,-18.560194445599272,-20.982231908014956,-27.772125138492026,-29.478935222275986,-30.370224576998453,-32.064709510232795,-23.58445492025314,-6.797682030331973,5.843929455789292,0.23959256751268398,-25.161362438746274,-38.73517286372867,-19.05771888724496,5.806038247330195,12.853825713474757,15.487363240683266,22.168638297575953,25.624094319120374,23.857515661376944,22.707051237723775,24.05532728463641,15.911694311670512,-8.031573872224216,-29.042584213372876,-32.437364288820774,-25.253401573430168,-14.745108438526474,-5.828663310291306,-4.569514198609976,-4.955171760309727,6.413119446158011,25.518153580829164,24.24078989390097,-6.610379827997381,-28.118933344152783,-15.796090170175734,7.872115166963393,30.009065515883368,35.134688986765596,-9.313573146791278,-66.25618486845318,-71.6875995522627,-58.019823211531026,-65.46460387681299,-66.72394090873183,-72.18056308135556,-103.886836780773,-119.09401229766955,-110.80319017512768,-121.09435580140543,-138.06044035538383,-65.79781780945835,256.2764688473262,742.6052139775458,831.6306047644856,275.9969664247551,-249.95605792589618,-240.80890489588774,-116.2575362039849,-183.71293151997,-184.09785220967478,-87.96462542075909,-85.92270888905739,-100.63810173805706,-53.550963302706656,-27.93799501102017,-18.407954884707372,5.731865377561824,7.7143778347760765,4.677952067661606,20.463023724766863,23.608366476001763,13.272640930258355,8.39894521823656,4.982865854880527,5.619551441037602,5.903550801039242,-2.238196367603689,-0.6980378884378831,8.081786304593926,-0.2150267089638156,-5.861976937366885,15.148261912831892,35.13347257026734,34.003826907236785,34.33968226095835,46.65524337471744,41.70982492476157,1.5433434690895567,-36.88162042203574,-42.37401132900385,-44.56924816280318,-57.366966500727855,-50.80306541879789,-35.37189823697078,-37.55567005731584,-34.21642727305024,-13.895659369593737,-1.3241997823416511,0.20376871871475188,5.3172747708844765,20.68277813349636,31.681124081105004,5.532254631149492,-38.24452724027481,-37.165645515528944,-5.821831140787026,-1.4226787559556442,-10.65455597016612,-7.302382684530368,-7.2650935960016305,-9.96529562482074,-3.6134066807166487,2.50777619698275,5.042388929547137,4.419630932545393,-2.0163470110507316,-0.2205107430608395,11.523461385800008,7.422373071157402,-14.04329281379025,-25.238762290349424,-17.677549438540026,-5.428303772596523,-0.0017670654431913846,-4.989600951163029,-15.924734529303695,-18.795170505747308,-5.946523608793715,8.263274770605042,10.195281695580997,6.745354916418945,0.8115047525136534,-8.564085665995865,-5.847563920673809,6.764427938720403,5.069702370587975,-1.1541270997312154,10.07047446216239,23.120384015787327,23.17884143959254,17.243494687933286,2.9418679072608693,-22.076712883427096,-44.41570498673079,-53.03452631715351,-54.912076706078544,-64.4307039461722,-74.19868354965902,-75.95413095075149,-91.24686559857227,-123.43070863622965,-142.545885547966,-53.20893089934604,313.91414000922794,788.1850075539436,742.6994298463111,108.47217399635443,-301.5040723255761,-178.2883443597684,-85.56356469458494,-183.42490717901114,-152.34942234095539,-63.938644086142716,-88.92888204876039,-83.79393718525972,-16.885027238112123,-13.209777847419218,-34.14204249439133,-14.276083733091342,1.4543978777191704,-4.946669712968877,-11.277325683986863,-15.298210235210291,-16.91453960007017,-12.31052881703726,4.0691575708520915,27.60909280702302,27.477317804331417,-4.317323994518414,-30.559667380647554,-31.043274325104157,-14.4879077583805,7.390866448944913,6.92135763219323,-18.652175858520977,-16.273937014088027,22.005067970364983,37.92782694658355,25.702193672079463,16.739595488480337,-0.9645174251268394,-26.09447166513984,-28.19061241775268,-19.534877684179914,-24.775594853248094,-31.297526458116323,-28.539935376008764,-26.004938348810942,-28.306489094611784,-24.6763520128204,-5.410190245644811,8.673909748994422,-3.530799949445017,-14.361135286371209,0.05386101161034862,15.157677645830873,14.389978964935715,7.867051222788091,0.8587006471590808,0.07082932641313944,10.471865791592961,21.206230480567022,24.744687793201795,23.393361508667716,15.803590119099004,0.9196778378269364,-9.793979470897508,-2.607354886878655,3.4979298005160047,-22.159761517712155,-50.59166138527996,-36.797240650977635,-10.638665557996081,-11.859020069912212,-19.36682222736624,-16.279386736336924,-12.35858697489757,-4.165748141061403,7.126246556576801,9.062960954562783,4.437295384581571,0.9550016144273719,-0.6593444101533064,-1.8946386289069779,-3.791273912580979,0.9854521189596992,10.00147271584584,2.294228082363569,-13.676450513204678,-7.601764739015277,9.616079465844212,14.883076849904114,15.893391596930616,12.047326990816227,-1.1319166035661536,-0.7423857892930266,14.58774509609288,12.737732055028072,-5.329567993789418,-10.025036890351206,0.4909858086370198,12.262902565717155,29.2411079368918,46.929687599786874,30.94616901814484,-21.696090408847965,-50.20609411185408,-25.51548163633885,2.6512021670077885,2.4834115490656323,-5.458027211159774,-13.808049655192438,-23.582832567534997,-14.649887544713451,9.457358447112833,10.700271347883172,-16.366215178115223,-37.570622694604275,-47.145354731261875,-63.913974818749686,-79.25117291164668,-83.14205456835758,-89.34600319584447,-103.64656448022103,-122.857786640701,-140.8535024528836,-144.8246389080671,-74.87524139601584,228.9526651769239,715.4066387969197,832.9912696799427,296.99572974078563,-233.02200766230902,-213.994350400244,-72.2220090110776,-170.22400297620567,-223.53250356007396,-127.1856973763011,-88.06473252475493,-90.84561717851089,-54.87982388500591,-40.31325084857289,-40.887387371302324,-16.21029504837313,-3.155753874597222,-5.9831454093325185,1.585773378380079,3.4509063865453076,-3.056315586793625,1.9904855501063201,7.705851760061499,0.4638675333552911,-3.418795447139061,3.646577232400724,5.025882079205429,2.887872492906636,16.814892551256584,33.61005367237502,30.56858906436683,26.463789397888064,35.55770990652878,32.76873545964563,17.68490572406154,22.03402025939701,35.36216305562639,22.178973499317678,-2.794146263528188,-8.329235806118314,-9.866718846194324,-21.524623616683602,-21.81248941012464,-13.920210521890686,-16.02958656599926,-8.331517678081834,5.535982136208585,-15.374940160437077,-47.30815943786291,-40.062566196120926,-18.698824708020265,-13.196691919995896,-6.627850954059607,-1.3756275232658126,-6.455421958693108,-4.043724973526484,4.554693199660736,3.1526872846915848,-1.2535560403253223,0.6247525497082691,5.09193849695146,6.2913734047736725,4.50425281779483,11.39160430202308,22.135507353607814,10.56578387829859,-11.22132563823804,-6.771271653233977,8.012963808203352,4.547714521001996,4.609907776568745,15.495659264641025,2.4761343912426703,-25.837489794768743,-24.751530098478977,-4.17525124259618,1.3586421017336798,1.9576825619633773,7.409535015415241,2.1914124377310316,-2.5055070471343646,7.626878301827121,8.814320427509848,-5.44861811599441,-12.387532700660426,-13.765692286112744,-17.99928533846338,-19.35003483773339,-20.528436956823203,-15.355341091890796,0.04955796700624937,-2.6153795593236655,-20.47939386669765,-13.26031352124268,5.108737021939898,1.2478590165171841,-6.59581855958591,-7.269234312935884,-14.529418556669192,-19.184311281434113,-12.986107140390684,-4.91713862188838,1.516614006931544,2.0630076369717436,1.4143101974658574,12.177209288519256,16.099602610666352,-7.374081076142666,-35.85570828377098,-45.62514571890275,-46.24521211448727,-57.674328647674635,-80.66850838765762,-91.50142439580262,-86.48664129380127,-93.79226551441924,-122.44853770205815,-139.57670192457869,-4.756929103687241,433.6504713875731,873.7499589312089,706.0893936855799,47.80198089510566,-309.5693485344789,-212.90444768704842,-160.41304807408272,-218.50864095977465,-162.2981172262115,-93.83970913414385,-109.07396034626221,-90.23725030148188,-38.33873232766881,-19.573910569041175,-0.05948070397387184,12.532044743072907,-6.193640808233724,-1.6102568649256082,22.56626530989525,2.0049665349969708,-34.15210295244812,-31.35998945598609,-20.586899009985352,-26.965973175268438,-19.821382772581167,3.192245377046755,10.895741622149057,2.539855034879265,-1.419112387993403,6.775343030736394,25.66206045449944,44.096628776650384,48.39950893093499,46.86717381874874,50.363036635991,47.16954276585736,38.39452101487425,37.02052681273159,20.478007030933277,-20.65642454778565,-38.28596585647294,-23.66643273158327,-28.168343153831106,-48.20552247654598,-44.255562092058874,-34.391900060067925,-40.214891274925634,-35.853030554694925,-11.759274695678652,5.281325340259711,-0.12959908961950006,-12.072709525068355,-7.083772604417702,9.116411552362166,15.978468511862408,18.098661227269652,19.956701884978987,11.14909827169966,7.250655715063675,24.539672563122554,35.814353143609644,21.7530720973406,6.140609057217616,8.503233462986167,17.888490988761163,20.508886327947653,22.492069609708167,22.199517980945004,-9.843842371354508,-64.13581018481088,-76.30787246421204,-41.86318498785177,-23.9087765789212,-32.176406717518724,-31.619047481241616,-21.749876669256107,-16.152122764869638,-12.989017542592464,-5.479225923718477,7.572303451417188,9.1462875618295,-4.332328721771983,-0.9816528123798314,18.018175915947182,12.588749759817523,-13.915103828093255,-32.58943079313483,-36.83618616822308,-18.229575286518884,11.943843127423596,12.964667130137142,-14.08942347101495,-39.040887951440475,-58.082882311333094,-67.98573695736849,-72.01488472400192,-86.75527692147242,-99.01192826942743,-109.40992091543248,-139.704506689505,-159.89867016454153,-123.28487554741577,82.84960053276902,567.3617646251678,938.988613621558,597.2762196432556,-112.70143093587794,-320.76342580452797,-128.6439702248658,-137.8751848476365,-230.72408027244086,-141.53566730692918,-71.96109622441394,-95.76571888257648,-66.5299043293842,-29.289253725364652,-39.716893234245816,-27.523263692711367,-3.0197171780194445,-2.9084421665947673,5.702365202078206,19.933136419703317,12.059854064552155,-1.7320015857307727,-6.817150820659988,-8.860521888958573,-7.626191165391105,-3.5375742660428022,0.4160413756073691,5.242179496384453,11.13466309483806,18.555938541771663,27.012121274361057,32.0958361154025,34.62459547216276,40.37289851478496,49.62833634406939,58.33468538933494,57.82796164018381,36.80519550168974,2.2944725149446787,-18.644282205298076,-12.834371357823283,-0.031915792630909046,-11.072834309043083,-45.9267802608826,-63.01231774698657,-35.889912932905034,1.5489676388126785,6.286924899066873,-13.233572587833585,-26.98166935610339,-30.18882333811908,-26.968109104172758,-12.477524013520602,5.049349801744196,8.263816355288036,-1.9193764377482836,-16.666129027084242,-27.880333545255183,-22.534295364091108,-10.156191169036184,-13.6106376568946,-19.134430114522935,-9.699111282689271,-3.293462562556819,-3.1766433516890764,2.4063246723518326,2.329300305233726,-4.101910597856758,-6.94598395237108,-16.700300291807842,-26.517738639895875,-19.282000842405218,-13.673788857252497,-16.82732614626994,-10.424444849967811,-7.190102338771709,-15.028851458996055,-8.288123912526373,5.523114975519842,-0.502509510491052,-10.92399191384197,-8.12768068812978,-3.126639417692637,1.1964423948311111,4.788637632437235,-2.5879987592132387,-10.25352625635119,-0.24619311580153092,13.664630641254956,18.030829263100784,22.607712487049305,18.57239212837058,-9.233800559975851,-37.815870154973,-44.60801249581756,-43.358859879183775,-52.44501089397289,-72.20430148045762,-87.78803812360826,-95.65106304173833,-116.29627141520868,-150.79568973949807,-152.84568749942184,7.798151168693494,443.52437719761997,842.6503753296796,637.5087576396897,-0.6508821989827283,-278.1301191166399,-118.17931413399509,-68.99624500206767,-147.11590551849122,-97.03570935343201,-59.92990420508991,-127.23424420397544,-134.26263743252227,-80.1479394866062,-58.77325315491167,-48.32037338471218,-38.82863879793453,-33.340227604763626,-7.66213532904213,8.58741455475803,-0.7223489331923219,1.2847008022665278,4.5187907869187836,-2.888264446677492,11.477306239257482,25.794327407152664,4.296026564202732,-8.804020608612545,12.633434643045128,25.102026221988222,15.22414527896989,8.596079459041498,12.001479183177423,23.411922026587312,38.45043963861148,43.669343001051445,37.30420285175113,24.264699745570283,2.0212510006250186,-21.107174631116713,-29.097231723050857,-24.722380546519247,-22.451104429287955,-24.352147233882064,-21.535380243274208,-12.026704512449978,-1.7594642543146337,6.666765632871138,8.021306425759441,-1.3925820213031184,-2.9090381819923263,13.396771386843657,18.500858881854263,3.421425638158098,-2.596375707449477,-1.835255710172488,-11.685551787928024,-13.539200812936947,-5.501768731598549,-9.704092156566638,-12.199954652960859,-6.613758507740741,-21.395565075411433,-41.3689485325272,-31.114902390177015,-12.701569149848952,-10.123999802039716,-10.226805657623853,-14.428410654863459,-23.391311822899464,-13.138885716617457,12.388309873655416,21.393003756201114,9.08485027505392,-1.3171112120041926,7.127073870023361,17.98517020840598,1.8055260711348904,-24.31751910692826,-24.55547305837552,-14.786078306869353,-16.47486905220213,-10.25641807428014,9.587257969747505,24.09437341000815,21.342672302452517,-7.323779360264091,-43.33200642406565,-42.806495317031136,-11.742234321277618,8.362576095750558,21.028176245487106,36.45059811988101,21.18808133261146,-27.444050189372867,-55.47568105386756,-48.50883798243319,-50.33998805615017,-77.6971624415981,-101.68438270576993,-102.55379920963009,-97.14975144767222,-108.84201155494536,-133.01093296202535,-143.1136500694132,-32.05802512717359,352.5760786392098,791.553874487797,700.4944542121043,90.81844428447987,-278.9305217507741,-174.00914965934922,-98.13264107497882,-173.15061892390924,-138.88562166316535,-68.03198314668755,-88.19874081738114,-80.45459147609654,-28.595926842914814,-15.689627852314686,-7.642794905269522,10.125819181512284,0.7202725736700213,-4.177614893078429,15.421395403382316,19.42221225690388,-0.6695150659247311,-19.802244478348477,-26.527176991023218,-20.78412428786841,-10.098207141409567,-0.8787835188996345,7.888919313824204,10.850705827271579,6.783833398105434,10.22108764643114,25.687916838271306,41.96556894985369,51.73715112431057,52.469107835722525,50.46468298481335,54.36282315300488,47.19624168874632,12.789561649641264,-25.602938161070824,-47.096842305932384,-58.027571690949095,-55.991554971215876,-39.76074769542545,-28.361175695830916,-27.543129226927913,-25.948792157514557,-19.6840408485523,-6.147171730255652,14.303954392804982,28.631453650918534,28.547110308912842,19.261673475030157,9.067477672002104,6.905636842982309,15.95686810814134,21.019862357216393,0.7948852224303966,-36.782200260623675,-54.27369668153514,-37.09666487830352,-12.204046021720309,-2.0492534075270488,-3.707355746247611,-9.271754675550593,-9.281174758144468,4.8865863838216015,23.126672760541908,23.24931002799432,4.0178258793520385,-8.306522738565022,-1.11501874184468,6.348429767139702,4.6392318410373035,1.0270876892748895,-11.919697538363803,-29.346410307308016,-25.109653433585592,-9.37992931327436,-10.076374987953365,-15.83035089985733,-11.085002211206334,1.4492884256779384,22.842238640961106,30.63659831910676,-2.24489972689074,-43.26853849588818,-58.5191172501798,-70.13000773295374,-83.84059349939477,-82.4402382772366,-84.18687778718888,-100.68736562376372,-116.01504900715106,-131.99332952589796,-149.44716678147344,-119.94364530196421,90.3794910785142,540.522744276567,856.1646904752101,557.2374396402678,-52.547904883986966,-258.7645054511267,-126.05527175410381,-141.08204929360485,-222.78189050556762,-152.71556368870836,-93.71121858771644,-109.79302650970463,-73.22691655378463,-26.799342834878658,-34.68195745393899,-30.42696751203681,-4.675375401928461,3.410941868162956,8.23295891354784,15.997920570443185,11.158987515350725,-1.6815217406669625,-9.090991988351671,-3.336897890296991,6.585516171369825,8.419809106207689,10.926174872107685,15.567863270789298,17.966740357587486,32.060109173875055,39.1929994059015,7.693565463751784,-17.69408406793241,4.518561366485628,24.835884532607395,15.61054751281537,13.849068635570438,18.63413202836275,3.894394917072553,-14.948800593911866,-21.17307932928456,-26.905522226274044,-37.45067933171932,-41.71784638025253,-33.62866798787752,-18.343173483699573,-4.953154126673846,-2.2745565817739415,-8.038157666004425,-2.9469461359685214,15.130105803237601,17.812342716060684,0.07551158471788533,-12.086839532630883,-12.579520310070974,-7.557074063474697,2.8335428628971266,5.83514732230567,-1.7221006631750688,-3.322409191393535,-2.485359013040642,-6.207990156571486,-1.9127844727912908,3.075963358119811,-4.59684711345918,-6.71376824411965,2.510789392231222,5.5612537799782285,7.7462379519640745,15.820802117137458,18.03208498558899,18.157045402490425,16.729807510540375,-2.452991669913386,-17.63227389677774,0.24891313496458167,10.982758713219265,-19.761150531599654,-46.30378695769923,-43.231878858842066,-47.37272977698376,-62.03885611247246,-66.39726867188948,-76.14421215791066,-96.53332322183479,-112.05839960595105,-125.40657336804395,-136.94164091329873,-108.59742310947296,99.56767489753483,567.132157435721,892.5126860841749,563.432739358552,-73.05773496435103,-269.49941584922396,-124.70635682744074,-132.9150414130856,-199.51337656155295,-126.99074581458095,-77.38104640731072,-104.20079413620022,-102.50698898205746,-89.16802566772277,-76.78145200741965,-41.5573987041825,-27.414402880021054,-35.69722695200048,-24.30319070180108,-11.610380176257536,-7.534375930502296,6.543760638265965,10.227327821363914,-5.614064915647305,-9.910237406210175,2.7808239098037824,13.082318956296845,13.643078317389548,2.037652139509877,-12.684339944340586,-8.951943533264226,9.371600525984373,21.66444793559349,33.18791359454612,48.064500655452285,42.89238202932549,16.655134999872878,-0.5717084398548122,-1.725393115309883,-4.255047483592206,-19.03357063021022,-40.282128954468185,-46.68697549022363,-32.777563782907876,-18.52244115328612,-7.236765203947966,2.7257526611910414,-2.217005082744766,-3.915123047560444,16.059333568097315,17.061497393559193,-14.126270484716391,-27.538609955706157,-16.64055006874736,-13.16214929349869,-10.175517982830993,3.5912247612546078,14.340943267538362,11.713440418415136,-5.609395654359041,-21.418024077380565,-13.80367899277616,3.1777561229894538,4.132068665882334,-6.71648442549664,-16.74065555191113,-17.369802395654148,-4.081348900820443,8.929831987022336,7.55245129709309,-2.156661712630454,-9.986387884873107,-9.319810713454821,-0.0531941418000228,7.170014019374106,6.7345426419303465,6.656658182933073,15.678990283005533,24.704568562936597,14.587067532448403,-4.017488998943085,-11.910344407606825,-27.33103692575017,-50.94320372850143,-55.963441568129795,-57.92167463039095,-67.03831879196005,-73.66802633893181,-111.94891388348901,-171.3238356830055,-180.66058091890972,-64.68105771020224,319.3362262019947,822.4629351969144,789.8792720146041,115.67261351344095,-329.40217122557806,-195.21968994580658,-86.20148964998961,-184.8279575313191,-161.6780871086272,-75.22885470818711,-80.2700899311521,-59.044450994130415,-11.089004900251624,-22.406011384059497,-27.80227632742092,-1.8442384288408977,3.984517809329473,5.293966300658191,14.307918271793426,6.821307406285063,-7.559069217190114,-12.916200602416204,-13.453943477885852,-13.536180772490642,-21.452803223300645,-36.5162976945985,-38.897543512076965,-23.24957106700087,-7.023923806388289,4.035677404819998,16.88459650076133,21.779563652896915,10.855361135058263,7.498420413953218,23.919193882593486,34.4116866581684,26.181640376451323,8.733267731862687,-18.06029755167632,-42.368819906071664,-41.991913218562544,-29.613518325898617,-27.07569795725001,-27.176080179138914,-25.463688787818043,-25.236394578211268,-15.037232283529827,2.019605519510508,4.041806065715226,-5.082586592512591,-7.413728811885807,-3.6099995838265855,3.7472897917939587,11.20234023363685,6.3058666636043395,-2.64340797714231,1.717707054030451,7.230841142909705,6.340070308606153,14.78904057883525,26.223895387907685,25.34724929649141,19.909653295591784,11.096767550859745,-1.190640074537857,-1.496558050948094,-3.202762588285971,-31.422302360323503,-57.90029213599629,-46.345843245280676,-18.758951258068915,-11.611331144207794,-19.941671456535033,-19.450209040528552,-9.940855231618512,-6.852492190986107,-7.6281401912831015,-1.9683030130257304,6.305204954849787,10.156354294800193,7.441408144073506,3.2128381413088163,8.652321499699601,23.844569070708573,38.013716283726,37.6785674436354,17.127170803497517,1.1368856292878622,-1.7092968679592948,-32.97841649635953,-85.32203753252026,-103.21188597268304,-101.0530146740598,-109.0994248805367,-110.22207033209408,-115.54240777553676,-144.44049622135984,-146.75350590851224,29.055068991386378,485.9017488503216,859.0414877708564,581.9757882322115,-72.33511862693679,-289.9290610233854,-109.48955298118875,-102.77222346308524,-201.14983080363126,-137.02362297522163,-72.89565000666546,-91.45013900977196,-61.6750534161207,-11.9934261231707,-1.5204567107321196,7.945087050674914,6.114131495436943,-11.346273327952625,-1.5029466702931993,22.81804213991616,26.59190864139992,14.028926957660701,0.6521701321712605,-5.048956272190587,-11.367329022005041,-23.28680759213656,-22.053991266750444,-8.592832149665504,-1.8319881670772755,1.053515528480113,0.189758933550074,-6.911887293083414,-3.3247017891115633,9.926344771681618,17.306077409573618,25.333477861327474,32.73142125636846,23.070019913954468,2.980432769776769,-9.017146792684452,-11.138284695594747,-14.033019546640775,-17.76183269958191,-10.080794228646262,-9.430946521424818,-43.04497114356404,-67.98642962959607,-39.88031496418823,-8.080668569297515,-14.385639932845201,-24.24828389096566,-16.19712375564179,-0.03270919602956468,21.24337231675044,31.589161571742693,17.037154040414023,-4.896423211443894,-15.630516230992615,-14.31409445873922,-8.70156408927803,-8.028524672153612,-11.626709216044771,-15.860105239794787,-19.386851892038397,-12.646588164409033,1.185442343250692,0.5324674358594095,-11.620886647821276,-13.057321153614211,-6.002486662989999,-3.6216146817990635,-1.2134985922031865,5.744911595755514,4.251973631759197,-10.094583734888165,-14.11591909367698,2.2966409108123678,11.283675810939894,1.1260488158803506,-2.9164436413904458,4.34852181756351,2.378865702003871,-6.193841583481603,-3.3990163607463204,5.864924285049508,3.2469205171516813,-8.74660856274098,-7.143088618328639,13.175981186496282,25.6076302958269,13.457619830900999,0.07042247326697204,9.115410054663169,17.207526412658115,-5.0731389247325405,-29.234380658551668,-20.820569726199075,-8.299290154467318,-16.182776012315884,-15.342442297125274,1.9210709385653622,7.040757427331818,-0.29400069350753344,-4.537142146745569,-5.867246745177969,-0.2714099299035948,12.309517506166802,15.27293036643194,7.32751024684693,4.893673430641858,9.825845916182939,12.869403628565715,18.047825825954337,37.34835254835292,54.454696968177174,28.988589819304728,-25.492376091036803,-43.66028190875975,-26.668313307846105,-27.952139109890005,-41.20200181018745,-51.549862953753596,-84.92016540509405,-118.8264095785149,-113.47007984749465,-107.1431000307419,-144.45717183498678,-149.34327670650904,87.16276393290812,586.9939833974128,838.2761120473103,414.33629276531656,-180.40569356597837,-278.05756846979114,-124.83092306084355,-154.54316530721798,-190.40392005480518,-98.44403720422713,-76.9486541229869,-115.31192297185774,-79.38462120686837,-34.76131634919285,-27.681342214363013,-7.034500327453625,2.4755967899295044,-16.43552700772033,-11.735785987038332,10.141041096782502,8.378699096564905,-1.5490227989686218,-4.385888137005928,-10.065038904346235,-5.3344816996624935,13.574568480109052,18.43981539808675,10.914799180762905,14.317663300671038,14.828777361189971,-0.10441163375572338,-2.473537469672255,16.989946898280802,25.76856911572351,13.799974594692099,9.527593060071224,22.36335594254757,29.68465459143036,21.27338080353166,4.919347396180002,-17.264623723017635,-36.847680060883995,-37.526131970938394,-25.288693936844638,-19.475192800327893,-22.45966665080223,-25.051616607365496,-19.84862168467861,-6.930897726463729,3.67337120168336,6.212112646723189,4.465345601595398,1.8166501011067255,4.427535282503959,17.22763622400242,31.962060279850125,39.67032134636297,42.24149801915579,40.44775888433814,27.31042273540507,5.34982890859653,-4.353736047822904,-2.888644814992542,-28.107364087137068,-74.13046014296,-79.99527426650192,-43.92617103355329,-22.13522834088007,-20.413486214749252,-16.075381351294958,-18.998004401112745,-26.031632854150267,-12.51155054267428,10.206222428259032,13.68134305870427,3.486204326175092,-1.2274568224543394,-1.4022160459652397,-4.231708020364742,-4.918530903376616,0.6097984633040863,3.264455388368476,-2.2567249737578527,-4.656623031263921,1.7333014975832084,6.9209936760077415,11.155066403963962,21.319840964700465,26.109151463271452,21.51533497320929,23.658087173130404,29.709997609083786,31.308551601798893,37.946622591362456,31.781849388097,-8.360526032449151,-46.849950424556184,-63.03772315195263,-84.43810810055336,-104.38760174564032,-107.24144270030135,-113.64884248843526,-121.49255162103012,-122.92013189823267,-140.64450467160628,-164.12134873031624,-99.68188579079948,207.0996800183323,691.8640446369944,833.9590624731055,335.9581329295552,-208.61767214166622,-240.74139660099206,-104.77101472822018,-160.8397883131385,-188.60670785202012,-101.79924718326222,-78.93944782034117,-88.99105651606878,-50.94916857350806,-21.73071516211005,-6.152241855624133,15.790511047929384,18.111243590216954,15.963221111614763,17.225975148495536,-7.570177619898516,-35.14002042589505,-30.38872549991842,-15.98724382901492,-12.345315289401459,-5.377088092612228,7.068701848655147,3.312479547843978,-19.782293417019197,-32.08635712583959,-17.77184880865332,2.7285516049828162,12.098026014742262,16.277309888651285,26.69123228205521,39.67435153118625,37.46343102956557,21.824806180177553,13.752385462364494,8.25600200854707,-10.980258958682683,-30.22827322410813,-33.69260565940642,-29.52139375120507,-27.05570672713437,-26.625552082005818,-23.257127872647015,-11.522884563911688,1.7147912902557332,6.961066593507667,8.17498462161058,7.519514302357495,-0.9823808938338452,-11.888694032543459,-11.849522470558014,-3.2513113011319037,-1.0656073802929606,-6.975730474409013,-7.014128558796063,1.4748862153419133,5.547822089278885,2.907353316452274,1.2076186259192898,-2.029859238740409,-8.0001665731511,-6.963383425472568,0.45098395881079856,2.153899835983797,-2.318698154108134,-2.2908235562514054,7.5356734215875125,21.296530188253087,26.591207883484024,15.767650713525422,-3.29326231750425,-8.941461354704234,8.441908473480131,24.792087977000133,19.55934334188409,10.269296587159891,6.181379083478675,-3.2188224313417395,3.2985180219091994,29.301076624740304,13.862727815345497,-51.46575656780581,-90.92477200652883,-84.5234003427681,-78.43211460458909,-86.64518955334516,-95.95546256579068,-102.72362841584851,-114.72798684466935,-133.04812938488465,-138.84739000664268,-114.64934977573026,44.92999572376425,481.4634204389396,879.9134484738504,631.3952306345676,-55.28173065848381,-331.0256261918811,-160.5923149962028,-129.18086644958748,-216.9633462435051,-150.76513124155866,-81.14474037332137,-99.49353075443717,-70.8362083854719,-29.51971945977718,-41.56686430844327,-33.10570567450631,2.7970165903209043,14.268885848794405,12.168105058661977,7.764071145211467,-3.5369024503395803,-10.853599942518656,-11.370914473944147,-5.550019038723333,2.490597872238019,-2.294929402701996,-10.65306201026141,-1.7651277056273043,14.84587133740078,23.80256993866706,23.861752877953755,17.085999577534096,17.227082065357614,32.144154896195786,43.534881770525445,43.083560410317375,39.19303270075515,24.974514374180075,-1.2366584167899342,-19.28650592906728,-21.16350733160121,-19.063138590944778,-26.0166858286451,-40.88613928267909,-41.80553861854731,-21.29795162955768,-5.12189210734613,-1.089837729339357,6.9663009533231275,13.739930232778855,14.549879454345607,24.284463739123144,33.04958725401458,15.663060434697414,-17.83677917549264,-38.355302375180436,-37.72685565579622,-25.82495298504741,-11.226904001259316,-0.0646703117389853,-0.5967583128698237,-8.290220254416118,-6.5412864186975925,2.6937598703450685,7.728398210348317,12.877243068797291,17.006740075653823,11.869849259952186,7.57798846303745,11.986261828264876,17.080994161438625,19.596966185758138,16.65506726895802,6.430157078453393,2.587539510360168,12.656600527089605,19.140434979183652,-0.6306953478407955,-42.548329070409835,-66.81877130320399,-46.10744111916455,-5.632116800066786,16.880189485829032,7.377591799852574,-29.8267301438245,-67.43845922111942,-76.1612362012732,-65.95752235212197,-69.89357311983679,-92.8415191549007,-110.16923987961688,-119.06102677880537,-134.26804125877328,-145.49458263519952,-128.5751071654241,28.97457501578313,465.57269097345585,865.6579841233533,630.8933285767118,-28.628474324586456,-286.5157706650128,-128.65805214209732,-124.27907452756565,-219.74921020124788,-142.83064900566526,-70.13992931980621,-96.29154626185853,-72.30163692579924,-26.956936707747804,-29.677259444104315,-17.4793697632763,13.774513139261373,23.832611626287537,19.340542895155505,6.024982275112573,1.5645579400273446,12.48208545725291,5.135004775459842,-6.543784402249166,3.752134518621549,-6.600463679434098,-37.81335460279037,-29.359382283138657,1.0980550894384837,4.193529540943518,2.59013947763892,14.743705899969122,18.135781423936166,19.0534038087205,34.46678896734839,46.48627969800068,39.3683398453277,21.284253277225112,1.680854042511211,-12.679783511353463,-19.166848881891838,-24.64019900820783,-31.573410464750268,-34.44338253198126,-31.22259563455111,-22.068308245298628,-10.784247633051296,-5.806133761383028,-5.0628026240423125,-0.24598141457760336,8.220394470446188,19.46597785657494,28.7322506228098,23.623891509258,10.224190727531946,5.571053869295649,10.022869265194833,20.369674431279883,24.067919111326844,-3.3283291896347063,-41.485386692137254,-44.50670760318109,-25.721867628724517,-20.531939469577914,-20.36788549830944,-13.650011616253135,-8.11304034153582,-3.2545020890740393,2.700535939184089,7.247472537154936,11.895162526328924,14.52516039784295,11.609046196487098,6.031554045119166,5.42505270373511,13.378950497548294,15.62602948076833,2.395181738065478,-6.747545553108127,-5.582470937055261,-12.964968198128453,-16.670394800556927,7.005403170757331,32.25255590538727,21.695867483485024,-13.317362474725144,-39.96902286657762,-51.590110201273745,-55.87713057020029,-59.167875057326015,-81.16097533119577,-122.54820453344729,-144.93835820661343,-144.44763044173231,-155.8261092998662,-170.17775910596868,-93.51925942697191,231.03585614969768,713.6574303273279,804.6128488741517,264.614669342984,-241.83229931074732,-217.608497630545,-85.17635586721207,-156.40227923469428,-173.53802435477462,-94.82531955276971,-90.83740427467147,-89.75989558474528,-41.76615591309847,-31.39837231740186,-30.39328171500525,-5.010396943537545,-1.1902294522581975,-4.137847607770359,8.749945173397675,9.214588012347035,0.6833839760493223,-1.6998881115681321,-5.282448320490884,-6.002112580619305,-2.791342223452628,-1.2497995995636388,5.114441060208995,14.593575198538513,22.69073440681794,35.31530303599254,47.37611335733284,47.53583909178397,31.37913143940901,4.2660490780908615,-6.800790666578378,9.813197316915323,19.011561509398085,1.5712539167595825,-18.74629474256322,-29.001431016891928,-32.612832666717196,-29.939360323899542,-29.277720119561224,-34.742936524962225,-34.84402223469319,-24.22671376695405,-9.190991775772044,3.7224336058724234,10.927304714139826,12.71783380116387,12.176059285085275,15.079645721257872,21.892740308333423,18.834468661191476,3.354646314676259,-3.962272685561718,1.5360842108109756,7.41453890092162,14.431130910620954,13.935443885503307,-11.05201284444652,-38.35358039160887,-38.461724808238316,-26.064056724314412,-17.633058171414113,-7.145594523693468,-1.7792319019204292,-8.957803384128388,-15.02259382983815,-12.699298084240766,-4.204312997551794,8.680232664761993,11.81068737483803,-0.16087039470168563,-6.925660412476017,2.2474915669846705,23.59095916767656,46.950645592589744,37.04635981468422,-11.957805496597723,-40.160599010004255,-32.87029554820782,-38.90235019403663,-53.91384149444467,-60.37141575143347,-88.95643078630954,-125.40385184417524,-131.37661519185514,-134.50347115690982,-153.55356830493858,-110.74128003862037,154.17519193226923,634.73539004272,860.2859547122652,443.72022945579175,-132.6486561581175,-237.28500554226008,-105.1573854266243,-140.4897945325739,-174.07450387724373,-77.3401766528878,-28.670555353629744,-50.30606947719925,-56.300832892848746,-62.46147494445677,-53.733215014200624,-4.506072765458377,27.046868726346347,5.299295508297753,-35.3125688358434,-56.94715195479264,-50.928843297777604,-34.23288808189308,-24.126695159557034,-22.626839678580875,-23.442538995242472,-20.029738653300143,-16.536491740908343,-13.501019622254674,-0.3467450508333183,12.019657768591404,11.405438218251039,20.448234269368402,46.25501259523299,57.84172725395657,39.90834737772575,8.094259099418753,-14.270985578755269,-18.393328723946837,-19.443357606826027,-26.45729347910674,-33.1240326084202,-43.75663023842432,-55.143105944035675,-48.41713992325234,-28.732087784450194,-15.973803818575963,-12.680334342156382,-15.177536807662975,-16.845483363728476,-8.49127524106337,4.685204616900446,14.04658909060301,17.885245865182604,11.682502335209566,1.8769551357857357,6.264495740903454,21.00378773750713,22.86860484125207,3.4271020286578704,-19.780261273458496,-24.584354127936685,-14.739437563187089,-9.68715616036851,-8.630435038109342,-5.131079724681438,-9.279378953593808,-17.61447214000331,-11.285582730129155,4.47208100789601,10.373254115529988,4.620019000798553,-4.207686290324604,-3.787619938997561,15.978912897287385,34.201265413286194,17.97665161001068,-17.24617090541637,-35.37622348842948,-43.37579476050158,-53.82913054603049,-58.299795116422715,-67.8734168436267,-86.21225754850607,-96.82256338449643,-110.76230933944564,-129.96323404650843,-123.12283466271899,-0.9343049375556234,393.2358700590634,866.3762983091782,769.6668179590234,69.56465623410212,-354.1627087400309,-202.6341773489082,-97.04827458450185,-203.8892915866011,-180.6898268732916,-84.16815946476441,-84.56083858630261,-76.92206155524566,-47.05682523574018,-60.40898259499045,-51.52238906612148,-12.265879424175953,-6.682199996240177,-9.435505145375974,4.3138393541478735,1.6943869889532053,-10.840397898308652,-3.502592427239339,10.06800017384131,6.876165514751683,-2.8987745692920797,-1.921602955893761,8.141709344665122,21.58224416234735,35.685943871693226,45.72410770305461,50.521668149598234,48.88848208622012,44.70379922571277,50.28642425559903,53.55800284154964,32.17138127809899,4.147530788412075,-12.680838309919245,-35.525715123154086,-59.15945144229418,-61.49421346472609,-55.88092098874678,-56.4382840926747,-52.23754058517866,-39.91068201638412,-24.78936303713221,-13.326768190104524,-12.812016515685961,-12.698354974075913,-1.16894821433781,7.985044738788115,3.0336411958710006,-6.099990838191388,-7.44199673680669,-1.1704037674476648,1.1682585813178932,-3.5870381544070007,-3.5034079918972303,-0.06945781015227581,-2.796046421497457,-3.33602203447397,2.941386283754159,7.466144878729155,10.447748675206185,15.78728122429786,21.075027171242112,16.685483279904506,-2.4839461945181993,-10.768093404426514,3.3135339572914564,-5.064951092663559,-39.620313585400126,-40.07442336294751,-11.289366904078518,0.26584445774372156,8.178832066194623,18.977597217917264,8.757929762678822,2.2935917832190587,19.98934106368157,23.672141082017923,-6.151890052620157,-52.01896465628516,-91.52155990849732,-95.63116860766492,-79.55523721021109,-93.8269146830907,-116.47770140538,-109.75902703470915,-114.28032402057534,-140.1270976710503,-146.7927205651754,-74.85360722009946,250.21093802989358,767.2802895563974,853.033261831746,255.70538574751933,-260.5219142158882,-208.24757801569254,-96.34477768795698,-200.7645635247003,-197.97479287946598,-88.2808447201862,-89.97553591280094,-100.9536782177713,-42.32588757296624,-22.98315322612531,-30.633188152851943,-6.0110259457792825,9.578916305141584,2.8770971053816545,-1.9619028893835875,-9.458621938631044,-10.996337308536454,1.8623425272789627,7.138285347224219,2.2583305426754476,3.147760696577607,1.906469745841329,-2.639681405785053,10.27293762910759,29.452208653549402,25.817620018917076,17.070391072141817,30.00139415670418,47.49532518723729,56.14867443018183,63.38233931480829,58.88753604915307,37.80512314734767,15.326363029597431,-6.7356287684203835,-25.04165662076124,-31.918769849503228,-44.75576403093514,-61.147662170185214,-48.586450932565405,-17.963409570629597,2.9313597246241194,17.46672738417875,8.886559973398288,-30.126918850802426,-47.2355146329541,-32.65602200817325,-36.30400154410414,-48.55671551599076,-36.56266435089514,-26.867862495951147,-29.273107834986526,-13.932447903037154,5.1909633076843775,-2.6532818142653944,-17.499600052189862,-13.965325224904394,-2.121833735772956,6.531107243920074,9.265729457244108,1.315908150237302,-7.222215713342123,-0.704401030238925,11.629597807362718,13.640471135549772,4.67445371860771,-12.759664084850034,-28.382988965557512,-26.51003823332729,-15.209020749106841,-8.187315498572577,0.27202818567731235,3.509178003454018,-9.352961620469868,-15.244768738341756,0.10555821631292694,12.276066106273753,8.696186158041415,1.979572294507384,5.23652972501384,22.51629753058289,31.0721407450805,10.880068359355622,-13.11111901544782,-27.289076310287374,-47.399563080424784,-58.95342996675289,-59.5692325450874,-76.55665325381592,-89.73220902441916,-90.49776290701335,-116.0843190989698,-141.21361396251243,-116.1055036925798,38.207973497021925,444.8617535561602,833.6480134222572,620.1950487825313,-29.009365521906275,-302.2939306895712,-140.44315763565913,-101.22791251665107,-188.81685099640157,-140.87340483023416,-75.48531270842182,-83.64070003721208,-55.70099492672304,-14.934021129750501,-17.237819739369186,-9.3055773547638,13.049286727319476,17.151359900204422,12.72627659710269,-5.42072437808514,-31.969382352309538,-28.995169764064393,-9.007963485816195,-5.869336373406314,-0.7580510531393907,14.966966518245819,16.176716048297166,15.169819730203917,34.1201605111178,54.689444122122325,62.713661319705345,51.707538708486126,12.396226049157837,-13.504869021384824,11.940119391542419,34.96216292393649,14.284373076600215,-10.641927309311306,-27.100564712905665,-53.13905204438448,-64.71370940424293,-50.70433700598268,-42.02809252691528,-45.089488587524094,-44.28063348110922,-39.09321899994558,-29.975091811943372,-14.959880408791292,-1.4271234502023304,2.545168539763754,-2.6418074569679852,-6.675397895884922,-0.5579240012985949,8.802896585539756,10.94345735822641,5.283432507673853,-5.605182447641134,-13.013228741205083,-5.924381736006987,7.270947773785623,9.430336949091588,1.6750653634203,-5.628037216599399,-8.05679021199424,-4.315134930099987,2.791554715948448,7.391637207393806,4.612777864188546,-8.038097302760328,-19.195761959337865,-13.173961000191614,-2.0926837029082463,-4.615249108086688,-9.340751859985176,-6.859461028734859,-5.441693232369578,1.1100965735731694,13.998119199282716,15.057416346042949,9.695828403266503,12.319604415361919,13.241276859278141,12.48932580922807,15.232146125241549,10.324804813175692,5.418697337234784,2.729106966711229,-22.74794180912238,-49.18253915809476,-43.254156179508385,-42.87074688218841,-64.83491113155665,-72.6110254334367,-74.7022458495945,-89.26927351417193,-99.4484887982184,-108.61614488730096,-120.65051775178388,-81.80411609746966,146.2601509681582,601.3257661375426,861.2941824803952,467.1401269811163,-168.02129718718854,-315.5913200239881,-140.68252572018548,-146.82388311346682,-212.1660837567946,-137.38183600223115,-85.71144055881581,-97.38790508041176,-65.44921993712346,-29.711602033192637,-28.202577564140757,-17.52292264118801,-1.87894236063174,1.4283489477790994,6.293952385009135,12.626973845186873,10.641509310200039,3.597799038528951,2.658621517429465,7.8782274975411735,7.656254640253781,7.517519930545859,17.23189355923558,24.09978524702656,21.811472428333108,19.423809665304667,21.001343795729177,31.05980531163531,42.62771318085633,36.385242134484265,21.401477493433646,18.14865550550787,15.91263231436535,2.425108908448512,-13.793211246577648,-26.724082020012524,-35.05053030487311,-39.40421608219611,-45.05418448286733,-48.85180682379978,-44.182990333996116,-32.76713019659749,-16.522104597803825,-2.1047095593140455,2.596338791000518,8.685872994756476,19.15109058533637,8.87157722082037,-19.555818837773682,-26.855276951712113,-12.10495169088393,-9.123160363656178,-13.212612349422663,-1.9826335706240634,7.238907822690646,-0.7389686561426831,-2.614974143996961,7.276352326593498,7.256619716803482,2.144858951846892,4.057991201439032,-0.5524617142917911,-13.497869063686414,-19.549893772980635,-17.165590789488093,-6.51906843038394,13.521659358233276,29.718541679300856,25.523079575398604,-6.301695083823766,-41.97393991192635,-31.73736394775601,14.796659977013896,23.46383530608821,-17.652569966662693,-47.09806645509883,-45.982523514861306,-45.00868210515985,-51.93223641389176,-59.23626120338525,-76.74034230115338,-102.34009589949835,-113.38339436148352,-113.84924892773036,-130.1558581341457,-140.3353128346945,-13.316992088179603,379.4643071270043,800.564594951988,710.8310182261938,124.3344384413137,-252.30261261710703,-172.12935828373503,-104.03404232718479,-189.49406530681722,-167.90676830326294,-85.15147003560602,-91.02808946013101,-90.9752356545711,-45.632629837445435,-27.602946154727427,-20.090627484384378,-6.274396737229903,-11.064799357205754,-10.575477232198127,6.7605166811936614,11.557457896067781,8.985060567854926,17.083895070789453,22.660646340784606,20.02637992406479,21.9705361274382,21.19729044964912,7.521754306770769,2.372587707546065,10.261128568364569,2.1797021614269276,-5.589056284893473,23.9407645429613,56.70800045353868,53.69235115671572,40.20652718551983,29.989093111461468,8.083174480411515,-16.426688325518896,-33.817939500823144,-50.179337942670244,-63.21583458560727,-69.47761641067419,-65.90069098166813,-48.47444762725254,-28.89603812166114,-19.224133055049304,-15.804035065304625,-10.698838546616471,3.055902673504386,18.989465677681146,24.651109021406963,24.25887785893711,6.741797984364219,-41.263807732313985,-66.26084942171181,-25.80827217494114,16.527952882944444,8.590284074305117,-8.786742480102728,-9.747847188134987,-14.321048159986193,-14.228249593047805,0.6810488290444798,-1.5660291337494527,-24.626806343777798,-20.878680629699325,9.34436932766261,14.578921219531638,-2.2295306705061417,-5.0706670921604164,-3.5132959416109575,-9.038643395079413,-5.260917711044911,5.374597665398776,7.578731798495474,-3.0334873042762265,-18.380327414994973,-8.128506791794736,30.952477569023312,42.430008796375574,7.972879580822358,-20.966158891020243,-28.794540512914885,-39.51822643203678,-46.53488989080673,-48.84268348921377,-65.21504655011627,-78.49691037455253,-80.04978863121224,-99.9869549902653,-134.03621599585247,-161.0479622266606,-93.42261687401756,281.407864316148,812.5068235444902,808.6365410345093,154.71649342220283,-292.8550108407728,-175.9034081874044,-75.60272335582368,-185.4533498857146,-173.15655406889505,-87.63465684966063,-110.53024287151186,-107.83885781292234,-41.77884573269774,-39.20026316598441,-53.43272743835798,-12.048470701049862,15.031067919269187,7.941750936598962,16.286326501052002,21.078758182161998,3.6023175130037477,6.832782361689457,26.51600655429132,13.436660462784602,-10.546178594240386,-0.3547159059307119,17.638798696552875,16.058623172067534,17.28694740290959,28.3319033036879,31.338266170063854,19.350170766468977,1.6779220383941649,10.130915097623644,50.63341371409941,56.67397499357354,-3.5196250543195795,-55.86145188512498,-53.77050698436814,-44.83329587944436,-55.387212508871045,-52.71679857312489,-32.765004460099476,-31.388513609489827,-46.708215298980406,-40.002058084812745,-15.211484057783402,-9.968596585206587,-23.2987504896762,-26.263879222791207,-3.4410160157066443,32.77240339444584,39.84333991971849,13.270016265947588,5.854970031426606,9.457739395071433,-19.376015892717284,-33.670056447475446,-5.371730448102239,3.7212081071564374,3.8484677805029266,38.818815943935036,41.948385874421135,-10.70102858288002,-25.325332850796684,0.6575940988655269,-14.403904772007376,-46.70969190201696,-33.06674212899755,-1.1634852862030094,8.95515499255757,7.179774808203966,-1.6380822253218525,-16.461441093442005,-13.806229476388356,2.8098946042002435,-1.2639577469569154,-17.136135357432877,-11.519724724565867,-2.186284719223215,-12.168929381692022,-13.539184175333158,7.593231384725184,18.39270959681802,3.2609669724978856,-11.5230929521591,-3.993906128877022,6.235080721594969,-6.693445519560672,-18.553593459057037,-3.0085216932376033,10.846698037364812,9.268921967349758,16.286802922863796,14.081361967672706,-16.787881702383483,-28.964463790436824,0.30691327724242967,23.98017777571442,22.80001785780629,20.82544197181707,20.612286624017955,19.02951817464403,30.609864166363064,45.17926698125933,32.05029615080302,-3.0581630665424395,-32.069473942775225,-53.432235527245666,-67.51406389661594,-55.76146546657747,-38.1359973986338,-64.6637105278059,-105.66781894979306,-89.80820270061797,-63.48299820728059,-104.07515573414018,-153.19789746371703,-150.7333578008189,-50.78948230814714,324.97892736238714,838.0746159512889,814.9863684630297,145.16710563124644,-315.82512477492287,-203.97159506829706,-91.12705723404383,-182.4122255547536,-166.3313705129236,-81.99837835816547,-98.69585722863611,-107.60737058049776,-69.5187796418538,-67.4610993030468,-70.64885448957239,-32.263336467587436,28.915392144686372,58.49070645514606,2.6897222794910647,-62.32446412582425,-36.7083191944208,-4.822005569831507,-32.70624455933806,-30.08616634520549,9.474861719242076,7.357302546230105,-11.347692270952308,-3.8701538935299826,5.250450933285611,9.277011581137089,19.305097931306605,29.135396534956858,37.778909817288316,38.533565549815734,24.257789164280847,18.83510678004837,34.58999025382256,35.83046304292104,-0.6022905675031724,-38.271154663814244,-33.580023480704725,-7.8717000959147825,-14.487157050246996,-34.631245503419095,-12.23500857338016,12.431360007314268,-16.86546203469383,-28.56377953532256,18.100999694894917,21.733340289695256,-31.556424225320995,-32.52568885213992,9.1678729007884,16.09685690121081,11.46518435698021,12.352970822287498,-7.643554267561565,-11.245032580590454,20.741830652125223,31.383307901767253,18.716676521202757,20.999416648658308,8.920614323022651,-35.25813196169649,-57.58935807591692,-34.45915652015785,-5.027318412841385,0.488917322223668,-9.320584745359525,-6.931372348228684,11.001850792208758,13.085638275425834,-0.21583984501145315,9.423355417247214,27.075445698964174,4.378151488115305,-31.410164435231763,-20.814314810811567,11.610003542868016,8.51070142887078,-14.258522870922242,-17.64854243044319,-12.16090015106593,-8.701653575093214,-0.8722159749535878,-8.011430694917586,-28.90666335563349,-21.242449779797344,6.839757702568303,12.385632369664842,7.284075602800279,12.987982538253927,19.477987125775332,26.730874634268417,23.848863894659374,-4.772970612224127,-17.862353101749193,12.06169699750149,29.934390840086152,6.003502826560322,-12.734804871432184,-4.470012127675135,-2.6940888856272416,-21.310038038483718,-34.398356817672266,-27.574765374267542,-14.60682050454179,-3.5508578623519504,4.867950570726213,-0.45136699674797853,-15.791886193728676,-15.083095801079676,5.854834936576188,17.72163672109869,5.358134506046525,-4.153376842215129,6.877570956981725,6.708414815826483,-18.43273239121611,-37.85817975753215,-51.31480903884144,-74.8174203071543,-91.70352990919869,-98.3088064552872,-101.23621158900629,-93.27911106016401,-100.29376340411956,-141.1884118174869,-130.4357422595069,95.88425749287708,549.2248713289038,826.8457174686155,509.27387425779233,-65.1893414380838,-238.52062157284658,-102.45153425191523,-93.78722325462935,-137.7969761302196,-87.3021683284544,-85.11408505748696,-122.10187914243022,-93.83740929882977,-74.87054456267944,-76.76967277158244,-33.49124403570742,-10.496723749081795,-38.125584653141956,-35.22564549532494,-2.0473647994583644,5.595184452367789,-8.506225232514112,-21.456538928957304,-21.498258182749073,-9.894560147316653,-3.779096558277012,3.5025186202446763,22.53382873315243,20.803006552496633,-8.009393874508831,-4.3156965148856425,41.52412197885869,52.7573664612706,14.431487335678835,8.993595284871002,50.315544022606346,58.358668231162945,23.974056752862687,10.738136275773064,16.603769441987684,1.8572070338278934,-16.836439078379378,-19.98420845678188,-32.08166953112128,-45.682430075925154,-18.365793285814284,20.015019079948367,2.5659169261463255,-36.943322015330956,-32.08689543950748,-15.755924417970332,-26.236672301649538,-30.11476803080138,-14.591749260235392,7.952371317594094,34.708085942395954,30.173891208144422,-7.45420720284509,-7.217566411672955,24.89415367192411,18.155371292153024,-0.3675310881436755,13.532657955262408,16.400834157021567,-0.404106778369163,6.2026677627679625,16.391609100450445,3.1678531604377937,-0.4001320234197242,10.141566868032033,3.4301492170253605,-5.583047400327618,2.1175262085078614,-0.6476445082087281,-18.38571339465838,-21.752064604922126,-15.226269513952026,-17.385092884877256,-17.834833949136332,-10.51204228832573,-6.945268494998452,-8.916757974613112,-7.957410262684007,6.747844664949971,32.33162853959813,31.74135542528114,-21.051217344469613,-84.21802077166373,-98.70838616131117,-68.09490206901805,-41.1197804258063,-50.778180748914096,-86.10882994104217,-103.54756827946696,-92.82919508890669,-102.60293766898431,-150.62859060697025,-187.08198883806,-109.3802250264743,232.36858173541745,727.7606305282785,820.7275901795451,287.1145850725398,-227.79397091455832,-228.31140263661763,-87.54002584250716,-142.52909665760893,-181.03613537086719,-95.94653950570878,-51.077285758062075,-67.930896197528,-56.327896748269666,-24.93535183645698,-25.60260427439918,-49.514635457846154,-40.53832466060974,2.3365682633094806,13.00169839254447,-6.661160803587638,1.5693401486050682,11.820739126794411,-20.39126831633517,-41.097422519485775,-5.5982621519061455,29.275562762212314,14.029881329954522,-15.87974961966923,-12.158941339574657,17.821474275520167,35.806127371919,33.28276211042319,34.79480222169335,45.26856287499924,49.05402774538282,47.699486782679,41.78562481370743,23.226331297610486,4.618141087588135,-7.92014054285961,-24.497978035860413,-24.302494804517757,2.4690715418051665,5.759507227494465,-30.503540949546466,-47.33406910813736,-22.955087840960488,-3.255244500031999,-5.949599861767853,-4.429036909142846,1.1928993750006214,-13.77540646921861,-38.76602798235445,-37.52829319077772,-1.554412620684296,32.16423197643814,7.399723492180598,-60.38959580912643,-55.342006815191354,44.95101054851746,84.0779828845302,11.124547277208258,-28.81110642633038,-16.943735512356533,-57.2246470611546,-73.54072360267095,11.454176481047272,39.72150657503191,-41.00756346208259,-56.174096570081986,-1.0871099321156095,-9.419295399983127,-27.955687120737952,16.3504546871903,29.842792304948347,-18.64477771314162,-29.07134242744288,13.315068880609122,18.07930496010389,-26.91233870505691,-33.40784316008593,10.390638056259844,15.518401729012737,-22.04775476962661,-26.217468334686625,-10.241413414445038,-22.977798780775178,-27.94858326097056,9.563736280252511,42.47266730795708,21.52538199229859,-23.543886486969154,-22.918163754888383,18.491253248450153,21.23328677347967,-14.562090091516662,-2.682577004814221,38.07791808973877,2.64547456626147,-70.38939458966144,-53.83503648623007,4.560397772902924,-28.44725174057528,-96.05824459830535,-84.87695329243581,-77.06848904904368,-136.85479100287776,-138.5532552761231,-78.40296999140415,-16.199132451853302,290.50694166805187,799.4670201767607,773.5269741431453,75.46673422523844,-347.53995734003695,-164.3925973132653,-59.04424619926614,-198.9277805746342,-190.0236990614679,-81.94883091804073,-67.25730652000024,-50.17009626633866,-17.89740412580673,-40.63787524353464,-40.91566500558857,17.34291816159878,47.599036488032105,11.82816704442794,-43.104609452196854,-56.20454540094146,-17.46976771320823,18.32228884314731,6.3847651279666024,-32.738881031501975,-40.674035886634556,1.3753268104252152,29.771951260266135,3.4581300282161527,-7.676936452989024,40.52887632697509,73.03062623856354,44.35539750138594,12.200623746873402,20.968234721433042,51.51527732859394,58.87520897709127,15.075675610997767,-26.302233961210973,4.613124092748075,37.85780280462829,-17.41727487769107,-67.30065652217738,-21.576855907128824,11.493384547403274,-32.41943517481216,-52.04608659612843,-27.338421493082112,-27.91423185029854,-27.535364813873684,-0.5324962907430688,0.0400694021297916,-19.978575523290647,-19.92293150127914,-18.00892353850502,-18.829734248652137,-5.491484631780382,8.585143038939455,22.70766193213522,32.830176268487634,5.457592189378726,-36.409638523545425,-28.49530601721431,19.948932471553697,43.12396582658715,10.240478476153854,-41.72452617528967,-49.90257615289575,-11.885811634420204,14.91549685359307,5.118220639887735,-18.136630116429707,-29.611400982280806,-19.147163696111683,0.15602708256337916,6.700584809190549,4.190754505434077,5.7850493937556005,2.9581887554331554,-10.507057075432575,-10.960676393989718,12.34115873012374,24.003344660080785,11.876940472617353,9.706022314781968,11.181856438871154,1.3116800972297025,19.57477989119552,43.906790507642725,0.8812154558566974,-54.788437633831855,-38.39204600431387,-6.5026019707795,-12.33063331904279,-10.961327823396438,10.693588182599191,16.752512596365612,1.4742361863206614,-14.249414686647519,-16.481538709420594,-14.600388879025132,-15.297913137830413,2.8250213117320944,34.140063507376844,34.75002852484273,4.43659854733282,-17.012792650988697,-24.108411596480153,-36.874284646692104,-57.931528797395316,-79.69310615478959,-92.6295929813051,-88.80905905487877,-90.68197929529906,-125.47326006882228,-164.05195396821236,-124.44964812388268,124.79501320851776,595.2130919491284,860.371423176757,485.7358925444117,-118.61550071600446,-256.30197378476396,-98.31932748024803,-125.06103244854863,-192.05064961097537,-100.75010727465919,-39.56408909886557,-57.637694853816505,-37.22896742434206,-23.741126758493518,-54.7165840005904,-62.415850688634265,-39.14797510264505,-12.222635864530307,6.010497371358603,-3.854593366509226,-18.300762616743413,-4.524485768354021,7.640107014792312,-2.8794214393510327,-10.05362977376274,-7.336811623178659,-6.886657864327079,-2.8561285846600195,8.623285736422687,17.006382840686697,18.18787960977594,20.071189127630657,27.542696186857533,36.60255212806449,44.29175031079268,49.58713935801428,47.79756854833827,38.81215835435228,28.655895318890565,19.778346862531915,11.096304131402363,-0.9075012090073604,-15.347321360478016,-20.38501214087237,-16.259314540123775,-20.10115633449559,-31.218685554209422,-33.13450071571783,-20.76248855773358,-1.5786687785313553,6.778609509775162,-1.4348373807785286,-5.068494815818177,-8.13677512325554,-36.65101752042162,-57.520261158884146,-29.175820180255357,-0.7580375135629573,-21.02937741244537,-43.17080206715164,-27.41735815133952,-11.350586365437817,-15.785617819723061,-8.69023749202463,7.989731115524567,-3.236673518738801,-25.64861306941978,-16.74798229281403,3.86244810169371,4.604655359133382,1.817208612366768,1.8490853740443,-5.076202701149574,0.5500088797077138,19.75472921962558,19.7664037745213,6.010056199670939,6.057184121579298,10.915358928694559,1.9427214668129054,-20.576379929351894,-40.03216548056674,-27.743015978637587,10.26026309681465,22.060097300953494,-6.338686105501573,-31.676943834963144,-35.94278097271989,-46.570140358814875,-81.3037051279173,-117.70560199368597,-111.54384748425738,-65.17355790629026,-53.39020134785511,-107.28576352000722,-156.9798688086928,-128.85006848062076,72.40957222290129,498.4578915078818,811.7657723672551,552.9731156694202,-19.456279518657954,-244.45444484915285,-139.52013302798252,-123.7908376879657,-167.83429546854575,-116.70875680532383,-93.033999095344,-120.96421098316245,-77.93475210513606,-6.345290573397392,0.48348783314344246,-21.13867176069209,-17.775075547901846,5.451419784579647,26.537464183723568,26.998653539766387,2.388049054817415,-27.473801616720063,-38.809108239890186,-34.166381435347716,-28.776828689374625,-19.948979388886364,-5.773111468364167,-3.216750358595638,-15.575804060489752,-14.725157605144998,16.07739753536392,42.83591054701708,35.79061298853904,32.90571787729996,62.23895103675149,76.31173972878054,48.481379405522546,19.63638446339288,12.786396647854897,3.83594234964916,-24.352160570806895,-42.296096631910856,-16.233255465675086,11.683900191652869,-11.866834680700276,-43.33839270761996,-36.76759254682358,-21.693870238503134,-12.658581603596858,-10.13108954567543,-33.5656258560836,-48.791791695635006,-18.555494008556202,9.578068337422756,3.5879730603418736,-8.347848985294048,-14.246378652396682,-3.746280192076471,26.896045728255316,32.06406987319856,1.6015324488374905,-13.385151723292655,-10.749375639149932,-19.051200710697195,-18.518157607283946,0.6861754313905863,8.337757148427324,2.2899634762121606,0.9658094377712674,0.6252371581664464,8.394126800775698,32.45744106856675,29.92507655806642,-10.089696910132652,-9.75597183705814,33.015210950852975,18.982770515812554,-26.626901183190906,-3.031329473809489,32.14628999854973,-1.3351511544575843,-33.116892617241575,-19.93959050828746,-7.444505931059936,4.1245049421705495,7.570101126460354,-30.722391448944446,-57.58883699113275,-37.13438333483113,-40.666118275920454,-77.28033539786642,-85.54469020933615,-83.26379161269493,-103.65331675752398,-116.15087976716154,-112.04704931090197,-127.93717985120873,-100.98667640447975,193.7492899062757,715.1618139272548,844.0794745826304,278.5738112744576,-261.096190269559,-230.50467527131963,-98.93181683721997,-186.18472540189416,-183.86733560787087,-83.47773412413372,-113.21590176170393,-135.64425103833565,-37.08506666954871,15.739405573749565,-15.907954553770164,-23.009705488081366,-1.3238463508593128,-2.831790480544342,-30.352033843819154,-39.86405991163412,-6.10168796497344,8.367485511707308,-37.59988975764315,-59.925913053187685,-15.087722051121057,12.55775372677186,-1.8941773538789248,9.263928545627584,36.7930509091302,26.333430631822644,12.505287871394101,38.43287212735026,51.50333235326554,14.440162199375676,0.5835473083260929,48.968129092385624,65.77454154330158,16.015128779659896,-3.061622917872146,10.219251905008697,-23.317684617073233,-51.338340214778434,-28.420515813021318,-33.7661334432479,-51.91873907972799,-14.217560056758977,-2.6941469658949018,-51.891108908845055,-41.50032239582575,26.367473315762332,32.20115571822991,-7.4452409589158295,-10.704313055032904,4.147817259457383,-3.401623205124053,-10.61580572580851,8.876984138430396,25.82964313388079,7.239057101962661,-17.89620148448152,-20.312450727669333,-17.84725766776601,-8.267479306062604,16.593715433636167,30.389046783601106,37.83637272408002,49.478474029863214,33.32799140372123,7.890099782678676,12.353441085043487,4.5741457533621785,-24.81525570551536,-12.16770958524097,21.937325641297114,9.781416409270257,-17.678623721107165,-11.809722641015277,-6.495363615163797,-23.199651418024857,-23.56336456763548,-6.794566557659223,-6.1315156097066605,-12.347054638193363,-22.51386357385291,-48.20021750381991,-49.629605107136975,-22.337978189485437,-20.11738716245625,-17.354292811593556,13.81229653925774,6.733600980978785,-33.42345576787129,-40.033514199467206,-47.41108375542294,-80.10069853465646,-85.47983093455674,-74.49500589891841,-93.83785292430798,-125.86076215200306,-136.3766538978723,-134.26478833675287,-119.00208798422165,68.90108014435324,553.096204056601,902.3139485137464,561.8205839521668,-94.68753447158215,-300.10495532712434,-163.78921081731076,-158.91381592246148,-189.5388551071246,-109.05898014139254,-83.31761797145765,-113.12165683922898,-83.94005653872418,-42.89634995967697,-15.383849708003474,11.674551915268818,-5.106188314747591,-25.16972074257081,6.366591498681987,21.624025238039223,-3.6347719581352127,-11.151576899981857,-2.6844949913915386,1.4955803609360032,3.8092044182318476,-11.066794769433795,-21.022580815891047,10.27151042189553,39.602891201659354,28.101191106490095,16.94601348824112,32.01856290409253,45.457550020026595,41.04233683786006,38.78320459007116,64.60054200073427,96.00390802226721,69.13350881940303,-12.925675229292034,-64.89163842096572,-56.859279407822896,-47.92416348218087,-63.658187210493786,-61.724674845227106,-25.701696638432708,5.349517865027554,8.020736125913619,-3.6361971856027147,-30.253594294091826,-68.08494877330543,-59.9516122494972,7.34753739996007,40.14596828018129,5.353959943379662,-13.38693337731653,0.8093438986346317,-4.39246136813145,-12.51318641827092,0.43482170998703173,13.504255861960106,28.25160873838497,28.687619233152425,-12.697197311727447,-34.55791242826977,2.5617357267870267,18.41858778319525,-9.073017250287432,-8.32974981652008,9.6903102028101,-3.9397025566332546,-13.993569151039457,3.643363867360602,6.639809948377975,-15.177577274443156,-26.828930961028192,-13.882432878645705,8.135786963985327,14.395222465542886,1.8025028539595507,-2.7348048383889605,4.424416309345693,4.633156732979403,16.021795084672434,42.96694226357774,31.00634194682875,-15.978787459547128,-18.122320936323604,18.786006956111862,20.49184733366316,-0.395150757481769,1.4128913124329436,1.1778039022816653,-16.393615148009467,-23.743413332858232,-24.856177301694515,-30.3487090863281,-18.72082648644652,3.54258681778375,2.303048464259401,-13.623073645909994,-9.225916256652663,9.403662890439362,3.495340949314727,-29.118321724430338,-38.64642882670118,0.4098259835986173,41.73613345549964,28.798212338970316,-25.536330203310598,-54.72671865529128,-41.23884537330194,-36.88229503294575,-53.09712676650069,-71.43956292146413,-127.82459401483096,-201.14058097246496,-200.16990118978944,-116.18134807186723,121.13286015445985,586.4257182188516,858.0343586943586,457.1393608119484,-168.19328723004742,-297.9254055687636,-117.51912269077823,-105.71659345135883,-177.85210485911372,-168.04663558062117,-149.6713490712495,-118.85332524402405,-55.09539526622453,-29.06824830576221,-28.2728956510201,-13.225211474112122,-5.818898805315893,12.920362800553749,43.978456815755,25.261559463777317,-18.922138924179688,-23.695400842810933,-16.361889796278298,-8.271844191595303,24.65268582075113,20.22795408154463,-42.92431097637807,-55.39707251438703,0.6373491770651363,25.92450282201778,13.764611757518278,4.407335871461614,-14.127606873145467,-17.556794893485936,20.124265719431655,44.792446014310386,30.036760627501643,12.918957318585282,0.6611309910306282,-14.650024161251126,-20.559192956093412,-17.413802498314563,-14.130824003125136,-14.019277808539535,-20.04447526793882,-25.62490167913996,-26.838588173086656,-26.456492477306092,-17.189443271498632,-9.099097937647105,-21.98441518570111,-29.17741165278049,-5.053591057761307,17.21262287762508,15.97633043368846,12.33310988013137,13.849201028391967,15.634252551722621,19.71224771785654,22.889053974754795,21.32815652274404,5.4541379587546315,-26.356629887035844,-32.02548143030698,4.353235090198256,17.249544803306108,-12.623195115344338,-17.16537179553719,6.256237369370352,4.959199028122029,4.00550632803252,24.74514688538212,7.7037477303405115,-40.773534927230884,-36.13892886773096,10.306502056696106,22.56050295449861,1.0172086355666536,-18.100161225383467,-24.801282021316155,-13.174070152372373,7.878367602021822,21.265540886653934,25.662649874763318,8.870446886726693,-20.61741355092477,-9.94381092104511,25.707794547553426,9.755940649833317,-32.82404537698534,-26.251172420541252,-2.279818125755428,-16.75340599509468,-34.16655990458645,-15.367164345868229,10.212517508482762,7.18518913313207,-16.228128049562372,-29.678980312549093,-18.278102150706985,0.9243945738109431,1.2351812172877956,-11.559572242766293,-6.090852830224801,15.708018947021788,19.690137661731406,6.202762323533134,6.74899708266454,24.437276116974214,32.523638890173224,12.756946908728732,-22.153621458006683,-42.97075156319298,-46.89535436490438,-58.60748572080432,-87.40165559018425,-110.46732821083333,-105.96553383011121,-100.9489479851072,-125.83012476623465,-143.11997323140594,-103.52656916452148,80.64889202861244,505.54204827066303,860.2599781681823,606.3562134361364,-23.169701570086232,-270.8286184645862,-148.7935810402978,-148.98765470001237,-214.46496756512016,-152.14239433735196,-108.52791601781641,-109.53490906013072,-57.54958483912136,-29.55240648590615,-43.450008220935665,-11.417925364029498,22.846538119721686,7.9550882686272555,5.179711968715823,24.451883344042777,14.8276966465358,-7.350406155047482,-2.896382426585792,12.186554187667126,22.10443207539336,31.90935318069683,16.80109287913057,-24.45573973903753,-31.75869459260995,2.4022372867689565,24.93371722351236,31.487870729203017,28.714471731222076,3.3503398229019226,-1.4213085839402826,43.37458407775667,67.65942939334616,32.84744138052541,-4.342820991779912,-15.66313631557168,-28.063952629246725,-39.12366657683633,-28.460416232619394,-19.80140139014579,-42.87304455087995,-69.61443988727491,-63.83492438344171,-42.13221376016091,-26.802550438281056,-12.752261245100119,-1.1663283380642362,3.3895355655386243,5.925088359699631,5.369046107962363,5.380980173187674,15.500277711788103,23.405235477771395,13.11181348299872,-2.5772280392662275,-2.886032056459854,10.011753191393524,14.569717342028472,1.244185252246183,-6.299355654817608,10.672331381705717,20.49877051601156,-10.171992395070504,-46.562396602570296,-39.661212715278,-10.854221694971379,-3.390508727773547,-14.342801102958667,-30.941863670810307,-45.032652278751634,-34.482428065539104,-10.885942294172196,-9.69254020313679,-15.258517784198258,-8.10055664184187,-12.726376568716976,-23.645786247641595,-12.756305696280812,7.123606682098698,22.36533095078063,28.52308004380749,8.246958455677179,-12.968608018947974,5.9901940816222785,35.14863417910759,32.65003234830651,5.613191633276227,-30.369630202415447,-51.28680115713647,-38.29789240028312,-21.610371297779523,-20.259165307259977,-7.929736106058536,8.61681194612527,-1.7777467145641683,-19.700787494689003,-9.93126030419467,13.266071568556967,11.14570917421372,-14.502863572561385,-19.884285418256432,5.367259885206776,20.135079717992873,10.358056035523969,3.5833761889043925,11.071762218892275,24.58715254499546,33.123670781832324,23.39368914284738,0.7715767531562134,-17.59493154762953,-32.85943995629474,-56.13351594561079,-89.27550156841274,-111.83954678766548,-106.43634923520187,-108.82755620341422,-142.9319960566029,-161.2045882659756,-103.17308180868942,147.68999870648054,617.0019149695026,852.9051543888625,429.098780491352,-163.24525160754192,-243.95602551073966,-72.77387217911418,-113.4160270890942,-185.3334772710512,-113.7415480974679,-61.64612784929607,-56.61980505505719,-39.44905640786452,-54.49145073782412,-68.40576808018076,-32.679773209167166,-10.31339271322173,-14.313624502147785,-0.19873214535009254,11.759174574407787,3.0587642004630515,-2.7638805622230684,0.9027301270514012,12.00160944570632,21.865694758647003,6.817428873041096,-20.877465155198372,-24.203534577211165,-3.926638191889203,20.67666396839782,38.73775203968182,39.26683753259746,34.16463729680666,43.402513022331796,51.54659325162226,48.7036139941729,51.243194244619055,47.83568968990013,20.318731112377364,-11.031181019135452,-25.29417842374921,-23.258101807545152,-21.43396227140856,-47.79338635963856,-86.12782518723274,-83.99254361007976,-54.62108644461152,-42.837443934415866,-28.942413589544415,-2.4826529963034574,-5.671697404914362,-23.981931437180585,-5.689182433159107,21.70679947016747,16.895137520547692,8.48785682140772,9.127700711380164,-6.884778043681752,-21.235824862164908,-8.877924962118433,4.647590267259657,3.176526803510031,-5.441369785913663,-23.099556339050267,-31.983594744927093,-13.550764683140411,2.2518299715314116,-2.5117860288054796,-2.4602471234962042,3.1728275281733733,0.0003671263529829716,4.01485488959255,17.250186483611095,13.152630274777831,-4.011523947693881,-2.450025293571194,15.139481068726429,12.937654676363902,-14.261822673870153,-29.978231824404048,-18.78978461673482,-4.3990963634965405,-0.2710928025670478,0.8202558785991716,-0.42276736114834357,-5.476237433276047,-4.452616370839575,9.450965019192033,19.036472693390323,3.1865334315561364,-20.267099234357737,-22.05042753890456,-13.689045777167172,-9.008663782319847,2.2782060794929073,7.477365095873131,-4.9640291604921005,-2.65784934976428,24.359610157012025,36.348646054706265,16.978969174652836,-13.129414460175823,-38.457285757136106,-50.73229588456358,-48.748857797404355,-53.26687200035048,-79.70171417221289,-102.8781197063516,-98.69402359949632,-92.18510605010852,-112.03410160935105,-115.87508857529333,45.04453873095926,467.2566581177298,832.6302753070378,622.0285564009278,1.5447482102553245,-294.5529523195304,-161.71167836970034,-102.41195014704498,-183.6229161682049,-165.18286045924458,-115.79990369241347,-119.13560021339745,-82.15345577497858,-35.64213152432997,-40.508136885669536,-31.424501312548326,-0.11322534828197828,9.163778813628914,17.588589596665766,31.46406986965094,28.5048098808886,16.75255811129085,3.0187627316845855,-1.5795660363254151,16.67308595150137,24.33270297624712,6.939836578808474,6.659847325616038,13.328040619243808,-11.25151722139581,-21.94625314720326,13.62942624434202,31.112091626079003,4.9607512061858365,-4.7522460912931415,19.481666411393157,34.74958896405719,25.742613059051546,9.573696747212193,-6.162436288958467,-24.695921566056388,-44.177186327713365,-55.485790052839754,-55.60594439443945,-51.20210296443293,-43.09834738641017,-32.250414190968755,-30.871854876700286,-34.19997197829128,-19.08805013228164,6.626512853291704,14.115654167722322,7.062507754957154,3.115246148961095,0.8950952625758326,1.4295102256465295,6.386333036576849,4.802903939078139,1.350008377901716,4.50314949684462,-3.1124329088737506,-17.543594424967075,-7.877201070022483,13.11136808067765,15.299326883590474,10.903805711852993,11.943524903979387,13.423963759678152,20.458128357642344,22.847505735313202,11.32387060853222,7.566778390993459,2.0364658597274445,-30.87547542851121,-49.85139209208117,-29.249501608556713,-23.944692248739948,-42.78848916389963,-36.20939678208617,-18.051281975198915,-17.00358636545282,-3.8310621615932874,19.403344854124484,12.476967251182273,-7.960612342062657,-5.010515826039032,11.55546354128479,19.193996430094465,9.167662897687062,-4.330102002112186,7.875466634551119,28.274817360689184,21.597882524989544,13.458443157580724,11.128784621603629,-26.38499170118294,-62.899919634183114,-52.47228703718163,-60.51632325671568,-109.80541006456069,-136.04624404251967,-147.48060707182506,-163.15525848902635,-140.4968310704745,-20.21258673416324,326.00643538041135,787.521200962196,778.4677745500002,156.33035706352342,-301.55272553649127,-212.99541838969415,-102.91995840876619,-181.88155041701663,-159.8217932176086,-74.00751244874638,-80.98965622272259,-72.41011358987511,-27.99447181161198,-42.49324615362936,-59.389942324566356,-20.27125505226276,11.883854127386524,7.396366472678945,5.464480275785248,16.380123265696533,13.841277765539232,0.052887746612641395,2.000520666624989,10.008669312049898,-1.236602722244979,-16.288945765847743,-10.649606548719321,7.287687513589072,20.04410327813444,31.82845689458105,50.291154152093654,51.984692594404834,24.587710794919232,17.44720176821588,55.29421352679998,76.5511914566268,45.713512027717,5.483515846420392,-17.445144966236533,-28.903708281570907,-23.030981768312248,-17.568028189010057,-46.24057791285623,-73.76094360659816,-44.21347363501488,0.7545501939001014,0.08172330182178911,-13.927360307996025,-17.196583095283415,-41.97494869205416,-55.679451624919544,-17.345147380897167,6.361233209343826,-11.596892857228447,-1.1885458408705638,22.1248324491678,-1.2524944759300567,-19.72754826785391,7.6040651208564105,21.37932813310012,-3.818404681978759,-32.10988143999839,-42.888612316108926,-28.65327223317178,-4.122343073427807,-8.79958082694349,-33.80208108759646,-29.893838866057447,-5.359486889826059,-4.758731249508337,-13.008910469246299,1.1134733459373507,5.207273070367876,-17.781486116927876,-21.261101433066255,-2.561609532317874,-0.7313173792365202,-0.03814064248345783,11.64930531672104,5.537814044295505,-1.9501408456341478,8.885999724947546,0.9112054856176321,-19.73073295352829,-8.460222725491734,7.0922342912515095,-6.796695601130412,-11.408199968852607,14.535079278697753,38.95064872923407,42.436970765329335,25.394526680710875,-6.4343027944036155,-32.6558278766028,-39.875705823915155,-42.68175324870947,-63.569933366109915,-93.80226941930144,-97.56327662230107,-86.8255197797595,-106.69791338241376,-136.63008435528192,-144.53875912135996,-71.37388279409255,270.0546928907113,766.3828623897475,783.9730892479752,186.14744504232033,-249.90222925962115,-171.08327575139532,-86.8186791335545,-179.58989025381922,-162.50055669484846,-73.82567020145223,-78.22825874159335,-76.00001747738776,-12.25644810394615,25.228017744200045,15.615301096000913,-11.484444335878056,-28.78666909321452,-13.216069132533132,9.235357555166578,-0.11317647066694647,-31.600439989471877,-48.8178760131776,-31.703508995248185,-1.7258920118349863,6.740252335370034,-4.134163060234695,-16.119917190544296,-25.42166077925485,-31.200543906314046,-29.590673386565,-9.843879684652522,28.533162358039547,53.27692007975885,51.715380054239205,50.958232220285694,47.58165147257626,29.758711626811586,22.094809527895055,7.899317319282383,-38.02989647794925,-49.901571067205786,-11.62714149429331,-18.816515415992633,-56.13607985700334,-24.70007734310537,20.66928490118677,-5.4211889832050595,-30.541523437282144,1.590109543700587,20.829411817215213,3.809320876549818,12.54426210860607,40.03906678644657,25.60118890104609,-1.9423085928960635,14.596075497238765,33.08513749264809,12.909452657500685,-5.7443099235097765,-15.850492641100171,-38.90284189891037,-41.78034734791828,-19.95255780956656,-17.88037465371765,-23.81745025476365,-11.987864002331879,-8.87566117012155,-20.17468580170415,-21.26059939342878,-17.94646365403505,-17.438133502695123,-5.0414911997721035,4.888244302791563,-17.519557099471733,-40.87027350481714,-14.22792043566037,24.126523038950268,14.489626993632706,-5.914577215521603,4.597518060115151,11.953075207110043,5.788311342545578,11.080547044232091,18.30460240744453,19.185409056594313,17.921328127141482,8.943940204571579,15.60066890048106,44.89818602270793,37.719220736417675,-18.184834580355343,-63.09510775490223,-83.6257272157319,-94.58155666229977,-88.24881342537185,-88.32672967449983,-109.97592119119426,-116.69260036990686,-115.55849480207863,-134.814566836603,-146.29129579938353,-110.33294018507699,100.84179685553644,572.990701409582,872.672119595703,493.01450138843023,-131.12060952040952,-264.6288583473514,-110.81865278559991,-145.4978128428923,-202.71509128348762,-111.68753279452287,-56.088436790083335,-66.76637289569177,-57.17797888603073,-54.6723764515058,-43.5416552957276,-3.1499273964799883,10.620911567491955,4.6008630973622076,5.99211693382027,-3.884772794867711,1.2498983007486038,23.094251029623198,-1.4639592401743666,-43.89318102744063,-30.39673927293977,2.975389530353615,5.198297345893625,2.809537963868483,12.407993034561603,15.533000271338196,14.521691690929677,24.390122431836346,37.78068590271034,37.57051548696271,34.58852213750653,48.22153875128553,51.19402611777009,14.389762819059467,-20.32431594438299,-10.304926098715452,8.426483040440342,-10.377950836575101,-45.77171218615929,-47.126285149432256,-14.189375929404548,5.170079580656911,5.392027536062827,25.732424685923263,46.533663554577025,18.463146743422786,-22.92079473417224,-16.65919510834778,12.409855992441196,7.291366985132472,-29.780933613048944,-52.78145339952444,-41.80400669139055,-28.8231020360138,-36.85074939984566,-35.7495175916475,-8.751911406583302,8.047420650603021,1.0141472410372412,1.9981095113096812,11.524800040593083,-0.7645527695755323,-22.380548887993392,-21.460290789030594,-8.618121961342805,1.2798630883652362,17.045956030087908,26.6385652614783,18.004360850104135,15.263338815168972,20.03912907948939,8.085747188194027,-2.5080486671814093,6.144807351473169,7.889791290895674,7.729718575246537,29.236304656746853,28.794755907959285,-25.979462078673723,-70.41504748451082,-51.47303836770508,-5.04135223458794,20.817404420521235,12.17476424582604,-26.38373901828041,-71.33369480508239,-92.63892836435897,-83.12602578577781,-67.87704462484618,-71.49781226699751,-81.62137364622771,-93.30242888476084,-129.36704587738174,-163.99245247629094,-131.4854014482023,53.947844847543166,463.65852785233733,824.8836197184658,617.6902779434122,-9.668893598846644,-297.4116851087399,-148.86385276325,-92.61048231217327,-170.19089866013405,-131.10642512239184,-73.17124898861618,-82.76083037241659,-52.44398852145876,-6.842191560320806,-10.671042292404607,-24.759315984861622,-39.997291462416015,-50.58309449884448,-27.58129736406815,-10.689588075546943,-25.64757157499556,-26.384238856236795,-6.019217826446043,4.121766006738545,5.402629443115994,8.170741526172383,13.244216880199817,18.750376092545114,19.516665955508,23.588623790159467,30.394309850810252,13.632551289901087,-14.572969755714245,-8.98880075033998,17.313228487746496,24.753797142447752,25.64525480274415,32.32789279199362,19.300216807521053,-12.540330104249042,-26.42411210769818,-15.281460429494606,-14.589213972265103,-41.770667967500124,-59.91519889815136,-37.45939343445099,-6.897614692378408,-4.705529229337056,-11.582224241358167,-8.866031267179407,-11.044146523372302,-12.723615514262521,3.2106022989773777,15.37247985964037,6.504555120624061,1.071902886479906,4.836409283270962,-0.7961803773338745,-0.7336662799087913,15.450961725114794,17.780008759011587,2.8103221602532757,-6.99723196462165,-16.68850680858541,-22.255332255597395,-7.651719426358077,5.357705837870844,2.0382477052668353,-0.5161939949009775,-5.392507275464627,-10.30478515533498,5.558044004869323,17.15737611791001,-1.951373143664045,-13.435653173936158,3.1377118810265134,13.919941102767009,14.295236814320413,25.764640498338697,29.726329899197538,1.5738366723647674,-24.203396427564343,-4.660288420014966,24.41169415647814,9.035859902715876,-20.56033173445103,-25.869229346469396,-36.81555131719274,-58.16734629276425,-59.786920826549085,-63.4932624247747,-82.48503417973504,-87.58436769430769,-94.08681227197846,-128.45945732968306,-159.87736560702564,-72.454107481289,302.0890468268091,784.0404876403492,757.8671196875127,144.81379673197983,-286.9981026925297,-212.57966873770562,-124.25865276261702,-197.14103975886758,-173.25466896473637,-92.49997937095398,-93.08840933494213,-90.08414421609777,-57.58516729649462,-44.150651820725415,-22.04409864385233,-6.650328216471024,-29.277059343331786,-32.67593023268363,2.579960526105765,17.175370925504602,-4.428038988024298,-25.565091451299722,-23.23130136581387,-3.2434376047922004,14.38976128484714,19.084032302207287,10.746951618607037,-8.697210484278797,-17.452683448069816,6.78193575690586,37.33161276472348,34.09580354293709,11.537981197324495,7.8074255746660315,23.927612768580513,37.89071619519256,36.866908724269216,18.604210651235565,-4.236591666056453,-12.886938617744958,-13.065300298316021,-18.216932093627058,-16.24178094397227,-7.98980748470801,-18.297976424960474,-27.20874287098618,-0.11814192780294075,25.537002429189716,11.775146262643897,-9.452703724329199,-22.97927989629199,-43.31969498179692,-43.01684857816435,-9.32692194690187,12.060349153078427,5.384897018577279,-2.3682999457631695,-9.473196797769393,-20.48101027839116,-16.85054936732942,0.7269139910580913,7.1372179516741685,1.535711455202656,1.681948735520784,1.6238660961842681,-7.638185857948798,-5.701071444295042,11.643237738243203,9.207060250312121,-17.128169377884223,-22.771949605239648,4.99778372732721,26.903447544895116,20.353976828130882,6.791559882598528,7.738493208540929,17.480855014812395,29.069328684064846,42.87212865961631,34.92260623187512,-16.22457849635478,-65.80618997636667,-57.47222160340198,-19.716552835641124,-11.791279570171856,-26.581310378468327,-22.151463020460618,6.0758135721568305,22.994900578734992,7.637219485257965,-11.325943783035658,-13.636482368828716,-27.2884014390225,-53.03112718592057,-60.86928998235481,-65.16247916973036,-82.98757966836196,-98.27052782968306,-113.83536043258236,-138.95510880361928,-123.43510086256825,89.24086710649013,555.4839676189281,842.8021179078552,469.72342114690116,-155.4117547729375,-293.9169866564092,-108.74619076223455,-112.41656007438047,-185.15773871592566,-121.644403683658,-82.24727178518897,-102.08081000747248,-67.42912358037373,-25.795622030386298,-33.197215887700594,-48.36683761475143,-49.43306172317516,-31.348470362209333,-3.127442248180717,1.7862715468432917,-12.46587687118274,-19.53145743785529,-15.935634391565404,-1.560464363291178,12.923534804840028,8.232119717820359,-3.478833382613967,-5.016236837772723,-6.0675191123593155,-1.9731598137735968,22.100504252668244,39.809659682964714,27.19648316790927,17.89024504500416,33.50298500120899,43.65286341210868,40.522120347595504,38.50459106328917,19.912751486413573,-12.979500506618491,-21.248941788318895,-12.045760978152371,-19.065362258241716,-33.952435393210784,-43.75787101519994,-51.86364359082755,-44.68084379404487,-16.523073695974897,7.511386132057626,9.064532546215965,-1.4140429850261231,-0.9678106500513013,19.0512030963431,41.2012302648789,42.72684157103663,19.9472670340346,-8.24247305812325,-19.981220265053288,-14.635167729479765,-0.04510085167291944,15.794098408757094,4.598954448429996,-39.66885053398258,-64.22299172689402,-43.91890599946716,-19.586298610196792,-12.166389811272042,-9.381583971013043,-11.248540563290327,-11.749387146273754,0.011263029550971915,12.762593829924779,18.617856484930435,19.303077352051766,6.002221853593559,-13.733068176329876,-14.346165591798986,3.0711509302968807,17.574367015699877,17.718954514627484,4.872728566319884,-1.775180284725451,4.524791612316601,-7.311729877606377,-39.066399335633896,-49.05030152388933,-43.879299559639975,-58.86469342332032,-78.33307698663357,-82.78636120291128,-85.05243675442118,-93.33664035804313,-111.72803231735233,-132.32224967205929,-121.18023677096303,6.367239613961289,372.5235195312224,805.0094905162111,752.1773054303648,148.93145347158222,-266.848080764162,-172.8632105869741,-80.18741377638281,-181.42762715879613,-170.94938050192468,-79.06490468777015,-100.06145806835275,-127.5117955389568,-84.38263749723389,-61.30682764738893,-55.07607782977316,-28.685011772029533,-15.25383905946265,-13.635660238636795,-4.568197715641276,-6.532226508729661,-15.443600317083511,-7.037845878910936,5.768091755955924,2.2971529410368667,-2.6866252120725953,6.835194490426229,18.464209800846255,27.533380835800052,42.56242860767761,42.66030739765863,13.378555320869669,-4.382714293085672,13.970269415384209,36.830920916242334,45.52802228868064,38.19606062976336,4.458031288862861,-31.963248965232967,-40.150003036664216,-40.14342960870862,-45.907159066182324,-39.328866796944226,-30.275955654043806,-36.47674337624461,-39.30790968481673,-25.239124814804065,-10.95217606770738,-6.998973859321536,-1.069498493152505,10.151570315825907,4.090502870377243,-18.653973034918344,-20.316852316998947,-1.362630410357946,-0.5996481020825009,-13.467373429689445,-10.87782928511525,1.3761191400076065,6.887027089801407,3.013317745141525,-7.32781704042338,-12.418864740014488,-5.257283568454436,1.6589194235347158,-1.885746054059819,-7.031862586133686,-2.110353567496051,7.554674963246606,10.203726685212567,9.191245157776152,7.841749938075189,-0.4036359305634569,-4.087992862384639,9.25297441585597,15.83513160878276,-1.7741998687770284,-18.575374474110916,-11.470033324822667,11.718563554864113,24.626732402618515,6.402450589400074,-23.38382415525866,-32.116962945058816,-34.054568765517764,-48.975063061584464,-61.7775949290251,-73.17948717276772,-91.56498257340242,-104.41963327580798,-117.29059544004019,-134.6818927617314,-140.20946716849417,-71.13393161268488,249.56334248457674,761.5281839140182,861.0136254130537,285.95964382821677,-230.00448190827103,-181.94207990835682,-59.02676626303221,-173.67326420893366,-212.05314713107322,-114.96331044057628,-84.01446138778337,-79.60834434563776,-43.60391554175534,-34.409243256478504,-27.821891635793406,-1.2331173155958197,5.30333094098077,1.9466328016581969,1.506248955106134,-14.896974448044254,-25.289792590674153,-7.4139550365457385,7.561186516824172,-9.743490415116462,-43.225326215181354,-55.54457771159553,-37.254166487701546,-12.295876793251109,5.401599552415847,15.091073088571111,12.941171434679836,9.875918994147916,17.495119702964033,27.663732227058187,37.917527587597924,42.14802878324896,22.393045896734513,-2.2838024045007153,-3.611164030459178,-6.5019598765785656,-26.224100063637668,-31.241164951196552,-21.956532844878453,-24.83127534992862,-24.963829941049013,-7.375940836928283,-0.6039645298322469,-19.6985910040744,-34.67932096950011,-23.243603954902316,-4.074141222713305,3.4760567213729687,9.005388939391075,14.472568531476087,2.8619500870821675,-16.573676288778145,-14.791856389755804,5.322581286735306,15.66798968275014,7.144088576524014,-2.9638660182193295,-1.7060645139877009,1.6426495443640161,0.7554746361970339,3.441578776104647,4.446383667948056,-5.649715932279689,-15.227727701880054,-12.451327105276977,1.800027392481088,17.20258470412617,10.78146463943171,-13.453390528062155,-14.384878712629682,8.993985530437843,16.005306115682572,5.5839006720385,1.714437551106804,-1.8420535674934193,-15.513929127880349,-21.35533310535337,-2.744211972290989,16.842339209304345,8.732875788854669,-2.5165852791285275,10.888521699619085,29.717947264151785,45.57562382323855,50.669797719929086,10.2574889335407,-41.64813762727406,-41.59744085579403,-27.896768840360096,-41.727582352490856,-57.930398162398184,-87.2383827463066,-134.45232537651765,-153.2296123405457,-146.6917395980464,-150.65869710934865,-123.99400005705051,90.54540412467517,549.4621208623545,831.2329140233833,473.88955934668917,-113.53482146867023,-233.59728838296246,-76.50054103757023,-106.20647939923673,-163.8858472838379,-90.57204678540259,-73.62388387049407,-102.18866935588844,-54.71180798801063,-20.554062211763238,-40.39806948764541,-30.494751244418367,-3.116726180913311,-9.42654478941904,-28.998111198066866,-31.273763287439955,-18.2930502874433,-11.411636707422723,-17.073636947532933,-17.72858661643623,-15.482912539409739,-20.50521736243893,-14.285721880123907,6.490150513088144,15.030587225492631,8.241938036540184,3.6931294363354423,6.426548880369873,18.092652735843558,35.92095124977902,44.078013056743245,38.815885854450556,32.207563816738826,22.37007158765993,3.04345551525458,-12.113925115563674,-16.57991821324385,-27.543508705713517,-45.66980364722817,-47.49112033969184,-30.844224514554938,-16.385015807458352,-8.705413308757896,1.3024760141345615,11.634708568153798,18.397298850790015,31.32573439098266,51.51919435272318,51.358363561617,12.731812180812984,-33.56385937124869,-45.41097948648613,-23.41527338884247,-3.4360665224703695,-15.566513650026266,-49.83768119482669,-64.44080756044187,-45.72654944232049,-24.240942515799667,-17.13819501888348,-12.846053031684132,-8.928565163169466,-10.699376605755356,-9.33144274138269,3.1620640120759322,14.584268876387357,12.941969394217061,8.959011077107066,9.865584487076836,2.153492011078491,-12.133498384837715,-14.772439701620062,-10.425124730155076,-10.616872583098935,-10.532888280467073,-8.654537903101328,-6.000020513587996,-1.0051854492177128,-1.1729192607161512,-5.7716270053285665,-2.9740961075295473,2.208988155987189,0.4375341351076809,-2.8971499495474893,-3.258340048454606,0.26777563532607784,5.945553973560532,4.885763696185829,-1.7556077521893085,-3.565915702438151,-0.6175117945204882,7.5449041867477264,24.16721658053506,32.715791119742306,15.606520926587397,-10.833568502733666,-22.66992864024335,-26.94922854977412,-36.86079580386133,-47.826910460679265,-60.64454355639536,-82.040412594298,-111.10545665280061,-141.59272896033184,-156.7886397494445,-139.83729253911844,-7.007542661191735,394.2030537415672,855.0250592914027,755.775843432559,92.03763843874944,-310.3321902154994,-188.13883647700243,-103.3505934518599,-196.1091451090872,-177.61249285998352,-115.33753852270257,-131.11839977999725,-107.97220203463542,-52.78240902279205,-39.53605226296897,-18.57432506702319,10.685589805407409,11.52236049841347,5.183160352525199,-14.627601301325807,-42.83311509767657,-33.68805157075826,-10.131311162255429,-12.341372560864059,-14.588517345230528,-4.940535377011944,-2.7066217368910372,-5.401597494124498,-7.508089752073907,-9.377716679079946,-4.161614680721824,6.145744909287075,15.2965762708092,24.66710112619055,33.051034787258445,38.78671132322085,40.65054910329268,32.831903949617725,18.32017746122373,5.577992357607945,-9.159314421426338,-27.317804841067282,-38.050449111933915,-38.142835874093095,-32.6563474405467,-23.92696728826227,-18.139195774762555,-18.93308290432052,-16.288289538207266,-5.370168121178956,3.546922646737698,5.799616462205114,6.1248413560841435,4.830659163582862,1.889048256214696,2.757968779235589,9.939884873170632,18.062132022168647,16.41295070927643,0.09607008496659208,-16.192722193227695,-14.646537806701485,-2.876725162369871,1.6428321040732163,-0.3363707671730043,-1.8321656730756883,-4.090997810645744,-5.658944716322402,0.5452787728861295,12.83910733211379,16.93637775972034,9.370198133969705,7.920275645272421,13.709119790667827,4.14023038956609,-15.62646887379279,-22.376859509897347,-22.98699064987536,-25.642296272552265,-16.59021750451396,6.67178120431243,33.10850989545681,43.33321832714554,18.16056777510015,-17.250479908306048,-25.648717166113485,-20.14756698267005,-18.19094653460506,-28.61178872903318,-76.8837155827644,-133.69909201732358,-147.01904539894548,-149.560476006484,-168.46285453824197,-150.0274911831454,9.98390976873111,415.8568101130894,836.9742081759825,717.1016212524278,98.11991923052179,-263.91519431255057,-168.59363100608252,-118.02658942310622,-201.548951247961,-164.3854594122788,-96.34934291582738,-118.80552452160995,-113.27536251610748,-65.20364706425238,-49.67358996978814,-34.55356200704017,-7.574642055431955,-8.377743951848366,-19.478074836418322,-14.289942027461308,-5.528975981803395,-0.5280798565849345,2.848214694985529,0.34429607355104785,-5.888680852441997,-4.6726671697203885,8.804485498528042,22.441987250361716,17.58121640215535,-3.3840345072111875,-12.934862619580606,2.6150508472990914,24.244081543205834,36.73039356639002,44.0624687928792,43.53633347009198,31.8040321419295,20.331629535171057,13.268404160677601,3.419025661064529,-8.879369325250888,-21.95690399825015,-33.194676516424266,-29.552163079274486,-12.26256662769913,-9.591134868233283,-33.88992615370266,-56.983177805377736,-52.09206733188165,-29.68774953688037,-11.68714231216761,-1.3216496257060388,3.877118638589131,2.5092635193865416,0.8336965484293337,5.517440186419368,13.433324193126067,21.68169037860943,27.115840229533532,20.859014031407224,2.00640233283265,-15.129576212267471,-15.5659995952817,-2.598204546186169,3.551538833859464,-3.394933582686324,-6.457593434276365,3.1392642417416186,18.85340382651162,27.839806571972368,7.5427484644377305,-35.784461501506016,-51.56845062633775,-28.418684613221814,-11.385036666247887,-11.09969598060841,-7.009733554044704,-7.559754566992956,-16.26567748416953,-11.393853427400739,8.93118535547066,29.075640685366906,35.11200392566029,13.331390743267448,-19.789652801893435,-30.95255389553379,-30.715639978265607,-41.1629993974922,-55.60491398140668,-76.38665826697093,-95.42406596972933,-92.71597540406387,-101.85560065139565,-141.55017889541946,-160.35552087852204,-71.63187690087786,283.64641449246847,814.0510146124419,882.8225527641382,243.68389210186223,-293.15150720112365,-215.7637354824063,-80.93200777264084,-189.01882365262946,-191.6130825240745,-91.67596109100532,-109.42340386889403,-120.18997370837508,-53.305728962889546,-30.027614348817067,-27.513049294949724,-5.030634052201719,-20.04163696270421,-44.990327515259764,-28.733551349843587,-10.738897304685928,-13.104862913104938,-12.466286561012573,-8.389313671701196,-8.946861974851288,-7.274258784598178,1.6231051156701577,12.383057246380476,16.881844067662925,12.511892388809422,2.0228460158390895,-3.4314239172803047,7.602905940429043,23.076551770850113,27.512782256893384,30.068855300456427,32.37955148919392,23.51526712502585,12.247816225644875,4.17943833121151,-7.843432374863237,-15.310370614130077,-14.205908730407991,-10.566475038900933,-0.5920682356856535,-1.5821659389793332,-29.856298125341446,-46.547051434706795,-26.820536927299308,-2.913455853672559,7.092186766249709,0.8734108735986403,-26.13106688998166,-41.87202346530368,-25.426430161589494,-10.646995345729572,-9.797105430708346,-3.3933285426002087,2.5927428151964023,3.191710057264668,8.232662449964408,6.78855600650053,-9.056918108817426,-20.131316462172418,-16.375649874301992,-10.832000751418832,-12.027808017876314,-12.359192637380717,-7.529208099082801,-6.134471708243554,-7.54885568047032,-2.003885047073166,3.8165777206468787,2.327752325010775,1.9030549557595964,3.218693087658389,3.381557609130014,9.697961586724638,16.838859215463607,16.072972988583686,16.37097969990187,13.107581621999367,-8.249067595521545,-29.197442499327003,-27.391515615987984,-16.06778826397018,-12.096180888491926,-10.78524862530901,2.30004124382245,30.488687849478858,45.8104920919641,25.964793227946856,-0.4681702958305207,-12.210510446891886,-29.754944217238307,-50.13334363523746,-61.596519823419754,-83.29220651408585,-102.67019652547557,-100.50569254838888,-111.91528914791132,-141.89879858504358,-147.8601115839219,-36.22946192071058,349.7874108959532,810.0040168529283,716.3541534339106,68.3505321233722,-304.4013339714354,-170.10146862442608,-98.84033127043865,-191.95908131604824,-147.19054893120312,-59.495242329471765,-71.1120525579033,-67.19490066899782,-51.15471434399024,-76.83198492159028,-61.959059484138706,-14.316676698488841,-11.858545581635859,-19.649631878902248,-6.828814410750276,-2.9155873585556336,0.6658803039144345,10.30462930771197,-1.46348966967982,-24.88989519934428,-28.465753060741985,-16.33454891288534,-5.541504692725512,2.801301634916431,9.822209333485219,12.332889086187741,12.710718658125103,17.776412422468837,28.595689629864523,38.89652002864602,42.27829107734039,38.27831277220912,29.771671186977798,18.2728805846832,8.56378827432545,4.250726383341146,-3.4789216224965918,-16.56719128208398,-21.51904922517575,-24.028070529823204,-37.60188343138965,-43.46373429852274,-30.589087539016983,-23.941596303296727,-26.391090958897315,-15.668085759731401,1.4502958050810557,8.452558043654701,11.466006827999005,12.73482470776102,4.954469852134026,-3.859187999928629,-0.894930033484818,6.0825703642678866,1.0088753905612755,-11.167571045216619,-13.549512842461166,-6.704732143716049,0.7795110720095035,9.02632259870144,11.029887937617945,-1.608758809262497,-14.024513836490286,-9.00849694814124,4.882936211662948,9.267484149325586,-0.4277978590488205,-11.034215106892962,-9.39899886999174,-1.8492880492317085,2.7006933448702517,6.151041330693078,3.1523148194516635,-5.584756078607506,-1.746065901230946,11.540830875973251,16.022860509870952,16.722840455429964,16.777127655940717,10.810963597326399,13.962569207732788,29.571954938267403,33.411143875137356,15.867356949994154,-16.206376691399203,-44.177676356651276,-37.15784193734564,-4.929979164513577,8.107076321169995,-1.438763763170419,-10.375149582458517,-7.9832940385305005,17.539417527403465,47.593771820151694,35.48184254126203,-8.813041368303153,-42.277595906048695,-64.26593733398,-75.76230800698298,-71.12115521053549,-77.46609224586285,-96.47418629636073,-103.38333585803586,-113.97928554221679,-135.98483178250203,-149.23145275804274,-79.87672081825096,255.11900960417196,746.8595813586226,773.7088235943486,172.6382719755729,-282.82931603337806,-188.6374433887938,-69.16485053821494,-179.3682428492014,-205.77003114891244,-110.1714037845242,-79.65409370697729,-75.28334539846676,-43.12081249484556,-40.749727880523785,-52.74847361214204,-31.479726391571223,8.319019181224249,34.78798781159412,25.074989246130865,-10.482239157193264,-21.79085494173693,2.7772578135510333,14.0467324267911,-7.4902899164839605,-21.362744762189507,-9.061525559559698,0.5603996367250683,3.257722494195826,21.037359538099768,35.11667445985307,17.5529994487487,0.15395734436637198,19.603785443362288,44.990891389737286,39.94484662828779,31.164055411404846,44.52651986478269,48.58765001975263,17.111738771941287,-23.466857288206164,-36.11143029097501,-23.4914954050272,-28.99767240249976,-64.16523594073993,-65.09607609656106,-11.065184516106834,14.461385767118342,-9.68147840488152,-3.767720496436091,31.497886186143603,32.59359205475667,21.15614503226924,29.115606847182033,17.34361331855438,-24.523859851845533,-53.51924963826798,-48.13503241698393,-17.953559089676954,9.174214958718098,10.625510872914791,3.7085890185436146,5.585357645074215,2.477108834783177,-2.95286544084317,2.102381227201132,-0.15212087478681724,-19.43331860948542,-29.831499974633335,-16.173578093784165,5.292046901086208,15.170636570276358,5.960377535316463,-15.021578657807968,