ECG,450.99650297094206,445.8257364593295,518.4722367526601,567.8123323048881,517.3983139540277,444.1990604076393,450.0717680118827,520.5661946887756,519.3729406099192,427.48813512124,423.70332560436054,510.9440129789815,479.3313842717836,359.63726238892184,344.9193879744514,380.6129194404996,338.1043942091594,269.13652408938754,229.44528028977777,214.94160087114153,257.9991864896572,411.8966998416745,752.569148284805,1165.0708941281023,1173.7806825140767,634.9797822540199,180.30300636540414,200.05200744795707,283.9657627790167,199.2069270941406,206.02853696684713,305.6013448237793,299.4156423155705,281.8826109737548,359.9610363256131,404.24852339076836,355.7104261354166,317.7525506507253,344.83165205160094,392.62717010841175,389.73599954268934,325.5561508214214,302.5717498409123,370.4143636009752,398.0198831773665,321.1323221256422,283.4377364041162,345.26371120477984,391.3718023061848,395.53774584609323,415.9787730404687,424.2757474315739,413.79307253343154,433.6476397008024,416.8055915734344,303.78972130150885,224.38279887760052,251.70340948561807,263.1404939748727,213.2911683678018,197.66320937111175,246.442069570253,297.7305557550596,288.4254057347264,230.2855411695558,217.38440070539116,263.060744469025,275.16055461034387,253.76450805387395,257.79331779348195,271.5805149979943,287.4677416835303,304.6126801652091,279.1930664621001,246.83992896316363,270.80463426857017,286.1689034730489,243.13436280633448,209.66358869908424,221.40416851357014,249.29665325283702,262.5568886469779,240.32396014115625,223.15018880270594,254.28093256228453,261.0367159615211,192.5792707636283,142.39509807529828,165.56942376805375,192.09795350889067,188.6183571479633,190.95744437884264,198.3337619686289,197.91274989528097,215.14157019337864,235.33856937937844,208.11980771213308,172.58732093177218,194.18077941659743,221.84824099226626,198.082549087215,172.67418612656206,184.09493237445247,195.73012260375077,176.2721905254029,144.8414215130373,146.10266847307884,174.66248369167016,176.0364383325591,160.3968627504617,173.0135828826027,183.23375636082864,158.51464746196393,131.15936602850246,118.28852101232911,108.3068976992704,108.1906860248069,110.7387863824473,74.76041655928759,17.66574832478517,17.667057281164745,34.14906110642329,-31.55361431448489,-79.94241351825968,51.58560261353341,391.08722127691976,843.1662569179302,993.0015335299852,481.2480998650444,-136.7523575494546,-151.01981005780289,57.39359439719743,-28.11120616520762,-95.27191048041942,25.44785700801421,53.32067057616163,20.19271898150444,63.686335006823526,76.5720514775922,61.78063331746267,93.83899954994314,98.64658114759396,63.554554878717965,62.245782586978436,82.05544839695287,86.88265167374493,80.34332807767524,73.25253324846611,86.1072772465904,117.50032468815408,137.06673235832247,144.20845636454087,162.7626283305798,195.4364030729117,217.869015542287,203.1346273993842,162.4587434916192,126.88312831667076,83.9818978411713,17.900881849638097,-29.013453156482555,-26.392795794610493,-5.683216206640253,4.346993681929916,5.793657892093762,10.336755977624492,30.034645364324234,49.54955355033232,42.42242213052123,32.441145400986926,49.990799602840525,64.46062166082973,52.5882014947685,48.07791088868605,67.26295913488758,81.15221588693589,72.20364880548067,53.47918155966664,45.74774427523516,55.977775883744954,66.67050606110205,58.93566167387668,41.7697175972819,36.25274370615688,44.25191579573425,48.12439597085465,37.15852689955959,26.62684606271017,32.54105584545758,40.67501459089877,37.05833674297543,36.75712922244773,47.90968039722833,57.09226586206535,59.333503652147456,55.0353522625246,42.46518896189798,36.50684251282516,48.19846466959338,54.441997332800256,36.32777984104304,17.757729781093104,25.36292985546904,45.20159889233413,51.69336064703329,44.744698123543685,36.087533070537965,30.165475099716367,25.59329797849668,16.89822228461407,-1.8828470580364964,-27.507773355692827,-42.7632762478408,-45.735165461174255,-64.92585113814054,-86.30551847531754,-71.90682795848726,-86.19371190401105,-166.33051218848829,-166.89851809177304,33.41791436826219,422.40967053837807,834.9716633204328,818.6118666114978,214.32477872192268,-286.79287761652245,-215.78172979911562,-80.39344760228684,-185.12563935541317,-188.61807854318778,-76.93767007260082,-82.94339050962829,-92.44433842801966,-21.394131679325678,4.184449407104105,-6.835775758707772,6.295232727431106,9.51177548206492,-1.244421740437227,-8.83992679625829,-14.700647605091882,-6.6130676115516,4.683924225320634,5.770354895567696,20.19226618208468,50.55335207640245,76.75890349987648,96.87428885941145,107.10262811740238,111.08480178320298,127.9615823163472,139.63119728908745,104.75964194316393,31.608401251658908,-31.591358556479666,-59.54669073878872,-66.39968257143747,-72.02215447840973,-72.99378481907874,-59.620317643680615,-41.292323714127974,-31.438295719402028,-28.555841054919263,-23.625222334207496,-10.298664237209481,7.706082451653224,16.471704962346653,11.575102969515024,8.597058109848494,18.84925963570945,27.165249866821526,14.602678588107647,-5.190894431609593,-2.827407245233722,16.91932407786142,20.65624003525715,2.1788194881801757,-9.354242372761187,-2.720884958949312,-1.9110563696287732,-16.435174576978422,-22.21596779675791,-9.901809710450625,-0.745672255802988,-2.6006565141811917,-0.2082450142915926,11.225602241952139,20.129399733204025,16.170059728308075,1.1328898089790482,-6.814486038269276,5.294027123656315,18.343604565292395,10.362330933443541,-3.677480287674162,0.07461670058516301,16.093768553850044,24.724627335558953,17.959306502659604,4.346862239245567,-4.213790080680569,-13.203222360649972,-31.909084126913584,-44.33591494972146,-31.56450459064164,-6.795119893238496,4.58142034632165,2.3094730912353985,5.847780276566574,17.161839617966482,14.140783637056185,-8.803084299501357,-24.325495121508098,-18.312959639070613,-22.58475327526044,-57.53015967666083,-84.5126302047413,-88.132634096125,-105.57856896905302,-126.79432496977569,-142.59183699048944,-197.46334701185614,-229.17288694889038,-116.2818706842927,159.81444059174018,581.2902684001132,891.0907320699647,610.8566154667351,-55.437683842315366,-300.24475070406487,-112.78321346443708,-103.84696186324472,-221.11687935398382,-156.16735946319218,-94.63318081819976,-135.37631978092267,-100.55272891342,-37.60782462547149,-56.11130847539978,-67.16445153484855,-34.242791037379476,-21.171042830931945,-24.187328374777113,-17.009004335538158,-10.553552722757187,-6.024509641987732,4.566393656442638,12.163248505620725,13.064271814400602,26.81557434392099,58.643125474538095,79.55655316743454,78.26614461114671,82.95224091195425,103.3366902290847,103.30980999448335,55.33411396484553,-13.188638521416717,-57.95316554054304,-75.98562037519365,-85.46413588207503,-84.75945408679165,-71.72571061469766,-58.061034292657894,-47.191433618376934,-33.26957003635739,-15.35970222864075,-1.0177438702556536,0.8898147465324406,-2.6034002480354204,-0.1716154939315615,-2.1028176186344325,-15.102911705353947,-24.63310368741402,-28.583837542248084,-32.0779037759546,-22.84435710340417,-5.057523856461778,-6.5289321555078,-24.777296812883364,-29.341160079318595,-16.767407102664272,-8.493283416772947,-9.533832351861477,-7.971498267183254,1.4725325163491902,12.911680425305068,12.920842784027066,-5.862852511797577,-22.191813234270096,-12.091616557895183,1.9046548502446825,-11.855058293941624,-30.856752286274762,-25.336840862984683,-16.148785218134044,-21.50483280272802,-20.792085574279103,-9.168574990825363,-6.8339462387553205,-10.455455545860305,-3.6598045615860677,8.148257360754524,14.725916979810618,18.23860152547688,17.360955519447398,3.7847997072393014,-16.2733015804787,-20.64410599982055,-7.432565387305257,-0.4159150666364333,-1.8743228501237255,6.7292976232156665,17.57579424757249,8.902981409558077,-15.809131981878956,-36.71273410035614,-46.63818386604332,-55.170105833219644,-64.98325688268454,-78.71754101290396,-109.77132511226945,-130.80004317138201,-120.45997431766384,-145.46401807223313,-201.01042412380008,-152.7427644316533,65.06133434587247,447.3048814646897,811.9893047765815,682.9980009135337,52.18290119509636,-310.15954007272114,-153.9971587606674,-81.42046655269158,-213.8415950460453,-179.7235883449656,-79.814622254011,-115.17985243967547,-122.81315222353717,-61.30408648300702,-51.89352363650059,-52.79607495730018,-23.260227203309167,-14.795084801963235,-15.001980844416394,-2.4602149102888546,-6.770094248559218,-23.945956465222963,-23.39521388246493,-3.5116013471646568,21.805719229096265,41.18175873072481,49.09299310239231,56.613322671953,80.29180644049404,110.4791168565785,119.43610737081319,101.96821032300471,69.29385460809951,20.844483774287134,-37.65798630594688,-82.95531926024066,-102.44881310713126,-100.97965387163556,-89.50996541809667,-83.70523613777243,-85.74829008414773,-75.67582644133294,-48.78017107554431,-28.889771809436795,-24.16055934078006,-14.8227631043484,5.369376342102036,17.58183470843943,9.811373132184254,-4.930324773242319,-7.430984592865407,-3.3231902183406987,-11.609049162794495,-22.84055612525186,-18.04792458065521,-11.501173531016327,-15.59197456176707,-12.215321878389503,1.9490734516593555,9.104196880286551,6.565532629554241,-1.90746831726522,-12.083538747665575,-8.93436679995435,4.9300197127987015,4.078157866379744,-15.359594481772266,-31.29019304171126,-29.320734357709682,-15.10629039588315,-6.2699996852636275,-11.64677085001071,-20.01390105798581,-19.32553614049644,-12.292275428894733,-9.94774614883304,-16.48309620394688,-19.14048115931543,-8.819379434331346,0.31724667621073976,-3.638807373964852,-14.486811875861846,-23.06236096020009,-21.129312734555498,-11.675584963226104,-10.66052159743792,-16.033764869414203,-13.72212644101403,-4.494430513129771,9.774206290086385,23.01544761071191,19.224443402433277,7.521949301564458,6.908716200560775,3.0559768575691564,-17.038626691117386,-31.893418122113157,-30.3468983083705,-39.78541326191643,-68.27779418904989,-79.24176509215798,-78.06093421403496,-106.07020553813285,-142.3583753803695,-176.9462636544795,-232.81011527721827,-227.30031922561915,-69.79056918650863,246.1371948637691,676.1166124509086,862.3505473230915,417.11947022232454,-198.06589984335355,-272.57910037826923,-86.23530639035779,-147.1248217447299,-218.57066229475953,-124.51865660493527,-101.255107322812,-125.04146278862665,-67.77428999272661,-45.20785414711443,-73.49270404994772,-51.41421920301755,-21.883473396114407,-26.38590211060082,-20.54449069935348,-10.380633617512974,-16.079160498159943,-16.00307970723907,-8.615092648126865,-4.316438719961088,8.981984210426463,28.223692999536745,34.4149128091438,41.30567214377526,69.95581719122066,97.08458921213308,98.44602569689383,86.28712695564491,60.75654541965727,12.610529100414482,-32.69083430183404,-58.84416336140497,-82.64051154856958,-93.38363509789389,-71.09989469592315,-48.85315237711857,-53.95832865782927,-51.95798362429938,-25.449400142525064,-13.440303718993754,-27.397444644499334,-30.38231243457854,-12.895627880190059,-0.6468064523982271,-3.7783191022610794,-15.102265283556832,-23.128421265963368,-16.24590827503605,-4.728760999079228,-6.18597607959072,-9.56356930889315,-2.947767228998522,3.158507204607556,7.116443088615561,8.456806238537403,-6.994831334562871,-24.910931833271768,-16.627784228644252,-1.8135065856560928,-10.601883927166945,-24.332390915421982,-18.722180273058544,-4.995437993145092,-3.1520729051187715,-15.552601027393653,-24.405098366852368,-16.89469088135307,-11.065916102662896,-21.390017553200444,-27.845751197894927,-17.62903978555657,-6.269266824687772,-2.73295470569521,-1.5506995086344517,0.6424190030810202,3.8597329085121785,4.05854550193364,-3.3324042667622393,-11.990150964628274,-11.428378862217937,-6.726359595837174,-13.801266366966772,-28.205283539165492,-27.709025994285874,-18.85230454982315,-29.309580008024227,-47.497133541435105,-38.68053460239638,-9.221846345175681,10.260941652462513,16.131373885994368,21.00662296345973,24.549645970711936,16.312520782560803,-8.809587777160857,-34.044605984181665,-35.070144695696875,-28.642145735605794,-46.635400271520815,-72.24235205480684,-90.5619228667061,-112.77158736304433,-119.35629920319286,-131.65196480466503,-198.09262195180344,-224.01983535798476,-92.68386966434392,198.56822175725554,613.1964323333684,836.8067731655143,451.8963316058793,-165.90763818810416,-274.45556609126385,-75.34945407968921,-118.70884204964382,-203.5601197407753,-101.45170456633542,-64.29624907554826,-120.93361902640083,-89.02849117364127,-34.50982894184101,-36.58391227540633,-37.675086035650864,-29.54722172075217,-25.81581945909562,-26.918463660725656,-47.121439009136616,-54.70402652618675,-27.22563501803795,-8.475454107811117,-9.169346945342589,-2.026050080551107,12.930553415410216,41.84170988789768,86.06033213276352,105.41424422186476,93.5985865870487,96.62110327071461,108.96668909507443,75.16464444876486,-1.2164317560692268,-59.863324112468035,-79.18185034856977,-87.77404764581347,-101.61032333325193,-108.10242195744217,-96.43394204546422,-71.60362764791418,-49.85721047371233,-42.006199914617255,-33.46134313368245,-8.212499101097876,10.64217930062734,-2.0554799341977628,-19.779635811324344,-12.866883139352403,0.9476611329112785,3.7045568800775683,0.510887386009955,-9.516441130749875,-18.128761413462293,-12.828122632371699,-15.05017301749372,-32.214366044491044,-28.098696628273174,-6.016261861059718,-5.209046448773993,-12.02427219637486,-1.3236742385791729,4.216899263197124,-3.106073672560072,-3.3285934060168643,-4.051290245913798,-13.598889933145461,-13.800690760842976,-3.1974350997500274,0.2878077938739594,-7.758722104707896,-20.08050642660491,-24.007142152362697,-11.999734188725576,-2.1154139533127,-14.103464643657482,-31.536670536017056,-26.52060249030444,-6.247677355935494,-1.2071985954439128,-17.25247174401909,-31.26873001750637,-29.06740644649198,-17.40896358644325,-10.111334318665797,-16.080943705175834,-23.342173178459973,-17.633852517124936,-19.30414755359265,-40.4988773477075,-42.72794255718445,-6.328976632850523,29.287406011820636,28.283747633824543,-0.08251270244771547,-15.017277433856883,-3.329650758512855,-12.224172977742668,-49.000056979772474,-58.40823018522837,-54.41871928344525,-74.31068062913582,-88.14754915174638,-100.95536621774961,-121.67398048294142,-117.54002073144505,-151.8933302528036,-238.04243195317633,-199.37325056581,56.3934477665581,485.2311243304644,877.0146938085351,728.4634831006674,38.77861123075174,-332.268213127318,-127.045077093879,-48.37116450267793,-215.26449373125817,-186.50088578330445,-77.56120415230403,-111.85849352040674,-115.74860809526083,-60.62412654728985,-59.45847870966304,-50.23037317710414,-26.0969328228892,-52.071657636025414,-64.28057306357357,-27.761283265653372,-14.25100697607142,-30.86583841057862,-28.15199249374561,-5.162538942026368,19.367166008606183,43.789625289121894,60.85250800549488,65.52273571187014,77.98166999615466,112.33683597151523,143.24247489798145,136.23994008477672,86.95218762770733,19.16165952005258,-39.2405536251249,-78.91061029232623,-103.90866134500435,-114.86578910263344,-113.51118733864563,-99.04895503086948,-72.82421514046982,-62.206486643129395,-71.98262280593089,-51.07635682124461,-3.8460291439739294,-4.960654133612238,-41.493775416258345,-37.702869605281705,-8.502310401808291,1.5375674106564716,10.089072617263078,21.600505867912897,18.649287019887822,24.059817891959487,43.473387171522916,33.25056766472035,-5.881887174542211,-24.07393422737355,-24.311752892917976,-42.502405486389314,-55.45575117690163,-32.48084366869028,-12.2150324338795,-25.85799388888372,-41.798506624047334,-39.947046221889075,-34.50909977573998,-28.340450706675448,-23.63385738441677,-31.723937923464746,-41.031590764189374,-30.7744597224719,-11.10909420086196,-5.242681676489312,-10.228381670382909,-9.33734592821866,-4.123552875624966,-5.852190992092758,-15.885815533481768,-27.592443121641775,-25.388241170615743,-0.9268269965628093,19.436998677554342,12.432992988973865,2.148220741364547,11.239328002674203,17.10624845767982,-2.1492472339112183,-29.71939337130179,-51.39867259931951,-82.13041607768315,-106.8626496459452,-93.4442433454861,-88.26840826447703,-126.32961843631625,-145.2859353227365,-157.0023446360162,-222.96339661287035,-240.5013827744497,-41.9094281131016,442.6819571127221,993.3273581898782,974.0780271681896,207.06461279664688,-392.6212428614823,-256.83560653008254,-60.235036256962964,-206.40778600417894,-252.79620712336336,-120.50317137148544,-105.11819240216039,-138.82617530475943,-95.4875865111853,-56.32622547907234,-39.258300781226005,-26.03849190782698,-34.85634328919887,-30.447007660188262,-2.232445257418483,5.893803346784942,-5.20681266991987,-16.860146664694753,-26.627741369695716,-10.379972882005294,37.09628463601947,77.59005680728255,102.26922296526773,123.93771138525082,125.17853731343763,123.60097857054593,153.00932514488935,135.28808433559394,8.052658940469243,-113.49886805387919,-142.8543045628399,-142.1195978003888,-138.16794393928583,-120.83142411844463,-113.76061982900971,-84.25070897560023,-23.769775664165813,-16.44120848544452,-41.74677859510648,-17.280245390992974,-0.11152637114495434,-24.233111095016092,-11.543649727428239,12.478417477818553,-16.15915493893219,-24.560921867535903,19.71246204426883,29.386231483161126,-3.1188317245823143,-18.303350363701774,-21.349843968581453,-20.024972703057735,-3.6816903104802385,0.3214524700976966,-5.878982406806852,9.317791504537695,13.979339678538398,-13.607562977155698,-25.613129272142885,-12.329347462411054,-2.6775697914409733,6.104662171855161,5.410379055703352,-16.933250125880345,-28.766111610126853,-16.191086574063473,-7.913823040179842,-17.217572395656237,-33.579655161068715,-34.64775243376843,-12.640506225723996,-3.7985264387655704,-20.024199953299515,-19.551334578897418,-7.912820185939033,-20.64332322198989,-28.67139494918051,-18.86470507977072,-33.696630560426065,-63.51220203281152,-84.68796470244865,-111.88742275937364,-124.59377151319318,-139.790153799071,-210.7572571525195,-242.7506441995119,-100.70705446885584,267.19173159419387,809.7421141275295,1034.2476337070975,450.03723170011955,-309.4024135964244,-339.8529781368454,-60.73732974416759,-154.64686631762922,-271.4021678023583,-137.0335519565173,-90.6612799887699,-142.54302879374305,-84.91054289500349,-31.430628744524533,-41.682415729217226,-14.319428009556463,7.070122382788668,-19.255435471099617,-19.767049721159214,7.2180626532506516,13.262273063713376,9.615471617421814,8.246578866443237,-0.05520190950683901,0.47499128696867854,22.06733598759021,45.10037553580816,58.118117736646056,70.96313583556324,85.27535340631289,90.97976685933946,75.81582716089287,35.5315910181565,-12.661025970127465,-54.61015829629463,-93.76395569405781,-112.69135253218161,-90.4510240081356,-58.6532326023066,-55.5474777139352,-63.56341192110703,-53.08872903220686,-30.515978814419157,-17.23793471461508,-18.953567972414227,-20.14985792074591,-9.109061950874,-1.8885790056306924,-12.927768726015145,-22.891136031886354,-12.18211339331248,4.263674835480639,5.999658839275192,-0.10125186963856692,1.3054135907385245,9.44805691182616,16.452114463294496,15.72617840792623,0.9291208154231292,-18.76449258104779,-21.356524363246226,-8.966677166672234,-7.938449416598065,-23.00673444365289,-30.00324669703393,-20.841745406272096,-18.50850177071171,-30.284832760079176,-30.014673444580595,-13.813531371640508,-8.917884335135405,-12.8986560929931,-5.999724739312114,2.430698107168343,5.9374356467040315,9.944213992916891,2.730283803970636,-7.220904871823938,10.382059399677305,39.807921006695835,38.155906846433695,2.7369038042268734,-26.84845386035605,-23.833300481366223,-26.83337653662,-64.182803465027,-85.15475658190272,-93.4670127998483,-139.54051413349083,-173.5390211160764,-195.9284754929147,-274.06449213545454,-289.59461715752104,-100.48543529898927,305.7758500228693,864.7194120864494,1082.0085295757433,471.0483376903016,-299.0652254100943,-335.75954984451255,-87.17574968952655,-180.21056810527992,-254.51106236745423,-120.72616485991787,-106.9930482982252,-152.9870444976188,-81.03328796596858,-40.37819030799866,-62.90061066217682,-42.15781701953658,-18.72232449077624,-20.690416931840232,-17.47636711649801,-32.03812986429711,-51.32427865433539,-35.06639733138664,-11.672676932754236,-4.274956880208524,10.827544008446537,40.411553560548676,73.38229680623401,99.7551367352503,106.46546120694646,100.1171588449203,99.62908398815995,88.29111134021021,34.292990011740635,-39.741173681143266,-79.52824356838114,-86.36510855014998,-100.47129154887887,-115.12003993441223,-98.81603700832275,-67.1092333026349,-49.40303585387559,-37.8747163885736,-20.288503763121646,-4.945648979594104,0.09760494719522583,-5.022626191870046,-10.686691006585932,-3.438060511993065,9.111227144903033,7.6271939659828085,-4.5874733243693555,-11.539391598999828,-8.433725249437053,0.14482747938225415,2.0468630664360568,-8.93808427133633,-16.1473479273041,-6.41739766744373,6.304636305613421,4.1640472931289665,-13.277198141570516,-27.357373921358796,-19.982920058965863,-8.8275182081513,-20.36153772212004,-34.07341895058293,-22.331647426634284,-3.543391649556643,-0.8470335970951481,-9.426730838512277,-16.805723388720253,-12.568037511982126,-2.631382138236674,-10.155083527178892,-30.21937632098923,-31.215093118144587,-15.39276979783742,-11.500076193446844,-16.94042796408712,-9.06189992901071,6.919374809729447,5.805705494677369,-13.039831389251034,-20.470724078399567,-12.617987861816037,-24.476162669475812,-56.3426295926095,-81.24433776809194,-109.79397461227846,-128.3520314418297,-117.9184858065735,-155.0229618095796,-233.78440116466095,-188.87637421247592,53.0792007333919,482.85390874218746,936.4860141108475,868.1405415720727,149.2998302104668,-361.3777098069133,-223.82943755988816,-97.01643782973997,-249.69375499990937,-249.10645489865703,-118.19246090453552,-123.68196932350057,-127.53623047437506,-50.442587196775825,-32.571126654907815,-49.74930982806269,-34.14689362097266,-27.73504136657898,-25.085519068054786,-8.070589717213984,-12.815616762681827,-31.696036931765867,-29.061218194069582,-11.430596948583794,5.681848030052219,16.77006630657995,21.356553231377283,36.28480658354463,67.71144074492861,94.73859237896848,108.32237983807056,111.29496682311436,88.47315756523263,30.916517509959277,-35.630118915667296,-75.55370130005747,-78.82400040100393,-65.37589796864886,-58.65562884254269,-64.03827929559996,-72.89892063476513,-69.71255125518573,-50.195150948435256,-36.73185006805476,-39.745725449916826,-34.887112684361355,-14.994546292348211,-4.668332179490676,-11.618903814390187,-20.217512730122216,-20.068297991470093,-14.247379459968755,-11.502859106822005,-10.88821683066449,-4.773512025295592,2.5479300949461,3.7465371088403145,-1.3296713027368945,-12.967677729618117,-21.88725857355368,-14.989442647506248,-2.2502402002423594,0.7157795286301827,-2.564425940493326,-5.321516835673487,-2.727820223422146,7.179295762693947,8.548000470029997,-7.5361550893999265,-19.368439454329295,-13.158813826866222,-3.240009179049707,-2.1508880573953135,-9.661071948701181,-16.774450223913966,-12.889346897023774,-9.10011682351869,-21.191316449748225,-30.170692979889253,-18.552737802242532,-9.915038186390802,-17.79042670655078,-20.100309742726218,-7.7502399875171015,9.400032536129618,24.657234169110716,24.024961900377505,7.9723026670206725,5.259007592297557,10.781423973048524,-6.847778608819432,-30.348911972369066,-39.359456025166196,-53.411744947994634,-72.6488253929145,-99.40150573645577,-140.35165939582237,-149.4455269332067,-146.8506358920118,-205.42970289243982,-223.98972086172463,-65.91943295987002,269.26155863885526,729.811110402928,955.6725071644197,501.7128444796457,-182.53527699267556,-290.6913985253708,-78.56519065616425,-139.4466113554738,-242.86361979608222,-155.3623214613497,-128.62436971282213,-163.3562743044293,-101.16757660871401,-52.07114138724062,-64.9255022551811,-47.82055507639391,-24.963675344269635,-24.73099815124238,-14.253698100462167,-15.546385585209897,-34.48674821099913,-28.00528623527193,-7.226197244819726,-5.0814078514891605,-3.760784918696663,16.019755315437997,39.29951100462428,52.848780722176244,59.73064535788605,66.65960837390577,77.63964855326506,80.25961791420968,51.76353630868465,-1.3801425799755123,-45.257343291042346,-62.575943981823315,-62.86794538647714,-65.47809953959714,-76.2295110213384,-72.8698722428347,-46.31135069791836,-27.769139292210937,-30.889220016977866,-30.9336100279685,-18.749182710584073,-6.372029824886866,0.1257037583068623,-2.838473675244529,-9.55188862353847,-5.764596483342032,0.2639212267781659,-10.348958294906915,-26.17195129478008,-24.057989230771,-10.87490327882825,-6.683915476710446,-8.966860278120617,-7.754196436370801,-7.569557207027845,-6.749052947784197,1.969840045116925,2.928887707376699,-12.859395362249764,-17.288608664536774,-0.7801448958860249,2.8718429052229446,-16.05555002378725,-25.692237085517622,-15.292595712543093,-9.921381846441363,-20.6562223706446,-28.365218157433855,-22.045042658864126,-15.2196964199724,-15.651561858600214,-13.150810339964657,-1.0819649843584447,13.184505479239121,15.453004544728238,2.5252071340129056,-6.757940570259743,2.694734965599392,20.643798761811677,28.749325751821708,14.608692296274352,-15.121812506689341,-27.973177129745693,-15.3992928899744,-14.71880932348789,-36.88678734904275,-45.05480614272317,-25.811601908119894,-6.2132126383326245,-4.665075768676612,-10.376199073944058,-8.150869769399645,-7.012682653577862,-20.634693965693145,-40.541464882666254,-59.83477493550612,-72.00245427210987,-68.71094954185764,-79.61927167246472,-109.12826677933401,-109.3753601236202,-119.06754751314367,-181.06363411100605,-177.34291559572057,-3.0759710332878853,357.25216154850364,800.0347748360333,856.8761314664567,261.11941417609313,-304.94332289254015,-253.70833797905956,-79.50828509108298,-189.98251160366334,-238.28698425726154,-128.70493134588406,-111.2364866541149,-121.31028267707428,-61.69616526118232,-42.48085029214681,-49.72422436514043,-18.81679291486631,-12.714258876527065,-37.6227330108479,-31.32340837506642,-10.719406223564675,-11.821588855099353,-20.752476216452003,-21.861154931521078,-11.672467470779889,11.79495521647473,35.4570473337049,44.50469500840999,50.88640642937884,71.78224469543744,91.51501674832981,84.58921436765496,56.55705590513942,23.900942916442936,-14.824153881997251,-55.75850265840039,-78.2225769349271,-77.85026447921393,-70.28127620469114,-62.171130765603635,-55.34595345442452,-53.74185543691674,-46.41311523001917,-25.113673185717015,-5.8223321385837785,1.122512955478598,2.470026164958007,3.339994442636719,10.905746137226913,20.562813258981187,11.412733277198226,-3.686862232179177,1.256283636009453,-2.4622240419423136,-35.83035508174035,-53.75705847633297,-37.47871560080874,-24.33379538930282,-22.321335364524035,-13.820912725528999,-3.7410609544185682,2.5086356440128057,4.607715840493434,-5.483232264178813,-16.94764592719262,-10.204893643638915,1.0275594480325374,-6.094694459008657,-20.701909475129227,-19.5900837017872,-6.898217058094602,-6.246234535127844,-20.31274426110627,-26.01968990180729,-16.225464662704283,-7.161540027672846,-3.6284062263915757,-0.25695396521037495,0.24624484535095803,-1.7066603016129065,-4.409365427745403,-13.448997631103431,-20.483654502486296,-10.400163739687379,1.3247834361640543,-8.08069031816904,-23.083075852950678,-19.623809395723434,-8.36018052463784,-7.203871795529377,-8.522423593054416,-2.5656996109249803,1.1796871572866294,-5.564379997968622,-12.827146172860491,-3.393521452007054,22.91492223778066,34.63109731727045,9.187940343157749,-19.672692651220895,-21.57552617300005,-24.672863616651544,-42.03564286201094,-52.369060849777625,-60.71293332444836,-69.1220484759828,-77.59473483877787,-110.15143382295982,-134.9031833333171,-130.86456946985325,-171.81539650967352,-217.63918554679518,-117.35123869795703,167.3936654238919,597.710938625664,892.2736954735525,573.8915015007694,-108.45130788291681,-316.4638648126383,-95.7773603620159,-101.51242974657868,-229.2199775794573,-142.94336233371598,-76.26697624369166,-144.92926086851472,-139.53699682034852,-79.82132845105633,-69.1391964033985,-53.07859272673287,-27.994428352986063,-26.649767085805678,-15.704424393639616,4.218331901570057,3.743532035681909,-9.410317322774297,-18.69583949521423,-11.286819061861683,11.937058121497916,28.329659639639512,36.10066406957399,53.349140052782985,75.465035843374,85.82364196858578,81.44367259801326,68.99322221090307,51.413412921259535,18.57147016418677,-34.324751278045206,-83.57979431558935,-102.13909883800316,-92.4527171117116,-75.49200031290498,-64.92183611891888,-56.9043779409132,-40.93881522247058,-17.657396412977228,2.131568998980061,6.507039024378102,-6.516937304251144,-15.479049414394105,-3.6895881105029105,5.711895944588722,-5.925942966790288,-14.639480564017244,-7.703142693194167,-8.34668747063477,-22.688018773711534,-28.323474471050858,-17.653269005986417,-7.966387140446244,-10.188011736737046,-12.29199146756206,-2.974074361921911,8.43643370947168,10.041354716979765,0.816508493387083,-14.25506615684531,-20.49041145666952,-8.02242651172606,5.307585247122198,0.9432065700423529,-10.118474133260477,-12.509041172785643,-8.448767570119934,-4.9808928879132175,-6.725686790690432,-12.326425165006867,-11.132531724943483,-3.356043519430351,-7.350390376885414,-24.78303043668769,-32.51866773872645,-25.30310398851024,-22.342171574971864,-26.911013303249796,-24.599490499752754,-13.394583701923057,-1.817442218562796,3.2028049100740716,-6.251593674982505,-25.143581072638433,-27.174702774765166,-3.3146393624701602,18.80631733700917,23.827147540691396,27.167865914056673,27.88016291226348,10.58362046435326,-13.026325683239083,-22.527465748543555,-20.5855426003331,-31.14434589753331,-72.48385290811018,-111.89005243139465,-113.709861706242,-113.27509458057087,-125.20933458856464,-124.34234715243906,-153.20447600512455,-199.63734066319057,-131.82910020568954,106.43492313704238,487.9013349740178,817.1315255031597,651.1764621993995,26.921528524321666,-311.20984021807243,-158.58757121087442,-87.03584584690317,-199.198978004197,-174.37219002520578,-104.18453215439706,-125.01870815098215,-97.21506802760123,-34.47708514092698,-34.132017123480125,-27.877299774809504,4.876816051807914,7.205294759181989,-5.589224250069805,-18.145965016987212,-34.48168356662547,-29.021932367993543,-11.429152593389322,-14.48552492740726,-16.958241107261763,8.95013185240622,37.44596897714739,39.931371249191784,38.11825756367989,60.476504048786666,87.24253696770579,88.91050403315452,69.44844659749877,35.45456463837396,-9.116381566482634,-42.60285641695744,-59.5300975979344,-74.24251858986099,-76.73806003750884,-57.82456151320729,-43.27694897299744,-47.21982096530071,-48.695812860824574,-33.4697579854395,-15.289722565250784,-15.175797563671697,-27.955805469116555,-24.1826588413444,-2.523098191096622,5.9586821368731435,-2.341755113564151,-3.391800235229752,7.841421402875509,18.417433240256955,16.470312697592163,0.24778377947448504,-13.379490336638263,-9.877730403807899,-0.5267395776887369,-2.3964032140804967,-12.919222543476291,-15.424232426592681,-4.658554678209342,2.1584423857831823,-7.143924082730614,-21.53940820751271,-27.51047689567362,-22.617494320565093,-17.341859780722547,-26.540662061627724,-37.97195615584443,-26.98320030901944,-8.837437991078279,-12.613488969410358,-27.832206123645076,-30.621114998810967,-20.241755539568928,-8.849425660145833,-4.398799422034429,-1.3954855542935647,8.22124133368543,14.423228673988172,3.8141902347006784,-16.656913471324515,-27.774565648608885,-19.904634529789554,-9.62493336894019,-18.739261046595217,-30.93516446520407,-16.943078117487104,12.171423753284962,28.009619913087207,22.928376725762895,4.979938196781706,-11.268625509508482,-18.867372803634893,-26.529997534531624,-44.11772263642425,-68.24970893817249,-78.33313986724865,-76.02331253351323,-94.32807593737171,-113.0912803633928,-105.07975417743455,-130.17363611552483,-175.2035603432476,-113.97173428338237,107.35509988323335,487.3338758137524,821.0261221963251,625.6175497150757,-24.42111077630326,-327.79870860551216,-133.27823451776857,-76.62482720859045,-215.61722280016807,-177.60324042582903,-81.60344887273234,-104.23478317311367,-103.19111823850949,-62.205072466450815,-59.71789870731043,-42.19623734521989,-9.399974968220398,-12.781326014289526,-22.3284846843846,-18.17539170597635,-13.06892750539467,-3.2713626866500682,-4.202829842844064,-18.211618846192962,-8.732423658864356,20.97418933409274,34.80997142928547,39.678369049077205,59.08583501603164,84.2397429117919,96.86290880147956,89.37344051727399,60.01748756347785,18.014737298272248,-22.87656162794907,-56.66840436648513,-74.91045185643164,-69.71937758466522,-53.799678179179026,-47.2775633351214,-52.57061143852317,-57.24109032504659,-48.05181867598526,-27.340720986159113,-15.670431745847342,-20.127888378587897,-20.576752330421307,-6.8591555978421646,2.7725624262844377,-3.1898933985186275,-9.232749161266874,-5.22245094942495,-4.853593373143415,-11.94458570781783,-9.685098051732988,4.241205779443527,15.477878725059936,15.750498020661395,1.0014345460237024,-19.86873048913251,-23.42281507683173,-13.024917350010082,-14.90098667861179,-25.638684943250908,-25.8761010617572,-18.603142365280945,-12.089019285194812,-9.765926354557166,-15.508466165926116,-18.31225858855634,-10.715166530898312,-14.15284576502997,-34.7835535556258,-40.59904387841267,-20.96943836402845,-5.027601302289021,-5.0183011009735665,-3.3470911752902595,6.617333850714246,18.592352184692693,30.988839257848458,27.384680880927633,-10.325371172182148,-50.27930686002358,-51.327732497812036,-35.01129366796622,-30.396554854265858,-17.536422406279577,8.072887906099083,13.624218375621524,-1.8438058144769016,-11.146693623623847,-17.385462765982183,-31.109256205009853,-38.099582524072716,-41.127525818310026,-52.25396384106166,-53.88995512092905,-55.918352319155474,-85.49766200844695,-110.00866361390538,-126.29797510667943,-171.56437814976064,-175.16054880952737,-33.95483240216075,285.3902235323693,692.0286393403817,773.2514387370377,256.4635136368073,-278.5308252282666,-248.84991120398863,-67.08304994560406,-152.80145465076242,-199.78429615344382,-88.47220953520417,-64.07802028174521,-85.61773397435557,-48.379194792108414,-43.16375496769848,-50.61604870771559,-15.311554974230262,-10.587235856359598,-33.19612901690331,-20.348717111612263,-10.718780385394489,-33.02046555024448,-42.594370801714014,-25.860572583520934,-5.791358625132057,9.966561496732268,26.694390218057585,51.30534618354401,81.39473804880924,102.05651525665269,104.53633789101558,92.86580328451286,73.84627657084981,48.395356456633706,8.215816769366025,-45.03295937379992,-82.7358425426597,-86.04573951461644,-79.25659416509797,-84.87780291693235,-84.74281221100355,-63.79071527625894,-40.013014199471876,-27.641923239784933,-19.85215562861149,-8.157516920182424,7.806378194353609,15.240944026002166,3.838519519491282,-6.929942472617128,-0.005939897310543785,3.605036859611751,-8.390966347902165,-12.814977294769633,-0.3103924579697406,8.565265581480542,-1.6255041091479185,-22.01571311657249,-29.464858154924563,-17.031971767494337,-2.1740333571184713,3.9789309427449453,2.778543723524038,-4.177694015060062,-8.171449802868878,-7.551932556317574,-14.773394978349359,-21.608431238242325,-10.47691732487348,4.722635162682661,5.351400213106331,-5.580262890028216,-23.948150306382473,-39.0672452078224,-33.877810001515584,-21.18641304589093,-25.0555369616308,-32.594476003306795,-24.57518313373221,-20.01100412308695,-36.34887865058156,-48.80423763229964,-32.76861098506752,-2.261380205064409,20.35904681536682,29.917580301403003,28.89222597457135,19.5367703311347,0.25862716097881133,-22.023070479193088,-30.177425219991736,-33.470832709627345,-51.532060643134315,-74.86764953109359,-97.75171906178858,-114.78022027358728,-119.17314328149371,-157.94314616601915,-222.44744416152184,-180.47681359052797,37.832419508821516,412.36307159282387,782.6316425338199,708.6163115287438,109.63406401760538,-303.7315241163378,-181.0131157789651,-68.73703757705735,-180.11044265585284,-169.54336408181888,-79.32477613190625,-111.40514800287764,-120.60515473574556,-53.10690250844413,-38.059292495452326,-47.552693092611584,-32.775129556907615,-33.80857167604649,-34.56905151595945,-18.97900493906198,-16.317405245524274,-15.216510757637973,1.0239863500310022,15.220970528318293,21.5146977845785,28.98834904617271,47.74852622053248,75.93163692110585,90.96200417940358,89.76502175776207,90.86906389149144,86.18625585981427,56.77744446689714,4.527611193546498,-55.86431093475555,-97.59876259216651,-106.12780754159819,-101.33203480257366,-93.64588624913154,-74.09173751443299,-52.985468293434906,-41.14267702833872,-33.54032458880204,-32.56444930681674,-32.3628651897655,-18.190708503099493,-2.4013368809453155,0.2667735038070802,1.6728768934919849,7.523550947234412,12.294551208835902,16.398723632318756,11.15621388837592,-7.203379076722683,-14.813933211451337,-3.544029383659918,-1.7609936248579139,-17.061620973810424,-24.336674296615037,-20.827291660238977,-23.804079914350215,-26.55142122289682,-15.15749893357517,0.5856129266772605,7.228979218478845,4.315940012091142,-1.9436922401778034,-0.36627788721140675,10.347659032348279,12.446654411856496,-2.3676421796695415,-16.326054841452383,-12.128269657725202,-2.12564120346174,-13.607118944893152,-37.9558382321932,-38.81062951736749,-22.06980262146256,-17.74280798372333,-11.980141435750863,8.629662092976194,12.035643929445197,-9.134553978001065,-21.732754332846927,-29.9849568548776,-55.337229479412315,-67.77430833892048,-58.0494713174756,-77.17550350506062,-108.36195225380078,-103.08844849751651,-125.55445699203374,-189.89871563081545,-154.4873658734092,67.5595940533855,458.3043636543415,808.218917895375,654.2435038128175,19.701930598067694,-326.6970730432805,-156.7789425736357,-86.62245194464765,-233.87762229586403,-201.95624989863992,-77.15064548559288,-83.50843564729499,-85.95834272602572,-41.10611158983256,-45.26001915446001,-41.162350496356254,-5.1805328178759105,-9.790222273850148,-31.32093513358038,-24.779752013254164,-13.58621570258563,-11.622720273589302,-15.867701177785172,-18.787702261760174,-0.10423837072320019,28.682010488954724,38.8755551071753,44.71509526406301,67.26397060261614,87.34580686167514,86.3767653268348,74.00623679916261,53.493408582402566,15.19489809763964,-28.282764316253562,-54.4406418536896,-72.29660197231695,-94.90161495037059,-100.34175888494124,-75.241230601159,-46.50884323094958,-34.06931976097381,-28.29716213552897,-19.709072279883706,-6.771380343869939,8.766291358603134,14.190662760484784,1.6008544277458725,-10.336541840412814,-4.738127813228761,0.6829934639242516,-10.316296473507823,-18.069047273415187,-10.662690685800143,-7.819934967987852,-12.71327989358522,-5.7989894313617185,10.972326001620823,18.701251935989685,10.373495755216005,-6.838599132589817,-16.322048632468412,-11.140471969857721,-8.772096578192855,-19.253142860580077,-26.056968802811795,-19.066957135476244,-8.537437319099595,-5.399738564776392,-11.576802733811551,-17.84187256096895,-15.77619855466114,-17.279428711503414,-32.29300653758479,-40.51576948078454,-22.89949297082758,5.603368345991026,22.48303752425853,27.804727989330118,28.585616428263037,22.799138702920047,16.82646389039674,11.166003371662196,-23.501906828067934,-75.90694956370278,-88.05120696642061,-84.77300261300499,-114.25254528430648,-125.54225763421213,-125.58629284801043,-181.6680060086576,-196.27424770429633,-35.95860195524287,296.6768188506868,677.434196368417,727.611593311371,224.52377024086297,-263.29297624410134,-212.1363727762197,-52.396262685685386,-161.7772085780998,-211.289036321131,-102.67398404257519,-95.12938423958741,-130.17867632504985,-79.91025592420876,-47.690428645356896,-51.60343091342364,-29.464760118748444,-15.721999107213428,-16.662839566806547,-0.8975288650312514,3.961705567645417,-14.816656105802696,-21.729934698015786,-6.243936364517211,10.439063015721109,17.119299191327567,26.051831386117765,50.71561438904634,79.32959097481003,92.09432817534015,92.09632935070394,91.65883098468271,83.03778969078024,45.24564271816109,-20.592663945788356,-78.99396915878083,-99.16162693723004,-89.23625292161992,-73.11132930455898,-63.37126808282788,-65.92563294373062,-72.53397439176098,-62.582775850169824,-39.56256562276566,-24.361364280216083,-14.3433929993151,-0.39343597284855036,8.69762723268855,11.242866037474695,14.978437282063798,14.41839568184061,3.98287204712919,-2.9917666428366516,7.861235269538386,21.38795892171045,8.120343224640791,-19.22117997889449,-19.36827497535383,2.467976007123365,11.802335976738316,6.779619220359752,-4.188628946780057,-20.871664276903946,-29.841899934744955,-28.75687193857638,-34.00411529125604,-41.535096569902976,-37.71198551308612,-26.994644536633622,-17.353033019005814,-11.269450396164139,-7.83032500852061,-5.907481264205359,-8.761076527321116,-6.582187542812349,14.080481336903315,29.788328604798064,9.90682662291723,-25.484578046076614,-35.020626351040974,-25.98224416229558,-42.77579334422947,-80.17492975365359,-95.73537519431304,-102.85560006178956,-117.90410955015406,-120.35135603030287,-145.32514078767258,-189.60025724705906,-129.57811028535957,99.09541722832572,473.79435115420426,815.4163971288191,678.650972104685,46.427454306031464,-329.4838559034863,-167.71165869666322,-66.09903138316595,-200.4458767123125,-202.18417021883994,-110.89006459630922,-114.58305159828032,-98.13050032611673,-41.165787281221924,-40.177086174002945,-38.63740796355884,-7.9689568542664375,-10.071516552706797,-31.30572961134355,-34.51506551530408,-26.19723604533646,-17.670485482312692,-21.493257842345706,-27.981993527255206,-9.263520989119938,24.62403644835662,48.56154288512924,60.86114373523925,67.53045933239032,82.20892337654675,106.10346347642299,101.2647365122078,47.58118181784232,-17.923809096800664,-59.15717082517016,-78.25221841663227,-87.07722770741314,-83.07351780817902,-60.7987794193881,-35.51361777722391,-29.958140605626546,-43.2916744088691,-59.78115169169413,-62.21153583790771,-39.3857151978615,-15.270462473719903,-20.698843279937286,-31.60617865483232,-16.79546557568054,0.6014752702683879,-1.856260319524985,-9.904052176157638,-13.130519973202137,-13.957392945128738,-16.430685620895595,-25.89703557266115,-32.847976729214125,-24.00667924804687,-12.07305358917597,-11.574610572937743,-12.262221234600538,-4.4037897893895455,7.009565344225454,14.340453492740325,9.936570744259633,-3.6337143871003654,-8.370096552173287,-1.8118640414965306,-5.419698108450106,-20.029021314350743,-16.882676129231047,8.670059367139036,21.304124544902734,3.2275925887484043,-17.998145462746965,-22.32041860937141,-24.891497407951732,-34.1891216293636,-40.478768057173156,-39.52420834445387,-39.53258188352585,-63.037467995982155,-102.99671639007366,-113.70902587635372,-118.73822614335987,-166.3862073298118,-179.29685450050414,-50.41138544625743,264.97801121134455,679.7847873698677,765.4583060012783,246.82956783057313,-281.3881840692941,-237.5479208045563,-49.903620010950476,-140.9468583545032,-193.04768974404453,-81.05121544334764,-59.972695946808244,-95.47639830887036,-67.55204943618557,-54.34692699463596,-53.298694959342235,-20.035134521907562,-10.319947740249598,-22.52157765174529,-14.182644872691199,-8.084167856897906,-16.00525660202964,-19.69793995137585,-13.657855068768644,4.812308628169795,25.914959943704154,41.072001511046395,66.4124651090479,102.56824396310448,127.94356649832487,131.08002625902722,107.6400334208494,66.90770383336161,24.50059423787953,-29.64784313202556,-91.85575447237872,-119.01078714648284,-105.63824027168933,-95.90280350191185,-100.29123291360274,-93.1684303451591,-70.60564619476145,-49.051928209979174,-35.24803024249598,-23.171519362372234,-7.572214918137014,8.965414700100137,18.39661179182977,11.39153210536427,-7.292841405416048,-15.65492490965816,-11.40580162804347,-15.295869816837595,-23.373970196968017,-18.40731533472397,-11.374196348908733,-12.53131865953462,-8.870222424532535,2.095324475129079,6.153009498122991,-3.697606801634951,-17.138887777246076,-13.464151757772914,4.443810859191579,4.81650441212285,-14.667346034332056,-21.465094511342087,-10.607220052655641,-2.5233644040614003,-2.7857920716317324,-9.06939636725214,-16.31662850548605,-13.959637355877923,-8.213757649263353,-15.785674141101552,-30.753710846179423,-32.73019987208434,-18.074562573093615,-1.4697967262940956,7.893296590445988,16.899206634900686,27.08744154665295,20.511396687246894,-10.358046689306764,-36.5571916575607,-35.37849599314529,-34.45491844625637,-55.670699335927054,-75.44203107512716,-87.09713384251627,-98.90580712235015,-106.69204283537763,-143.1967760742948,-199.20057581127153,-160.07157925224868,34.782211823743495,367.5173666215227,707.9247983040264,665.6176771941127,132.33348113103014,-268.1195123748808,-172.54196786373558,-54.38945955869877,-150.45291687600695,-158.55991222354214,-77.34244435898411,-85.8553234125274,-90.38169734702893,-56.58836978570737,-72.84838117220275,-80.56922915238567,-41.149913429123245,-25.53443276940076,-31.565828219663555,-26.03102435389556,-21.973842721462624,-14.058792571735026,-1.2875396943215698,-6.510970555527543,-12.733666345209912,9.878435947645187,40.7290193709099,53.572618233827455,65.17031171839075,89.81372352785027,107.71661964366088,103.55497791788301,77.45616086900691,28.89702053850513,-24.23509146291857,-55.792463597771935,-70.67458533651521,-82.00030019237981,-82.20479650637854,-68.7492808455896,-54.89030512015149,-51.31305965088847,-53.8795073683896,-44.85234339991983,-21.882845421273473,-9.062162973601303,-13.897830334554225,-16.586226936929748,-10.08993702083206,-4.097089436937807,-3.4811549614836608,-5.693850384507183,-3.0204485126357596,3.1008262136194844,-4.12850221803054,-22.986091737561946,-28.490103865231923,-17.973702161615968,-11.157843950427342,-10.930522495685423,-7.047808589633135,0.9366984448949012,6.228393630242341,4.015769756813519,-4.678662970406851,-12.231084516772604,-11.370093080148564,-5.175679577962558,-5.481762989469033,-15.103962283951436,-20.847593745484414,-14.360273734678263,-6.219543073132947,-10.556527702175469,-24.06995713192118,-28.75940213702026,-19.529626376786705,-10.171348005509117,-5.226778203936064,0.24591008281206683,2.8066263712377904,2.8696328881592095,3.9744002643579606,1.8996466829142786,2.0273531536325944,10.080278803391042,14.63293101120729,14.952903186700166,17.095996134973863,8.391746407725702,-14.707976457822518,-36.542591988533246,-48.09381490088919,-51.18644132390596,-55.91952305569653,-67.21872612053593,-84.1623163865431,-110.7519197873918,-124.97307133726781,-121.44269212231586,-155.10490611303393,-195.50565800313768,-119.79942980183344,124.16628273714542,527.91496718218,849.3782599139297,603.8590889729442,-68.8727439736569,-341.3732041119786,-115.71870869665952,-60.17404811663201,-209.37458314212606,-174.19835445684504,-80.67353505594888,-105.55643860448602,-97.62856924825218,-44.69441163227515,-40.88890614933008,-35.91852762916724,-19.84587748004642,-34.51219277162934,-39.7584977813281,-21.444394942845292,-17.55392068064685,-20.552600942622377,-12.452575533159022,-0.21103905161369596,18.161355924928014,40.89743930971385,54.263207399205605,65.21202803941395,92.9265302758609,126.72806042966837,134.66728903294054,113.7744861948552,83.18730700987459,33.80604960292475,-44.34020812427192,-109.71584505277308,-126.517242680089,-122.40605159083128,-122.86306289334587,-108.44790871190747,-74.9246204365624,-46.69793625468022,-28.92448284822848,-17.20560894277196,-16.433700328178915,-13.493107764929881,6.383713319282869,23.924492890944826,21.356303592158355,6.9975021296028075,-11.641860251780209,-23.65987847151117,-16.927552518556276,-9.365542897478242,-18.420813409606218,-25.76621656681508,-19.867700557724955,-15.73997509541308,-20.295262041169437,-25.863725303911806,-25.49223392722334,-19.932814648751815,-16.45083791355794,-14.437397481701716,-5.400079399131307,8.765715026586289,14.111720713863757,0.90665623702888,-16.205043805075807,-12.176078763839591,0.9691578461102068,-5.665281525892844,-18.98917807799267,-17.36732877003517,-13.004556658145741,-15.2125650789594,-18.699317027739767,-20.60665828714335,-14.190576424511285,-4.430900620070183,-5.560063918023609,-5.737743736510179,7.329641115052034,15.27569818031677,4.511427540460602,-12.582705161019252,-19.01118198846912,-20.185002171144735,-34.30395504691022,-54.556188461809334,-76.39787407889187,-106.13921397685571,-115.0587573570183,-124.32403842522908,-195.2911498259921,-233.3698222913409,-104.49691350018017,197.5758679451976,633.2188021408907,875.4394109610898,469.81826481972627,-193.63413701966834,-301.256652630068,-66.90910665337161,-113.42247305204663,-221.86252436979947,-112.70921122508815,-57.325932758851735,-107.79099665964537,-75.69711625920942,-28.114414038673978,-32.069285149357896,-20.469918556557566,-14.480496020043681,-31.46402681787486,-27.88767346710603,-20.67039465729127,-29.0654490408169,-29.0432737366039,-19.581701847116168,-8.004658833737494,5.220498168078927,11.766146513849526,26.142758430517468,68.64060466794488,114.72410059233785,129.46461376672414,119.48697457089504,106.02358396051906,79.61131425509043,19.68269815931684,-57.148756571012605,-108.70584688724833,-119.52273663391698,-110.53561928555786,-105.20047246742365,-101.06456428810566,-80.7481788082107,-51.0013933117748,-37.37473302005526,-37.07716398689158,-26.23625614785108,-4.563652356293915,7.883330531470907,0.7045892247183403,-13.426972110328641,-10.207438336358408,8.440869340723335,11.520469317947317,-6.591554622151936,-17.82479595673894,-11.962995813827106,-3.621552468490343,-2.45072110782419,-9.65918317649296,-19.24928048154149,-18.981863117995022,-10.06929733984968,-7.33611199854991,-13.847696863601506,-19.46755873143712,-17.672469209089446,-9.930962420208374,-6.1828193816325125,-16.12167249063213,-29.105834053679608,-25.88431013020355,-12.41368856857131,-7.876413009453614,-9.054008657984363,-1.9985169244445125,7.632815027298303,5.084231984970369,-5.1432268326488,-5.303354844233198,2.491302602869178,-2.508372065249592,-17.78027522786934,-17.059146065167255,-1.341385697614804,-1.893336541440373,-24.01939069959233,-36.81942706200488,-26.781671691824837,-11.459437803306725,2.659039490216557,20.098763016472464,31.04755175388877,30.48347720259621,17.87351254801243,-12.401813906970325,-33.0930934607189,-23.24176344752015,-26.766487365418612,-57.97806175144048,-77.24093787540286,-92.15636940157256,-116.81123054930896,-145.77015279481813,-197.65177762638126,-213.16096466529092,-91.34937960594046,178.16046695465616,573.1502808497708,842.3640886784274,539.9107383720544,-105.33552543573737,-315.23695576320927,-119.56426955670251,-111.45959157642051,-212.49841376621106,-140.93130353204805,-93.58558600010197,-135.08053520984538,-90.65931880772096,-37.30218445598747,-65.90420912950853,-68.07098251038232,-31.82129788065954,-26.653035700633033,-29.01092410240261,-18.422116213064484,-14.602623976754938,-10.5059707989424,-4.142631332731728,-9.951653185361474,-13.102215448925758,9.866196903466536,43.287516766600646,59.11646355284451,68.14794391538544,92.91879375492192,117.99581959000554,116.65683995824689,87.12317428498844,36.280372075454494,-25.551484304171186,-75.17436293264772,-96.49170439200148,-93.87742962764571,-78.25842320002283,-61.371488707567224,-55.717942237831906,-59.946042227904975,-52.837310369539125,-24.33634981824747,-3.307516494753223,-14.957811233675883,-29.333166302588417,-13.591019773107433,3.3819652665596713,-10.17269509387242,-27.218090729862695,-20.71319905893754,-10.355967187430146,-12.1502639364308,-11.503123987143582,-1.5896560523468253,6.735804287718992,8.670264632746136,2.67455512476797,-11.849671889755172,-18.312108408997634,-6.783752887863056,-2.1558662190205133,-17.29368003917236,-23.51704180901077,-10.368402556096104,-4.669967508719306,-11.202803502628079,-7.436728349655738,5.81047588883526,4.615741346331891,-15.03018211447128,-29.13426548459082,-21.59775784647723,-4.998137334261845,1.2782483843620938,-6.546380663570904,-17.922722922362865,-18.01758486883781,-2.682286527584907,13.06177337658061,8.981968131302656,-12.63409974675264,-21.485739822736065,-6.487067465468597,-0.36286985906835767,-14.623296336159651,-18.99584213224239,-12.321218174683153,-14.453663484772242,-12.54861353214772,1.6651596017632055,10.120693730902149,3.93173254733086,-15.393856009385651,-29.41725941836372,-10.405412982061346,18.47524446134754,14.98142799031635,-0.7496804011864882,-2.4180381307191965,-10.763054481633333,-24.25807478796512,-25.475746608775367,-41.17883714198604,-72.97912747783755,-81.34586441609304,-89.13045484911432,-120.29715616760816,-134.8406035504056,-158.08883775871288,-210.91483952835802,-176.2427501775628,19.1239997929828,375.96684773263354,805.3359800841665,839.9242232899903,219.73058045396039,-333.5001697726859,-238.92614423927932,-54.09423520941016,-183.20312906279105,-226.9945441296174,-107.60590249068264,-105.50192788276213,-122.5276422644692,-45.69805964471103,-15.281715062775703,-29.47816817760805,-14.86357271869226,-17.889960360720636,-31.870379439865975,-18.85235903752249,-17.530588500384457,-33.6918209946573,-30.47611552658638,-17.29920776792415,-15.139967512055184,-10.901163829827219,16.70536440065411,59.944571756155405,86.30317278043918,94.01036689444821,112.95948204396596,141.67611457584087,150.16150308015636,114.14587720679035,27.22302960827748,-65.55984541686588,-105.43465579342282,-111.34928295201826,-125.09222954393522,-125.95416252835972,-98.20505705395772,-70.59645303548828,-56.884968118882824,-49.79765073145893,-39.04819133076542,-15.806033039472275,-0.18309097787155793,-11.090274885887453,-21.0869646811932,-12.821856135301704,-7.5671077172211625,-8.02715054114384,-2.7323790609066663,1.2360351544429484,2.04084788730626,2.0868138230224034,-7.966743168010261,-19.456405416918983,-13.598714430442204,-7.61445794717406,-22.80314136875587,-34.36731719813066,-20.912712765916893,-8.760882568081112,-12.88566968161252,-8.737702141986219,8.640627683556962,17.57632876718173,13.590131068325089,2.3066334871506733,-10.526933652081787,-11.476902025846037,-5.95665848992126,-11.498075411149554,-15.417149382742942,-4.932673789435924,-0.0630414932581651,-10.15571326587521,-21.256486312111218,-24.59246910482015,-16.228045990199917,-8.13413293055821,-23.684250673250702,-46.142654729283294,-40.39531906651827,-20.203299972593143,-14.057524710101124,-16.128152763314002,-15.372271477265329,-10.053610212880912,-3.2934214932812935,-7.56402076791279,-10.687818668754048,13.086567088065513,31.274595853476015,3.6329138224611057,-29.805129840077008,-27.25481464000537,-15.582242494232112,-24.492013930232588,-46.313903889493474,-55.40112990498585,-50.78882644400404,-71.04407787202209,-112.78012708861986,-146.2379410966642,-198.45037802001903,-237.11421944937584,-155.34678854664628,98.46104287187535,554.5328635987803,960.9545218408272,719.3997076779445,-59.310508552443366,-408.93378389922526,-172.10532366116945,-99.44684464485253,-241.81978816616532,-181.5543538654637,-78.66171836533958,-109.37927223029216,-86.26953929970328,-26.632263856885558,-43.74189095541753,-41.11670775186776,-1.895544092764645,-13.145829656611415,-40.32000396475668,-33.363015946220415,-21.33041813366778,-25.747428445159038,-37.79575727835599,-36.303003712442674,-10.890324481703274,15.281136912414667,28.377517812638832,48.017706467937586,82.59499622163308,116.7837912940774,139.9987407528859,149.61399607091118,136.3012313329771,88.87086857471105,14.273232186705284,-60.135131285189,-105.84138432777621,-114.17605375225277,-105.65450909389165,-103.31858668248205,-97.23660891579075,-71.32178748576479,-42.86219212383142,-33.40546066995436,-37.80826599370668,-40.78846867095159,-32.15181280255389,-16.581664798492433,-9.62673050837531,-7.980591705536899,0.3737224854510295,7.367031527984057,9.671123812285595,13.108938289795216,6.159551574575037,-7.463861590165939,-1.6219992883714163,12.654493996675601,6.193049635696164,-9.001707546328962,-8.680460379248718,6.380172516876836,19.733978587996837,14.577969344495532,-0.24717544391079826,-3.9195355102336435,-9.539941666351925,-29.196075886558432,-39.707308246779625,-37.47785428005497,-38.74469035168713,-34.276955495478504,-23.388313011501374,-22.24708392455041,-18.8102667578867,-4.8996121285978305,-5.383849973809532,-22.23657978589532,-25.4773776130486,-9.374800139615935,2.4691686264434622,-3.603086690531761,-17.018562030566187,-19.721032677691056,-7.874618236793829,0.5643774036336211,-14.350661825461703,-40.53668282876686,-47.77753584814569,-38.43542051530019,-29.291003194839767,-8.516954328505953,25.200878200168543,40.97946872246851,30.81003770603382,16.70770498827777,6.488035514388947,-5.1366811433238695,-13.804014284307527,-22.30544599253514,-49.847526155280356,-81.39181631608027,-83.00097623885122,-87.86882009775306,-122.6833227203337,-145.35972233268035,-177.33611853059654,-234.68423048465394,-198.36877138589253,5.217192972694306,391.39978172823254,866.7906952825309,904.7231262146611,228.8278186614292,-358.9950333529474,-244.82509274721113,-44.94621786261704,-183.9209955225872,-232.33891484974168,-105.92516141484724,-96.39467829067688,-117.52719432223321,-60.0214936806046,-44.033887360700106,-51.65131204453094,-19.16489134483696,-12.582101996196766,-35.92378423609802,-33.58057740856658,-23.15590448743599,-27.901702199821344,-26.66202192616454,-12.834248155944557,-4.17999002934324,2.46984897639902,26.600575123371634,55.19732840584396,67.7281661969914,85.0926153351116,119.793798097076,144.30947370876407,138.5439949719279,93.5993168893304,13.644004732305035,-53.233692556280324,-74.5383983502151,-86.20656219393277,-110.21445195428807,-113.06937974457097,-86.17002351695507,-65.23546813411531,-61.62936696149691,-53.58136713589944,-36.22064384244894,-23.08457663508717,-13.377740339795565,1.1057026530023357,16.507218099328526,24.95242795637366,20.753615484164165,5.596351419372937,-2.051054874530486,8.564627840417977,17.652826286930516,7.3028176916902225,-11.679173095024666,-21.055737520562744,-15.991426765655724,-7.380447215672753,-12.732891429912112,-30.061747065753522,-34.41706016820265,-21.572860997944268,-20.114537715449178,-34.39042289061382,-32.584786931427665,-14.558185981661289,-12.374553965511346,-19.367640456433868,-7.947789779192963,9.56528346879297,9.478040649001002,-4.142482547598739,-15.582964677126618,-11.852267770182149,0.4352356996715194,-4.225495122831024,-19.78929289725206,-16.513129082825007,-7.403632454991072,-19.946456656291865,-34.34001058797719,-25.60955857905944,-9.440596275398963,-5.272229901212125,-7.348224395973691,-6.174103788034415,-4.61170133648228,-4.338636075521407,-0.6645861644030298,-0.6738856050369577,-12.172113656175055,-16.76712902393307,-1.8809875997810632,8.702810410803782,-1.9905296928564375,-18.031669628317616,-23.028930954480778,-17.388458822281823,-7.718993544181679,5.944760074917653,23.80801622750554,23.284469068333024,-7.507068183558843,-26.528062749768843,-12.833265489475384,-11.077223175458414,-30.37690376276383,-40.44129077542493,-55.72561873011712,-75.6149623572012,-73.41143010771225,-82.82641966669487,-112.55775807919257,-127.4605955176081,-166.57777523364484,-206.8429943269825,-117.62879019171922,125.28591667550248,502.38631394052607,859.8629203053232,712.5019974378249,33.731844840110554,-366.5195331623684,-204.85607097356115,-106.7850593849651,-225.62121568256282,-194.7176776432785,-91.63596574291685,-98.83996476119114,-81.73498371054795,-29.829938665724363,-39.73087139230738,-39.94091926683395,-3.2634788786035003,-2.4071880309871645,-24.23592425882672,-26.767674509836333,-21.476807652841586,-26.110812633025276,-41.02547561744906,-44.29943251770466,-22.44518818707096,0.4417357519637415,15.672680157040107,41.7176461885781,73.78325505219347,98.90858663603879,117.89325832330795,124.18602337788218,112.15280784600733,82.71971598618029,30.841169505551257,-31.312637685984495,-73.5507022061606,-88.11605884818844,-86.61561505271501,-78.23306687235119,-71.39906853230245,-63.47904035155201,-45.457395919235275,-25.629420753827564,-15.016758942444731,-14.69020073971425,-26.387623020460957,-35.769988582283176,-22.3893840997937,-6.629381018533749,-17.754825576022625,-34.457850875474875,-27.194197949109846,-11.105358124619713,-7.08317350992327,-5.592649283673627,2.2795147140967487,8.275717735568179,12.298018617280091,14.564076394512947,-3.1876146230545928,-35.74369429276456,-43.164386845254626,-22.334766300907543,-10.788878477983232,-15.311391399619012,-17.898030942783954,-15.386308602498517,-8.04059898276806,-2.18412662477008,-11.476317694902239,-21.93239662160719,-13.40304174636676,-7.042407026414288,-22.292882527875527,-33.88675578083309,-23.312014147577045,-9.953631690723984,-7.317374823715859,-5.737104822179212,0.4480984606387075,7.745284328808598,11.097826046144776,2.62034748369771,-12.112970040812751,-12.151561093267503,-1.8090982507057447,-7.2545118595247935,-21.220589331814615,-16.806674829239924,-2.372833217891202,-1.8355422684542901,-13.515027585361135,-21.977931100935695,-19.09691815255095,-9.174084650467284,-4.520801222862612,-8.702181354034387,-13.443542882360624,-13.196516946172718,-9.333424147907193,-4.898103383098331,3.448375883270696,22.51549302428965,38.42794390031709,27.189155896315224,1.16519502669086,-11.399497674335162,-16.799521663799624,-28.80410256780342,-46.46072470353705,-70.68796328078277,-84.73368021707859,-82.8694775018555,-99.06903015077792,-117.37356605124003,-111.1577027804235,-141.12533998063793,-184.8136958113662,-112.30870134144007,108.1810511179525,477.73497583543553,835.3072147439459,684.7605947580764,25.23525355961398,-331.99897355253995,-147.09180216987318,-53.99707647708423,-179.34933803900515,-158.61123400340122,-82.16846803633149,-120.02402001085694,-122.26930864465757,-76.16390229699739,-80.55485736834612,-73.22223894552084,-36.532375943926816,-31.890515532249196,-32.391083134911256,-14.678702677977729,-6.959136426409916,-5.3153058738732355,-5.290486193070976,-15.552317116780923,-13.480735019028275,14.422307747899561,42.5617018248924,53.20292515795575,59.66533284416924,80.05072486152716,105.87436168255677,111.71303752014836,95.25676774522998,68.73828803242567,28.862204988738537,-22.546059231330666,-67.5046956638934,-94.35740778274966,-99.01645739783625,-88.96848450797785,-83.58914430143997,-80.66869573783133,-64.10529932041237,-40.97014964445697,-21.69249287658665,-7.113497863252235,-7.489013372033874,-17.392148673924133,-9.713320170287805,11.579625543214387,15.080251878291364,-2.7566905655081513,-16.928780677641235,-15.482288145769449,-14.051122881799444,-24.59790661183257,-32.320241149460855,-28.03839035966668,-24.593296762118577,-22.30981018003998,-10.605123914150369,3.9198270259447376,8.586424970372693,-0.5205011651774996,-14.185330209175682,-11.895158486036731,4.013456660543659,5.417510255963137,-8.790687037124382,-13.997810604045036,-8.632762038072784,-8.89021482773893,-17.273990997969328,-24.84410264414839,-27.338996259624263,-26.662789752901485,-21.81623397623004,-12.123085326954026,-2.8596269764743276,4.965178012987183,9.395802341380534,2.062181049738461,-5.189243839931677,6.945963214458817,19.88714571570373,9.059484693859611,-9.230110183677446,-14.967246985176487,-17.24454763385566,-28.13920238745422,-41.520256188159664,-40.87607046264587,-24.994224734644177,-14.660215373545022,-15.22306619940801,-9.577350087263326,0.6606456538604135,0.9782581636302332,-1.7659529903199278,5.956453317261651,18.98796627525185,18.86524037731874,0.7937689804229144,-11.693595926745793,-10.593181434013019,-21.99061012075792,-43.03425347795018,-49.97013213822383,-53.10693629311994,-59.49353420914822,-69.96972185363569,-95.97432134705443,-107.7547267416076,-107.46268278693006,-154.58931591919557,-183.24232402805552,-66.84176168262724,218.3428922555985,625.2403989533044,829.3453006257579,425.16131059859435,-195.16860995586404,-286.2563122728862,-73.82426696570663,-131.0118887135146,-236.67541990978202,-132.1295007690871,-73.0930556228148,-108.4622364413413,-72.41760006065073,-29.50045486821898,-31.024069962223194,-16.30848850700956,-15.956434504294457,-38.43802453757104,-30.662935323427643,-15.39941737372958,-18.10616642035243,-13.154925179797832,-5.53558201353481,-5.512827234596044,1.9372919921132246,10.249201879514,15.33589255273099,41.12915736729397,82.27445466864677,105.56449298366988,112.266157634763,118.4759576431161,108.93549868114806,66.70659102816744,2.87262204106033,-60.28292187120901,-101.37349601037695,-109.79143936423355,-95.77559923311301,-78.416319257764,-73.00429810997608,-79.31359039522509,-75.70701404364218,-53.22521204025999,-32.36700388417306,-21.745952833004573,-11.203151613392912,-4.595736373728581,-6.188051650941205,-3.6249159238614688,5.6988391354864945,10.802930238920414,9.107975560127455,2.72060695365208,-7.086491064091948,-11.567776507828025,-5.9919398680145655,-1.6623819048013218,-5.410135094597017,-8.404508663224142,-7.852327675679888,-10.026080853710583,-11.82577550017659,-8.860895426082894,-6.6288323097193675,-6.699193437904464,-6.501006067394956,-8.46075950389647,-9.959576788739817,-6.334670639332035,-3.9873650966211525,-6.639076035250289,-7.80118048811644,-5.897233084072656,-3.6198146462470504,-1.3332774261491664,-1.2378422275454355,-3.5132345141471735,-4.331577783890189,-2.6855998585831973,0.230643115511187,2.2182908176032523,1.5800695419970694,1.1313340835435817,-0.4171849056179209,-8.595513660421648,-17.21899692510881,-18.61147033683904,-19.70939029865262,-22.925920673979245,-16.6775123895113,3.3245443891814155,24.471137595569257,28.434190110379607,15.1319442467953,7.551823403119711,7.072286963315652,-8.438090027470095,-26.224614780824535,-30.014291902274046,-42.79062057477205,-58.92188536189744,-62.290737470104,-81.12833939177224,-99.21248708395362,-99.34196039291754,-148.99672643325513,-204.99746866097377,-113.90817966586332,154.54514024580965,550.2391063757235,829.1960931032661,551.2350907206705,-98.1654040396653,-334.06100191376385,-128.1797179174582,-97.74959929804609,-216.28392839435114,-158.08920088838224,-82.89231757000807,-109.29041513354787,-84.3799069193791,-35.63344980313231,-43.55414620947817,-36.600632337736485,-9.307175705153425,-11.025973833461116,-14.52900887729323,-8.264908053572295,-12.669008724338884,-13.656586451504328,-5.3676416247969385,-6.016712551689022,-9.902622813711849,2.035995152004406,27.86352082644033,55.16471794411644,78.59060903741909,95.00948035974737,102.16748006778508,101.5946653262372,88.51343019933412,53.024010749759455,0.4398953766378213,-48.33221362374574,-78.65755395195475,-89.44274436580739,-84.6239072688281,-73.26420360264797,-68.21004211155838,-67.85881359862222,-58.16711120417966,-42.043005646960175,-32.25501184415068,-22.908349880535372,-8.750810349357174,-2.942527390735197,-7.010196328837278,-6.9959275075887355,-2.56465673434365,0.013829883037196566,2.360638722318118,1.6296765199052992,-4.616980889332325,-7.876026257583462,-5.785168687211499,-3.1155943019453574,2.7591792274034397,8.4061715199663,5.408142229835278,2.9986882785147895,5.087719397000697,-6.40550583424703,-28.071164494953788,-34.91250748913736,-29.7369609123437,-27.456513935389196,-21.971538675305798,-10.642795757546104,-3.4485688287486767,-2.8831141403165645,-6.789083681038267,-11.008176791605273,-8.301785785240098,0.4757640096083957,9.108599951867529,8.59622655946075,-11.653486744260118,-36.269124787761214,-34.270395898759766,-13.909415009049425,-7.009748739377137,-14.15732767106664,-18.616770244411477,-17.022509911692133,-12.35002053723796,-7.863039510849553,-6.594752066749869,-9.107192463553183,-15.713642164071747,-20.313787662633846,-10.71253181871426,12.398352674307475,29.987367596386587,25.56341599798879,9.606215319702276,4.99178674288153,2.8970241569294775,-13.842904113815937,-25.740320984979107,-30.192095189566366,-50.79060263534211,-67.80390707645437,-75.67241465114427,-104.78226129978405,-122.58929323798853,-127.05033311175623,-180.661225922224,-199.84256227843912,-59.24723634395446,224.24539822737398,604.3193143218466,812.2810859745821,445.5447430216923,-168.78139724529635,-292.44117982592473,-83.18574500183303,-106.99019817725308,-205.9553000446582,-126.745732902247,-78.70360986009746,-105.8285409189687,-63.110938275271124,-22.82085367281742,-36.959125810070724,-26.87094892746034,-5.395306038891276,-4.941621019828009,-4.013667130365885,-16.89252478147983,-41.40992365007447,-39.8052174864255,-25.079093831341112,-18.645170289095635,-3.958090477557386,15.183535958735234,24.58866716912351,39.689124765077125,66.40803720171284,90.07644823498096,106.2140413539155,108.45844431534823,86.28149433240233,47.50538418322627,5.042221865576067,-33.826340754829396,-59.43335319994897,-71.70950193551792,-78.28620413323532,-77.96242991319738,-67.74518801759129,-48.14089033570652,-29.88403408751472,-35.44001882432184,-55.63277477988413,-51.760301769444304,-28.29758308950679,-17.487864640350626,-14.481146036674165,-9.349934486060818,-12.354334236585252,-14.897717432013593,-4.689702904015665,3.904486346539194,1.543633691884665,-1.8652600255006817,-2.9040107884807256,-8.378418851824545,-17.536457335705933,-18.869718423347102,-11.94124111916447,-12.05188573262662,-18.93299772145767,-18.59404381466912,-13.818637468540597,-10.463196866592444,-5.9881089156893275,-8.198157985319675,-17.750277031557612,-17.35673875342207,-8.59008956395332,-7.024118456194412,-9.032108654246265,-9.124464195086485,-11.545636838979156,-11.19646477634122,-4.5375656793689245,-0.9335403979123491,-2.8190629013594126,-4.301066314262336,-5.091468637881697,-6.069827436583793,-4.853756220241323,0.029376789523574587,4.589359672030863,-2.1816283724646652,-21.138967025287457,-32.2696847515919,-25.3693973588546,-14.803806751900638,-5.506314414301791,8.839709553338016,14.503050241720029,3.9262144391025693,0.5752610401615961,3.4564814449406853,-14.963948668150294,-37.22817253903028,-41.257015144221256,-53.16881736956965,-70.70069961805538,-75.95725453768424,-95.65487909875108,-116.36979880463389,-121.06652786348647,-165.78373699787255,-202.9237585565802,-99.98388917034913,164.5566842019985,564.9643383627013,858.6748038505268,578.6751210591524,-79.83116052712757,-313.75755696691607,-120.2632219920388,-116.81338777850085,-233.42910837220003,-154.03032437609977,-81.34512531443217,-118.44561155885489,-87.0806597436561,-36.68923500332485,-56.95252873179146,-54.69834638828512,-22.741216948404244,-23.690462767972157,-29.311098983502273,-22.1654561925825,-23.98233387920882,-25.46169339249235,-20.07298698417762,-15.963838362923472,-4.778216885438148,17.088198415451924,38.15917891720155,57.62838966550005,80.97473891425045,101.05228681179047,111.1023769075243,115.30667565990952,107.28333394330372,68.3948751999057,3.4860729959306873,-54.329267137357114,-83.49685640697064,-89.56435216694064,-84.29512269601877,-74.04724629898227,-59.363891657997165,-39.60046389078842,-27.3626654165056,-32.66761029642937,-35.43478408501984,-22.590523446355235,-15.698509583474745,-18.28006407288764,-11.041539797796744,-4.060024113100212,-9.72116285074285,-12.129625485733555,-11.483910801298912,-19.08391450385823,-20.31174760479091,-10.350858858673938,-8.84895885097131,-15.739440722016482,-17.29332201213258,-15.8926986812966,-15.014989137193947,-11.667436647996752,-9.459543681243087,-11.709741023797868,-13.973975061781424,-13.654347269953092,-13.26042113753686,-12.58470432291777,-8.770930204101422,-5.276298519183612,-6.472446972660908,-5.684874289087809,2.315649164564107,10.534556727733065,13.829996653183638,9.305630725307473,-8.385373257067545,-29.64463828407939,-36.8835035022676,-32.73876361728854,-30.60444196870556,-33.71080628973617,-36.45234208617195,-27.49992990414605,-2.3183885907780137,22.40445580616175,26.99129900945899,15.445001981508968,7.049509840298786,3.051198868889788,-11.082347498420386,-26.98423979944448,-34.16996924383332,-50.82979960137639,-70.62673092023275,-75.84935473930484,-91.89074481569656,-112.0528047596351,-118.0090678672406,-161.28966110855563,-204.80203288295772,-113.03556946183744,145.1193816595312,537.6081456735291,842.4719272616063,601.4652921095549,-51.98023905723312,-317.72491860178536,-111.33265456334928,-76.3678285167704,-223.5003050842588,-181.82873097036875,-93.25124389580786,-118.03913372020288,-98.59075210500919,-37.913808650257096,-38.257388448287216,-40.511703693726304,-19.466932354484168,-19.231317198938104,-18.89307554198253,-8.32380533056907,-16.198012652477857,-29.531605646225003,-23.411038837025075,-9.614714699131461,-1.1166713767233052,11.810258614814176,33.1718437445636,51.27969532368837,65.67643633120947,84.90257004756603,103.02745753451362,108.79145119837334,93.66565443770084,50.33956783525255,-6.494812545116286,-46.322755926598006,-62.58737789692287,-69.55518378016185,-71.47746218315683,-66.12654485214397,-58.98085786268933,-50.74565076261264,-32.134732799154264,-13.205969271400875,-20.68343548151001,-42.80830733306871,-40.503502739779385,-19.14968115227019,-9.264076723165491,-7.472649217969611,-3.975708927705071,-6.353889448165461,-9.506956604504758,-3.923701346996456,2.690997256675125,4.396728411747574,2.601829544558022,-4.206052461573449,-11.538662172705536,-11.176753840857689,-5.442231142988668,-1.1969392462845931,-1.7859865760696287,-8.122664862528385,-13.331551421449426,-9.174816555688675,-3.9841300107904907,-9.2782071159412,-16.58446507115542,-14.498377039458152,-6.3385604925915295,0.9609543293046059,-2.79979136593753,-24.45096594420258,-44.305355108120054,-41.19239384662961,-28.0844269310101,-20.7137834446021,-14.764679221691292,-12.371748728015714,-17.272173160485192,-18.644638490412948,-14.26190707905696,-12.855708509552294,-11.049716218443596,-1.5794755030730627,12.53956871645786,22.066592183942028,19.338391690986246,9.87892080184696,0.8881348163388978,-14.692044316531145,-32.13698858083649,-40.254653793067405,-50.49178615524683,-61.1150237301578,-66.38708036103925,-90.4944398450005,-115.68498974343784,-117.8856399121579,-149.26541947495616,-181.20298108937538,-87.4744564252488,162.94479993602238,526.2146248120118,775.4615465081863,511.77439061439145,-88.75834761806273,-305.4253586681936,-116.22225879270995,-91.51403841408732,-201.00820659055225,-141.10264726292937,-68.0236476052151,-94.78323168562443,-73.25232888637893,-28.142628202547158,-35.185322324348846,-22.915764511964568,8.500070668800577,-5.7153102327926675,-37.85512833069207,-44.35796396764231,-35.685855585144594,-29.99363168193358,-26.628006265327016,-15.786030037902277,-1.552722813705369,7.2393032212397115,23.175674611315355,54.069953297931704,82.4577695778749,96.64342315694867,104.49649605083653,112.52718245248025,107.76066169974858,69.87923005408223,7.229438748457184,-50.04164899295891,-91.88455612233017,-116.4895371820433,-110.26911963993122,-84.89880881294505,-71.98929401389931,-66.452722993447,-48.987751074505724,-32.63820089872464,-24.991477249860857,-12.11819225215168,-1.4617821098036359,-3.8341464057104986,-4.043259026672871,0.46445496066196057,-2.20388364470114,-4.227606934367223,-2.0967799001211382,-5.3020971229490215,-6.113898887781634,-0.12348140532671437,-0.5104348453374286,-4.946323496489988,-4.423046680015878,-4.598014525920089,-5.302723460292913,-2.413298842892683,-1.068640592426739,-0.29790321165750555,1.1098012536175794,-5.244338226108148,-13.509474059602404,-8.3306221827657,2.185066083023049,-1.193497690374972,-14.676180259863472,-20.171115049841386,-17.245352219746994,-18.86071180319722,-23.55091231948809,-23.91766873110075,-24.296392244087038,-23.41729820654464,-14.810894074464663,-4.512146758740492,4.490242177090817,14.12066270342283,17.226312692101153,12.394569222726178,1.3045742587939024,-13.85818255426041,-19.121287228619494,-28.062284418682477,-62.84548531148522,-89.27989275296278,-96.49192855049313,-116.41930407859473,-125.1631582256471,-133.74616511519054,-189.71796754520386,-189.242916527803,-8.845032331025095,340.2895179077374,738.7526385975127,793.5344250160623,248.76718302939128,-298.36374602029264,-258.8906088665723,-74.61138599217873,-171.26221189018582,-218.23082902242032,-104.79450988218537,-90.57969571580207,-112.94718173988656,-56.985311570481,-37.54005000429748,-52.55329519118535,-29.561111451027717,-15.991745203571853,-22.633780964972694,-16.437562613171508,-17.042920885169167,-24.846447939349538,-18.9617052906058,-10.692067498602803,-5.534875918666113,6.86777585964799,26.81852445708962,52.33169041215198,80.63203503167497,104.39180784235259,121.31316471491778,131.99791423426743,125.57716077073653,82.45045830544491,8.095262742176322,-56.44651099334197,-86.57520779898803,-98.95392559395746,-105.98978562857386,-99.5824159123857,-80.77753769247316,-60.47545201312872,-44.30800628722988,-33.66007037651445,-25.244772389337513,-15.421969311450056,-7.6960437172379095,-2.8437653245205468,3.2225181191748966,5.942137651790549,0.47865622037292255,-4.803143052695656,-3.028720125885762,1.4294276187023023,3.2489501491347887,-0.9094090881934207,-9.204382412921191,-11.35457125806747,-5.409173331180805,-0.8647024588891892,0.9244633344512874,2.075386987809896,0.6045942505370245,2.01853546171254,7.310770205439454,7.144359914452416,5.302464402482201,4.308148182872877,-9.177747278007828,-28.066056302705157,-32.99279414876624,-32.09301286087264,-34.99411263583055,-34.14719726321387,-30.87870232950297,-26.7525123146611,-13.157902959762318,6.381977231552614,18.252092716693845,16.737955132805382,4.726205954673095,-10.001646122760448,-16.516594680122537,-12.394820939010927,-20.276814180204518,-52.293363319691494,-76.01476210719613,-89.41474934266029,-119.90639335230601,-129.66666223353596,-125.24342382660036,-183.35519589532962,-216.6358437773035,-76.41543452341797,233.9909847078008,652.4501996148276,868.8506826129145,456.2108147347532,-208.46204860020936,-325.8242253617874,-89.40886403345388,-118.38328994878269,-224.44700791721453,-131.93346431833874,-82.76816318493123,-122.24493970323356,-79.22600522668725,-28.448663229631862,-36.4538553139937,-30.850798861913802,-20.66579948859004,-26.088595142679296,-19.219457529448107,-13.518581223405064,-17.667780499348034,-17.22860691178375,-18.868085977343732,-16.693669625573555,2.3981210780446336,25.713708143408788,44.632736604923494,62.37907027404931,77.66637396487505,91.86250076902758,104.86984885303781,106.48176038679549,81.10162784056199,25.752633812445367,-30.89024509806442,-62.333990029749714,-79.85405006274306,-90.09792756742999,-79.78893570536405,-60.33103345438293,-49.705462512617125,-39.86991074545264,-28.961561139760292,-26.52607489089509,-26.44517046968914,-20.32120504138878,-11.150160117510456,-0.9637448904789849,11.13397958815257,18.3737843500995,7.1405532365679285,-17.18057508295321,-25.977721660488015,-12.796987977055338,0.33011116356168557,2.6283082379008604,-9.197162643590922,-32.84078925876423,-41.27811784987402,-24.855134571261775,-13.47280015808515,-16.258848177493725,-15.925138770859164,-14.621151558833404,-16.491954779546298,-11.258656484384073,-2.981619403294445,-3.895912457765352,-10.437583902483176,-14.583694982245213,-14.883825020590915,-12.051137153631544,-8.779339395004694,-7.395359388714816,-7.867442560522225,-11.322311765178902,-16.172384646976063,-15.913975060548317,-9.60517573853528,-2.3888899774927452,4.71441810026311,10.853704629153803,12.099031956784492,7.724691457072636,-4.274162589347327,-20.45699037753345,-27.392312050977214,-33.77230165585229,-52.86704783409557,-62.441659351028264,-65.85516204694345,-90.18020619380096,-107.48274609875352,-121.42730213782083,-170.14349166599146,-165.93317785632118,-12.65439134292393,277.57376284906627,644.9698171365726,769.2262334003585,323.444367743714,-239.76539776250428,-275.96445926912065,-84.41210722864662,-145.49470973198078,-213.5864951079271,-112.69285035921462,-78.47095452070357,-107.16071799032427,-70.44289373647011,-48.31490410526327,-58.737943728348995,-35.34102915558803,-14.901178551759422,-19.742820402804526,-17.046128306864293,-13.890122803944877,-18.52325039047132,-15.23943292323316,-4.990732353890959,-2.0119551471432473,-9.780096567982216,-8.287958447654797,18.55485199359142,51.0097152797388,70.38615186206746,84.67209541074686,96.05477519432306,93.04763849272543,66.94408327786823,19.41526146903977,-33.55202385737678,-74.73750831829531,-95.59638693181402,-94.22663376105561,-83.24306248394515,-75.07006553917529,-62.35191352278823,-44.430621330552505,-34.71061946339361,-30.094773116214895,-20.319267576719547,-9.891013316690717,-5.107172335457562,-4.557546770583926,-3.70088517013885,-1.7601010395470347,-4.056619242650491,-8.349690987499162,-7.822119782961082,-7.803384149405662,-10.258238672829762,-8.271220166939372,-7.7353485703383456,-13.219312356751782,-13.936925327702696,-9.90674239724708,-10.181648439885443,-10.711240255176634,-7.400507219461307,-5.179043697947421,-5.378203567581643,-5.934383391005362,-6.728687257734105,-9.465834826092127,-15.010651533427726,-17.956304450569554,-15.27645123283284,-13.149451065101339,-10.437386479297238,-2.294118814559887,1.5826675344994392,-2.0919728301398983,-1.9561697588602982,-4.997818700008779,-23.323384341629392,-38.706375881385284,-32.45518349548369,-14.153660649158336,1.114874528280012,6.339572938250885,2.78334261370518,-2.958932872890923,-11.17814801870302,-20.727110052831513,-29.583161748973577,-44.009185169341166,-53.843003100404665,-57.47708929907935,-82.13389469540174,-108.60578503698176,-122.23469076183628,-176.63519907368692,-219.483322703675,-121.38651239134553,129.6812867632927,521.003193697481,846.9280285879134,613.0594823729252,-62.312311089646784,-341.48088781773356,-132.02033994739747,-95.89165362397914,-231.93656954853552,-171.79174116995526,-84.37311547074225,-118.66224904192958,-101.04917062118506,-50.66492395534299,-60.634164410416744,-52.55631327854298,-22.85862597732891,-26.759503778241047,-27.174531579274902,-17.651285621282902,-27.06897872631424,-29.739679863242237,-15.763664744298534,-7.9662778620823484,-2.0205816571055113,11.955600423516724,32.74237929400606,62.64533781198162,93.6301517854937,113.96727505729744,125.54115396705325,126.01344292640042,101.55170968605239,46.23873868338904,-24.119312111148083,-78.54425710674516,-102.34629335658562,-108.2663920869219,-104.42590918234794,-87.95329138578009,-66.04357680814914,-48.77496984054248,-39.49379948383031,-33.37791404395642,-16.605415741728052,3.3767803672625725,-1.6778328909948428,-21.458274903345966,-21.3698380139069,-10.677585949664262,-13.636747376199693,-16.90137146120947,-5.801368652338809,3.4332441314263527,-2.8947514648389543,-13.007107162746877,-12.754104229487844,-4.833028115252141,2.1173715566139535,2.0897224882862133,-5.66327248141063,-8.556017756313484,0.47947867637393315,8.737956982487734,13.327922117910664,13.854472421458926,-9.694502569196398,-43.926801742918485,-44.24700318825791,-23.277899546480448,-21.27439378903083,-26.215313979784703,-21.155853928931165,-20.39410158496539,-21.67600372234902,-9.264749045346036,11.04995767994438,22.27199359052627,16.102382840358743,-2.9493775886346434,-20.5104779636071,-23.342674378002087,-22.209696127498876,-41.16020603542235,-66.026102271134,-78.30919626177987,-101.85174951254317,-122.95993096379291,-123.99603083659937,-166.53276809519872,-217.87775274623937,-133.48516702409,138.59795705591335,578.5974562350052,922.2774907189164,648.880937043416,-74.25792968060694,-360.16660909220116,-135.1785821424126,-90.2574654011283,-214.89511043059937,-145.90304065488365,-73.96230730157352,-127.11556273368325,-100.93291679092899,-31.628404712711088,-36.876489334555885,-31.466224895207233,-4.124292053161309,-12.898477851034514,-19.076888576281938,-18.967125649794557,-43.77301751590089,-54.149522046581005,-36.58041530691931,-28.56816072927037,-20.184881186022515,11.206679528482487,44.88862000389949,67.52627574880957,89.73077179503005,111.40725032848624,126.0175832286588,127.26555752254946,98.03175835647207,32.53458060056448,-39.678445882112186,-83.07709594369769,-95.12095282546238,-96.91819311732033,-98.12413326940869,-91.40551620871474,-76.21198857340264,-61.119390330442656,-45.5169063982802,-27.08113392563619,-14.08441611561851,-8.590393322711975,-2.8686814407444032,3.6127106313449993,10.140913253532409,17.056671745728266,11.448413011302407,-11.049716292787306,-26.49607779650417,-21.827030826622206,-14.033405534780982,-13.27435245955197,-13.530573000368122,-13.671931809818226,-14.584590629656798,-13.045668450780212,-9.416411933397981,-6.6857693000957,-5.331097136823768,-5.0507265067239295,-6.043480044469781,-6.712349063472292,-3.6425571492065174,2.0000936007487873,2.968314710937996,-3.9512297087262844,-13.425511823880967,-18.1002141894342,-16.568379727487507,-15.59132931296514,-17.981300971588865,-16.849439878777204,-9.875445699233659,1.024034469247617,15.492286413947344,24.57845484349708,19.680554564543876,3.457869023535988,-15.065127300129447,-20.066400792125272,-20.8513973750079,-49.046215842389834,-84.6876035439014,-100.89917106506792,-122.33964631409847,-135.99998678680612,-140.03189063128164,-193.4277194805061,-223.52162226086222,-89.3875176012705,229.10678932624347,688.7269392446858,950.8298621850745,527.6429809638121,-197.23871497028296,-340.8067266433202,-83.82963818165248,-113.26068462835897,-240.75730956111622,-146.17753591180843,-85.55491888385143,-123.02490896226101,-77.32129923155482,-32.10139149877402,-50.978850624606025,-36.17491929272941,-10.105964161192071,-16.23852979691764,-13.10976703836112,-8.88119639745285,-20.79090150148707,-23.1414502621586,-20.423743873639328,-21.339689688800206,-8.05911636947966,16.444337390220337,38.13253889359268,60.44291971794833,85.4471578681859,105.67014270208699,116.93553326765621,116.36582934037949,85.61245947496406,12.032527864836283,-64.32176100382523,-95.27649727318544,-98.65159244910063,-102.2461404997429,-90.80611045249941,-69.07104450693744,-62.34401302077459,-56.95804566620243,-38.69411433191879,-26.182520532480233,-22.886499670954827,-15.103487158446896,-5.7547713999538,-1.3902156982247007,0.758001763329414,2.31252542913375,1.5458339036142057,-1.878852420302806,-2.8860461603278935,1.7090752562595064,5.283700378403125,4.933665883036163,2.1869342932671607,-9.44105997343,-25.360585009242655,-27.25879660869238,-19.410033509820323,-19.551765185035084,-22.929026116724554,-19.00057252436345,-12.358025868079999,-6.704659545792847,-1.4351610147044447,-1.254439797854232,-6.933945986188398,-8.503581768956458,-1.0718002851684787,3.216197858554054,-5.7661800408315,-16.183519449053243,-15.633344142376721,-12.601029778410101,-13.417213055125497,-10.427230245301512,-5.812602575322359,-9.108121519608474,-15.122596666789688,-14.161664569373016,-8.461390915618868,-5.995010220959056,-10.652451406174642,-15.189923363866502,-6.87072815079436,10.680079546925388,21.1678383772105,21.79339811850781,13.88808481202652,-9.401654049626295,-31.975921012742123,-31.782042293307153,-35.162213978955336,-59.02321480189033,-70.74326756714585,-82.18840371458185,-115.2980525990668,-124.43854177724545,-128.62321904404047,-174.49301552562716,-156.41578108946527,22.228202653850587,352.2108230689653,753.2209139063247,833.7198173730723,300.2296513890348,-269.0787044564896,-264.14764310591636,-92.54063773431842,-180.05396681244716,-221.32108466685298,-108.78534751452014,-97.41291929233758,-128.69548356603497,-75.24258726616893,-42.49075830659831,-45.406643820817436,-21.80400735119634,-11.252617015494806,-17.973126553741274,-12.050023841978952,-22.892243473981704,-42.37175011563239,-31.548049581304202,-18.78606919731891,-25.54422423074979,-15.495555904649208,16.829280967826513,42.62802847069484,62.166200545941514,80.43776612157826,87.9644093206577,92.48348771603725,96.06230550814415,71.84194862989412,15.018132079959525,-40.457334051997655,-72.22294314674826,-84.49069009838728,-82.90840211969952,-70.88007378790249,-58.709720558629144,-53.49751333341119,-47.46228236241814,-33.476531843922274,-18.45801985281426,-7.629705391865244,-0.15039428886353434,-0.288949747534776,-5.905035374574844,-5.2646139472831806,1.1250384216670852,3.415123069128988,-0.057229333424231754,-5.825755860815569,-9.451653226988324,-7.959309437927434,-4.60094357383403,-2.1282581310255893,-2.136617436400517,-7.9691709983655485,-13.523705625294124,-10.62236387282163,-4.763237174451758,-1.2533854867038894,-1.5448360704510158,-10.735627675276062,-19.636465688556214,-13.76032870490361,-4.100239152545486,-4.3047992772530215,-6.305073757471799,-4.303073009427543,-2.5481586646040775,-0.14206797981024444,6.619003529764918,12.308907619828148,1.8882327467689883,-22.276124823943327,-30.984396193229905,-17.73019367676066,-8.005216885800861,-5.423510996597589,-0.12216447277146614,0.01965298352011402,-2.410484654097967,-0.12572423070996663,-8.09031395780963,-24.85607755096332,-26.866700981394494,-19.256080173257537,-18.947155711344905,-16.02616287872401,-4.122906042724061,0.5233506732391824,-7.1495699906313845,-13.031607524001803,-12.528517023871665,-10.84114210636028,-0.9120810008787146,20.90882939192216,30.78868345593024,13.22782290361948,-5.590920290347935,-6.847822510334314,-10.875301138191436,-23.060927892571318,-30.58060727370966,-48.24621676292166,-73.22143881164104,-79.86974819885505,-93.33614007033579,-121.97285296857622,-131.6882880631935,-160.71852065591816,-207.08991544774167,-146.38546523163575,69.31187974511525,429.5227809176772,801.7560057648054,717.5240874229808,84.21853805481408,-329.179872467922,-172.54822634038365,-56.917133791395095,-189.74126881272736,-183.40959739458356,-85.00034501419802,-106.62728160485035,-104.93030122140775,-41.868683407959665,-43.65619194474323,-55.99606746900972,-24.585962206958204,-13.37809790012141,-22.081001532597575,-18.770183297966433,-18.577691224173773,-24.389957469927655,-23.777108918607254,-14.104177710113714,2.97534730714636,20.020160147947863,34.05494451000129,50.3362998514999,73.65882640259147,101.7028835213282,114.21495625628803,100.4543136855849,82.47720392237615,64.23066953920906,22.57024377688575,-34.17296031935129,-78.91678493705777,-104.33507141657878,-107.99690437817438,-93.99368191577226,-76.71621941016559,-58.95708059835464,-41.484175021445864,-29.99146430200534,-20.562597586424324,-14.685102937679318,-16.865784405004405,-14.576225926323378,-6.935067715155142,-8.385761994222655,-9.652344153193575,-0.3103048124875194,3.595439307448647,-2.806386033194819,-5.841028011844973,-4.679113774224213,-4.577699831680679,-3.5383956890948856,-2.13589959917865,-3.1871879431472045,-5.272374311877531,-6.2536640887176596,-6.164630004765328,-5.5057802429561065,-4.982887358837942,-6.747154515165468,-10.25005152350342,-9.938919678429054,-5.653083116998776,-4.058270130361237,-5.335888624055777,-5.8727189838584355,-6.759478781673854,-6.383441634603434,-1.512826109863802,3.1233369566238895,1.7394830808192498,-3.545585493612954,-6.7898019674377625,-5.417703688572179,-1.9259616640218447,1.511578279520581,2.599474391220763,-4.399981799097896,-15.53496515240169,-17.075529779539384,-9.644812475781205,-2.060869913148668,8.819336711645764,21.767239960748796,23.279518406465566,11.256661744765188,-0.4300270096334451,-5.714386397649285,-16.664195239506586,-34.35449034467291,-40.39485004616546,-40.738490412095416,-51.39177468498192,-60.99148872643206,-75.56440362746021,-101.75224002076078,-115.4484443551577,-144.74434050868928,-196.48041981441924,-157.92168697704216,34.55719077133671,375.16449629333147,757.9366946873417,740.3588802967574,137.55673041751925,-342.2067996941895,-224.38616569100137,-67.12761242379156,-186.98841457351216,-198.57284008162293,-81.30998392003828,-92.9996795670314,-113.96423555382472,-49.102367527297034,-30.588581033788955,-41.086960973572964,-13.78617396957062,-4.816904442470541,-19.116312058907507,-16.605486085977283,-14.1970989222262,-18.682361581894966,-15.04938858320721,-11.72042012105895,-11.136523879276075,0.09016497417078839,22.449270486869963,48.05206490991611,73.46441543093744,93.6004304737763,104.33122981170901,109.2665414314383,105.20108425340786,77.17309895680549,23.678979756148713,-36.0264719493631,-81.20887380623563,-100.51640525685693,-96.9284136152426,-82.79273647062534,-65.27223866440444,-51.01339584779571,-46.37486241287076,-40.76962186752611,-23.854839808075052,-7.946784792056079,-3.2340990186459315,-3.050539604215615,-3.01100824601653,-2.967617265423808,-0.4934303096209831,3.329692604409942,4.339964900893769,0.6622944481618696,-4.171618902826747,-3.6361061924019147,2.098149572465033,7.283431740435716,8.405021088559542,5.772123907469815,5.296398297682595,6.836302634879843,0.8633859733956832,-4.491810795024033,0.39372620022390237,-6.463089637461046,-28.5636783841274,-33.47687971395503,-24.631865672218655,-26.65645386230487,-26.930276264057383,-18.030011623901327,-15.825776312820736,-15.690096730172208,-10.81987607406468,-9.939172392604078,-11.26712818077484,-13.828346287703901,-21.415991297759533,-22.030156533004458,-12.373840534586027,-7.640019648189178,-9.57598593676407,-12.691920730817476,-18.068776390790962,-19.310030376619675,-13.135388477812704,-11.161840916118699,-17.865940756503107,-22.066656176724926,-13.433000317010116,6.50230663726423,24.707100491228097,28.2555779612063,19.374921421391065,9.498405153578268,-2.554751056899459,-19.32918294482186,-24.795609674142938,-25.640384621151103,-51.92112051111462,-82.38625996273676,-91.59803939060086,-108.8393679228476,-121.92287827179004,-117.9200488802279,-158.865207670283,-196.27309934884,-92.36705746847554,168.35219528928457,546.2595631942194,810.9421877277733,529.7652119621329,-102.8171716452426,-317.0767383567439,-112.90690510056933,-92.6246779948036,-202.3746406804107,-138.09999951477164,-77.96483554083947,-111.99126737981604,-77.12433869092135,-23.577570138735766,-31.541944165153467,-22.304919843762004,-0.5701431470035381,-8.228115885233418,-7.717627690148785,-5.215576037953017,-24.45499631865847,-32.187458532287984,-25.677758720656897,-29.861608089687497,-26.9716714322784,-2.9994739006058593,21.891212465441402,39.59312532885761,57.91662307076471,76.7224928824184,93.48820217395449,104.17735678967827,95.2505031882624,57.84796268299567,3.8133755072108997,-42.2224664804216,-62.66289199595113,-64.36499182041533,-71.6629260217533,-88.11996415348278,-89.26893727767333,-68.95690677609552,-49.58540858389324,-38.82138568124283,-26.246219187510228,-14.574919523389184,-11.096163594935597,-8.100622827528351,0.989450520404862,8.498225607932042,8.796842779749126,7.633290316629468,8.240910306581831,6.099119683787265,-0.5744902240855367,-10.103486160338903,-18.5429074370229,-17.222125024645777,-8.196404178460831,-6.790437012679341,-13.225799003191213,-16.252426201321256,-19.358603933542316,-25.48810539361951,-24.89507431211716,-18.541464560383822,-16.833026427276724,-18.38926010023109,-16.09358720593449,-11.486227544037519,-10.725054847083257,-12.45011504908032,-11.122191161622098,-10.801887387995237,-15.159915652281569,-16.033177641794268,-12.285789713864556,-11.382391380101488,-10.824337862714849,-6.939560746315966,-2.5292304475903613,0.25831091408075224,-1.6906552957022285,-4.045474007669611,0.38526761270750143,-1.4132873967659876,-17.12668880919742,-28.477528313101466,-32.470229941995974,-39.169609889255774,-36.74896482798539,-20.616446464703138,-5.178163224115501,8.862671469850971,18.72366763033478,11.976977549818702,0.41320792341932133,-4.409356200363433,-15.790035003208011,-28.1221397319476,-30.80874154434815,-44.433687524202185,-64.12581656789207,-68.66335731116274,-81.79023378496294,-100.14793794241845,-99.61962194963948,-126.95701741185239,-172.80856681255727,-129.01403289740176,65.15125018271249,442.0565184280252,808.2373476871375,642.2307792208027,-20.358131474561652,-352.0811670471489,-152.64780696877392,-71.45626370496973,-204.98090520997476,-175.86683079111762,-90.64104045461572,-122.15900019043531,-108.23973071675479,-41.71928907063153,-41.58254075344402,-45.424099430249036,-17.543535571264595,-17.38596695283864,-26.84668217074267,-18.61758742214107,-18.1591442200736,-24.76100697237527,-24.01369174426025,-19.897504135495506,-9.690915801699369,8.880745860595779,28.223790624466282,47.65880794512523,69.2171100093166,88.8297410370249,104.28584597573587,113.71162144880734,106.71193657902694,70.90012180884659,10.439734073888532,-46.98932697877318,-75.92305552785504,-81.76393521718154,-80.64417776535005,-72.52973262574315,-62.18011315822409,-62.38754511957945,-61.35205502551657,-42.70747131898216,-21.722004628599745,-13.822725958760063,-11.265801377233966,-9.681399248794456,-8.461952687835804,-1.183660241333527,6.394317674001972,4.35066415726628,-1.209549301609023,-3.8156053499617144,-4.678987247482038,-4.80082508290171,-11.210238839619542,-24.58330000074443,-27.580492974045384,-17.52993960502033,-11.622555777429962,-9.915094598255198,-5.575889666381748,-5.555757600284693,-5.881912864206164,2.977334210802873,12.500621713743692,19.429231868029557,22.116701066474484,-2.565777135977868,-46.46569791247701,-57.22971516711715,-33.05024570869927,-25.42852338705091,-39.07609602933922,-40.06385782308992,-29.08081506265221,-24.108516844137913,-20.641593615496777,-12.440579839187158,-9.602044570787818,-16.672970331671607,-21.930815482011425,-20.101191534609434,-18.282282132571943,-14.131566927471404,-0.39785710169197586,15.594054291630703,21.556441947137586,16.587575387872846,11.663123875108578,9.402802385287757,-7.903419596113409,-35.12216148366497,-42.727783840094915,-45.04536532070469,-61.897233736976865,-70.74313500413226,-84.52445533998906,-114.67936692336043,-119.44740000408716,-132.57555705313018,-184.0657499433042,-148.64003017934502,60.21165059763965,414.5399757530047,770.7747351759176,711.0061371185411,112.8677450058254,-331.1222795072192,-214.09742707339353,-79.24635519614084,-193.0427615963516,-192.9743687172218,-81.47236033678051,-92.18413156498322,-108.56820441328276,-51.58108339223667,-36.40882069129462,-40.968511607063085,-13.777159666783966,-8.371367978675167,-24.24333577003947,-23.723800438752296,-19.760040062925775,-20.20237036693392,-16.18007373650024,-12.270213501297015,-9.012968512716853,1.4946409249765438,20.58152719462958,44.440857136187255,69.36199163128096,88.253042254344,96.54895924568896,102.2285967743244,102.8054128509882,73.85898724766355,14.458191199848212,-41.132619988556975,-71.15335319352174,-79.9721156185208,-75.91096187114948,-59.62489628163907,-36.34986392073715,-36.2518217470031,-70.79593783727215,-88.09968770902574,-59.58124824963214,-33.47161722389635,-31.580060894536956,-24.18031832624593,-13.83103914889626,-15.250148250612721,-11.038181022411589,1.7133675163732498,3.2704153837402536,-4.842149819174278,-8.003265384491478,-4.842979944359634,0.10157115287999474,5.413427012720533,6.254582008012232,-2.5843038950793478,-12.220182217765494,-10.16348101847258,-0.8552176445994846,6.914859765653976,10.37405097147835,4.435033923565673,-7.546696612699606,-16.179955108411697,-26.875248164919263,-40.1344576879521,-40.35243402581986,-31.256037227165812,-29.716958917294058,-29.495358559368224,-20.792341904751126,-13.84915519394023,-15.257699529423626,-17.286300671534754,-15.727086161665703,-13.420973829395443,-11.706841488009353,-10.08082296776649,-9.617560338174407,-11.879908032147398,-15.6239740520476,-18.384481374875044,-19.075221008614434,-14.477207574557678,-1.3676592588116314,14.146573587137004,21.331505502203434,18.582057852665354,13.746376544759745,10.395691600277521,-0.2740359182700445,-18.6536028150392,-28.89857309701822,-38.873054710636744,-64.29872454581097,-80.22309607566062,-84.22804083826088,-106.53752281823417,-119.97677355313098,-121.19382178586862,-161.0284662777929,-168.90685388727672,-33.19468131962043,248.56000837401635,622.6619289601222,796.4063893434954,413.2525583155327,-168.76367856053304,-285.4769967999597,-121.7328844143092,-160.80796265630312,-226.7577572920638,-132.11063048541158,-93.58827232600915,-121.30133594415514,-74.29179179668434,-34.4523855934606,-44.604879774044775,-26.944566655646312,-6.508856650207736,-15.857795360419168,-14.259938113295455,-6.095995240841425,-12.155543045993483,-11.83253382395452,-3.4711266652198063,-2.563277216546295,1.971145163038487,20.945334692114464,40.53087426077067,47.36041581138685,49.75062901219216,62.84493839147349,81.19116581914432,85.20605700639815,68.2110789355057,33.29003050494484,-14.561569121499478,-56.19296161560233,-74.33870129937681,-78.21619289211431,-78.966869918402,-71.34828554238553,-57.08777416766347,-45.50734076813342,-35.76457756688282,-25.67636206544357,-17.836482684471743,-11.57428203103639,-5.640198251613121,-0.3295096918787159,4.859990531412613,7.854228447243971,5.7014713810245805,0.5598949660192787,-0.13521389711891274,6.349983977703857,7.392588700831368,-4.450223282603769,-12.087672981690403,-9.942687376995075,-15.44872271007489,-21.885283365554976,-12.074465179779784,-2.098935496561687,-4.6621972648864265,-6.45582738815753,-6.080354329591902,-9.300369830131075,-10.037319992595652,-9.420534392716302,-12.89338761534507,-14.698796222457837,-9.52392274084798,-0.7616125737698454,6.446618154218282,12.707306126198922,14.02856208895286,-8.741556178061579,-48.936326835702175,-60.485298914075805,-37.56000559746033,-24.620759827054496,-28.951205363368157,-26.439423919595075,-19.505327603789134,-16.39454934708661,-13.00177011339786,-10.72367863026517,-12.377649828056725,-17.09749909502797,-17.40029189035546,1.5047820810512889,31.80902670452008,39.63595273500645,16.21941243351317,-7.478694332862531,-13.47870529717153,-19.917698769653576,-32.42307132131746,-38.009298915311504,-51.011184715944005,-75.51585912706304,-85.84958876436748,-94.44608015584558,-109.53657754018093,-112.72380703911492,-146.81448974654597,-199.5140287644136,-137.18656267891365,91.43660157860836,457.0685644122297,791.4799050948116,651.53246449476,26.126976833642793,-325.5657071880137,-146.47722693888397,-50.255014111441085,-183.3278327195893,-166.97156271696647,-73.03472871631404,-97.67239422460571,-98.99751980538184,-44.77114534534985,-43.820219347832776,-49.54776712963617,-26.823178483271953,-22.82030467499507,-22.116455728739272,-10.603274580477983,-15.239417826892412,-25.29394402855955,-20.83824900924345,-10.893682145795692,0.02267011321986301,14.533513458328517,28.996501103251433,44.2701676244872,65.9083398132195,90.76609568337592,108.89381733958712,114.4333675199511,101.81301148542491,63.49109903678284,5.907121106217704,-46.563135893807946,-74.14333508449505,-81.2575649329378,-84.94728809303587,-86.22604182977203,-74.32833308678913,-53.746069474205086,-36.56449387698164,-26.096896448252416,-23.92376254841179,-23.727276944834202,-12.941705772145617,1.6825376405528623,8.739201024976838,15.489245839412392,21.221439346742898,14.176835045763813,2.9112965079749475,5.78757578382198,22.526756043846472,28.050480104879,-3.0486397930198876,-46.088512457386365,-50.91651572583835,-28.93514790650199,-22.896969098670816,-26.44265382708859,-22.487995140690074,-19.56821949847596,-15.632230120649318,-7.014105794164962,-5.092870589195506,-10.378852800354238,-17.563513490916733,-24.899433177149596,-22.095362794170597,-9.650720354190181,-4.429119312593507,-8.074597943198448,-10.817919439000185,-13.239074294034605,-17.935349172816693,-20.751676001243883,-18.257002107598414,-15.478503606664884,-19.687251421476486,-26.593349081798664,-26.902697646196184,-18.14685907394523,0.279655665000643,21.135325891494844,25.89786171241997,13.779999891231867,7.435867879924874,8.798317950807848,-5.422063496388866,-29.602687596996507,-39.659730702043106,-47.61313917090004,-62.18080690478921,-67.72893069617328,-82.3866956456283,-108.02955380573533,-113.74088520973686,-140.57171102519885,-191.37059367354757,-139.03822804193308,75.32938107349352,425.05389765863583,762.7622806848177,666.0272560767057,72.41166492203163,-308.1519101947455,-164.5207277385216,-64.09924566254038,-190.40925500529528,-176.71867990292256,-70.69406708569022,-81.3247557952085,-78.35228939274378,-16.10156895866588,-11.41003155546062,-28.152918423350954,-9.986610486225233,3.664042408334126,-6.915908129840133,-40.38698686907354,-72.56637286071607,-62.84167655697003,-36.036621017437234,-29.751618705948886,-22.04176373673981,-2.0530524385918927,14.57663894934177,35.57209003016544,64.7898732480388,85.66411489980975,95.33264439694138,98.77706704214012,87.78844508263472,55.444191300754746,9.44700617269039,-34.58162988585755,-62.52948546589337,-72.94004274918694,-77.94968820128481,-80.82093073013127,-70.80206839367153,-51.611023286127704,-39.756156324384435,-33.97569098515546,-24.722309966966602,-14.897149209064267,-7.326112309137095,-1.197998361404629,0.6544457147519225,0.22322200256326852,1.122292124199305,0.5994863781469029,-1.2634453047412144,-2.73510059339095,-5.093686655013325,-5.51628062782255,-3.698138923912719,-4.898505980955399,-6.782110261556088,-5.813552551221395,-5.4954768654950605,-5.498120346465438,-3.962400888178525,-3.2037632309727595,-1.9466935653809792,2.1439361724466846,6.426487003460988,6.772409936172833,2.2633561952440573,-2.2171058142901856,-5.203714877034246,-10.597616825327385,-12.216905114726433,-7.133009241537687,-7.507758836193826,-10.850374825216477,-8.548252003843158,-10.978947368634017,-14.011549557226903,-6.530071394053547,-9.301909143284313,-25.592668425264247,-25.445908214797207,-12.851407632951592,-8.741969007102746,-7.103772745985111,-2.9617592802481916,6.414848254033842,19.901739870297263,10.279691982173858,-19.65510830220996,-25.34884245531808,-10.075561095707641,-11.439359867878913,-27.91379864953622,-39.76327196278703,-41.67469442514718,-43.59688213047956,-54.74511385892082,-64.95539250933686,-78.45828714896892,-101.46627193240435,-110.3668335989748,-131.52478370946994,-184.45815015396136,-159.71944747922828,20.498187319808608,334.8698333344979,686.7928996536609,708.1661111331293,191.74302603496957,-278.59955004248604,-212.18841925508934,-56.5435821477314,-154.37147586750604,-183.36002005810082,-80.6397408715893,-81.51844414375427,-104.12177785985061,-49.15054605276734,-27.722533388200766,-37.588863475769486,-18.379532495292786,-10.345952879499606,-17.954216881786103,-13.20727812701437,-10.88704534637628,-10.638271524462155,-4.692591141789048,-5.278699984156222,-5.220910488306258,7.42282671227876,25.82426772241245,46.1411245093433,61.757593839877025,63.93905599019992,66.33837951880045,80.74075263365054,88.40122665389728,69.45548206175548,28.382517959346444,-17.51999434284059,-51.86099980642729,-66.1879511151162,-61.218599094445736,-48.77776984205293,-51.544960775097884,-71.63172796484231,-76.70981289232208,-55.45482605881803,-35.22133729886326,-23.816013706001613,-9.737900714187909,-1.2042347523509953,0.49290224982634356,9.794410006608803,21.771847771952732,29.33310029872043,31.85128964646335,7.4816678545157025,-39.843778429888886,-54.7401541306794,-28.037096867820697,-13.321215751759205,-20.012329730972432,-17.907714544586433,-14.21460055774159,-21.363850678793288,-19.828506479416927,-6.407976019323456,-2.581653285812518,-10.308579516002844,-15.734325645278922,-13.8144775734106,-5.13543234356975,3.93068278333514,2.631210795190462,-6.4522056486207795,-11.985476150631516,-13.008933664452847,-13.21182722877229,-14.091951136388705,-18.540739079357824,-23.435908217058312,-22.56129018807276,-18.58472186023136,-14.149977623079458,-9.909765104199643,-12.766079406370974,-20.96907021578577,-23.284741713370522,-19.936814829596525,-12.29991966061555,5.573082568267402,24.505419685099042,27.017050695873813,17.69655118085158,13.899798117819028,9.677897894587396,-15.91785320572815,-46.43169010437365,-50.02411328985786,-48.7448161476961,-64.4989787200177,-72.38197922958341,-80.37272737880377,-103.3386789344796,-116.2606754275739,-143.1980534871424,-183.312119278966,-124.27490676093977,93.69372640725183,443.9773304469122,754.6491768527902,613.4019460120724,18.447391964207046,-316.8900976928884,-150.4375578697597,-64.05501489454312,-194.482847561693,-172.98153563255795,-73.00486276603938,-92.42725082077294,-92.68324307694304,-41.08101674911374,-39.96999427119037,-37.33834896248973,-6.88973638391219,-2.848544492033028,-3.836863215084403,4.88947929923593,-2.6423652660811108,-7.770687830032868,7.145497252258552,21.75249195925131,14.240641847992299,-16.103203066564383,-28.57982328992659,7.241331785685998,50.82054778970587,67.7829371343069,79.54928558624945,91.85511225314082,84.24961926078264,53.88941732496334,7.875686835965638,-41.57226968425468,-74.67779416223665,-87.30363762321407,-88.69243726208921,-80.77711081816483,-64.03287930600281,-46.604531683396495,-37.11971792897919,-33.72348045945657,-25.855745954113576,-12.079266052504437,-1.6847373427696901,2.853127065765399,4.373614703897481,3.4793346194909347,3.6708111052802934,4.371159662026351,-1.6200417119365653,-10.062310484265293,-11.581805939928561,-11.429911210590166,-13.940898092669961,-11.625253352184247,-5.584742632625833,-4.483593843184526,-6.488478310487469,-5.880436721540633,-2.4354792990196206,2.7096034558780335,8.427786186052588,12.231573438474438,6.816248973295977,-12.651095332296123,-29.519946670480135,-24.714125138517314,-11.546889730304393,-9.045368198119554,-10.836596506751956,-11.468644428787634,-14.364950424937021,-14.55033334220763,-13.719060666497132,-19.512774490961938,-22.940444432782535,-18.078148702936446,-15.691725097783578,-15.578245188334996,-10.430367072127197,-9.627204551722489,-20.438539595129882,-27.285254394284067,-12.364114652674738,16.450428149945253,31.940524108919742,25.856433559981742,19.787263826663715,21.922038048855967,15.635004988731287,3.6385903363804495,-7.902701788406851,-47.502411711894226,-103.97833122658415,-113.64866375309919,-99.08700348705409,-121.13421408282899,-135.26391772602574,-132.52072370512442,-176.54600132753592,-186.13113073597395,-40.488843412344295,255.49740983894435,632.9040790423915,773.3483660886275,343.4068271291278,-220.3243764506542,-259.68491038773516,-58.30557007586272,-119.09248264973394,-201.42016207913102,-103.49688943030144,-69.25831854490232,-108.91763257481023,-72.23426679764665,-38.88337251641141,-48.805764365524176,-29.939788559221512,-11.848118942759331,-20.7504143802719,-18.00700404111952,-12.50899213657478,-16.97668749481101,-11.442713199618165,-2.8715106556926315,-0.627776207985792,8.575022666122505,26.39491524966873,45.28191352259442,57.78787248426334,58.461065869931005,61.561185889115734,76.48766181135052,81.4601847291954,61.23889228854817,24.135029207450856,-20.4694267039911,-58.80992633382284,-77.35453265050386,-79.54345234950584,-71.62147372086818,-58.060467054130655,-47.97939564103072,-38.88049599815925,-25.359050001990852,-18.58418897428475,-20.324087407539174,-15.56532591218,-5.676441549555889,-2.73920993679414,-4.621869421006387,-5.235142927631067,-4.06896981342279,-1.0996003503430245,0.0036917057858971702,-4.682718664404632,-9.873590149909873,-9.375429840586667,-6.440563439018916,-6.0158103835420444,-7.572723155316872,-10.410678233965147,-13.737769518577913,-12.178877354382283,-4.659680232601385,1.044250641475843,2.033395120255756,2.4851702064042236,5.31763752967647,13.410200500607097,23.034285195496956,25.729523271274836,25.943018457621104,20.39995185858693,-9.6438832128724,-42.89256060656177,-39.452120641975625,-24.19352501542013,-34.37070649915355,-45.01118772506548,-38.7974530121052,-36.9139699878792,-35.17107962268844,-22.027624656979857,-15.281115836783982,-20.171085514117873,-24.02143714462625,-25.31620102740737,-17.324207788391185,7.174344720502834,29.326732250179774,31.196485187721898,22.19810632036722,18.50317888487026,18.118761252264072,-0.932049041660516,-39.065256854552075,-58.979903580688855,-58.692619013008766,-70.32076804958056,-80.97273879310137,-84.00789424174852,-103.56471224342182,-116.86386716782503,-128.34954982141258,-173.97565119785548,-166.46451068432847,-7.893782168115635,294.2514925075036,660.742547065538,746.9331240243158,272.11232566525484,-252.67877050137884,-238.7779741982245,-58.45449873747882,-145.92677002083042,-205.33630406596114,-98.05440571225975,-76.40212484911356,-104.94083668129709,-56.7941882651287,-33.15657402781381,-47.86834964635641,-26.504100332923294,-7.511394312552696,-14.213977300940549,-17.05575766992762,-21.82099019479816,-26.19254605903759,-17.965956344618473,-10.291428349931948,-5.740866396118203,3.317115381432105,15.434962319774822,33.77133720189232,58.90059812980882,83.12127939265886,99.92603415529967,105.06697308774626,100.66720113453124,81.30089760206562,32.115907913540354,-29.00872728677545,-67.79930091615185,-87.2292256151147,-96.00183357853669,-85.27704598551779,-65.15277310585604,-48.41282279241911,-34.54059418954017,-36.59239447909016,-50.97218508298429,-44.979854154147624,-20.88064861626702,-7.9195228707008845,-5.6136897773108,-4.233197807705281,-5.539997315845941,-2.6835562481856847,6.731973674637427,6.534360585736781,-10.005836767211473,-25.88276041748365,-26.691849972560746,-19.7917366863404,-14.781241447050732,-8.785347217511983,-5.071474540249806,-11.284416273424384,-17.382827944628445,-11.899173286694236,-1.1558614635413207,5.524805561990846,1.7566377767220054,-13.06362902578541,-22.751761606707653,-15.754014206340411,-4.638290190185224,-1.4026433955250184,-4.841659803758876,-12.472880088465608,-18.393310252332398,-17.87626911846992,-17.029330280098787,-18.95971540527662,-19.808415222955364,-21.60271270232206,-25.74417057557924,-27.45260573445872,-24.928147329995923,-16.441804474833617,0.8096708833699324,18.371412761349777,21.078600499126203,10.402991233722277,5.480075283600428,6.0119929809919554,-11.065009530964623,-35.15813800298042,-38.34475176367897,-40.767201828884325,-57.351040349534536,-66.47319391293075,-81.163191744726,-105.10245124358644,-112.6880722108368,-144.37790336268588,-195.7530343197843,-141.7663101386813,77.29343676396854,438.4645530713676,765.3154774145305,629.1805769271843,31.67086385897378,-309.9424081497163,-160.13815088996552,-81.04606067571564,-196.548740858822,-167.0096225592685,-76.32729407550067,-99.76615551623394,-94.14845275691866,-36.857647892581106,-34.15430620763352,-32.702307302759955,-2.96871801027115,-7.6082180814260525,-29.46521283771448,-31.330939362590406,-28.670143812674247,-24.142481332448156,-15.313234561082009,-12.409718235823515,-7.69359386326041,8.04203337975229,29.359108784310486,53.60073487296801,75.53614844936563,86.8820211814281,93.4501770549742,99.46685306756777,89.27930671723044,50.95646954602635,-2.865885792302805,-49.68654674577975,-79.03813029017067,-92.25142908581114,-88.84906931291741,-73.29464424302114,-61.518201860470626,-54.97483979524827,-41.82301429335675,-28.90740740588977,-23.07480005749788,-13.087756658109086,-2.67114616122781,-2.43518014085344,-1.7507372986770804,2.4701171445241528,0.45613129183414003,-1.0296409466555367,2.9084521165955373,2.0817342655665314,-2.367090176261218,-2.117020770325034,-0.7432439636409711,-3.057876639266947,-5.276259658706579,-4.1585716280864276,-6.1891559412451365,-16.17716729189138,-22.14690366812635,-16.70541818570016,-13.076151633535058,-14.611121170094005,-10.750992933117931,-5.792596826941573,-5.001108490090385,-0.6265890516802823,4.453981092464012,2.1381687613786298,-0.5700515005288196,4.360431306972094,13.721314742873776,15.210765973321827,-1.4741012814199586,-20.219105027048265,-17.134972981165316,-5.082524078314414,-7.322381024741535,-19.0523999070092,-33.56023663697864,-48.839107894826085,-47.50990421753724,-23.9451944207984,-0.9435730862759328,4.486660162859337,-0.8220790264189191,-1.4514044861643782,1.0634476053173714,-11.712687543911201,-34.04380753229404,-46.57043963079701,-60.31371683595523,-75.44244323032031,-77.38499927174749,-92.3984127931256,-118.84488191253857,-123.79925896709209,-149.06925483044856,-187.70957748828528,-116.5540117483907,111.62740274247071,466.2406147151472,770.033054128364,605.8640551480725,4.841572391037868,-310.5995688049003,-141.83500016518568,-69.0679436026537,-195.4585880464616,-168.85768047607095,-75.15959727326684,-91.50283803955895,-85.67127079518902,-38.70739427628018,-41.29748153242646,-37.27207446369447,-6.487844191909446,-4.909683216235681,-12.128347547471169,-6.117081536310515,-8.82710939051004,-16.979604039456543,-20.742071426575855,-19.435431485221354,-8.135950682224458,5.041557464669303,16.2694298191009,37.339457021187656,63.47871310239748,80.64206296092176,88.15497985691745,87.28280760399343,75.92207619822463,49.691301215945856,6.939347638541728,-35.86041200894469,-61.52361615996445,-73.13707887948595,-72.75736768264287,-58.726241262418824,-39.90999986050079,-21.28377205370466,-9.513120972067501,-17.65655502443366,-30.704106640028307,-26.462003251898306,-20.69957894412505,-24.451251625850762,-20.821698469799053,-13.73619207391005,-15.261382630527233,-10.988504573881723,1.6633800558443,1.1137426305722826,-14.171211665284076,-24.529056737367473,-22.390494406148356,-15.14859688359859,-8.701960298499412,-4.861918500882091,-6.766771091302704,-12.339755867126922,-12.84966425682505,-7.894906541038608,-3.925718730211287,-3.1763567920465228,-7.206288943714256,-11.993462670615923,-8.532300638055466,-1.2877147261028679,2.79726112939211,7.020035843553341,5.192178115140397,-6.383769372616374,-11.193968434131635,-6.025680909857034,-3.291602101862317,-0.8111000525853385,0.6683902541167974,-6.684987325757458,-12.42909783051927,-10.731258020092696,-12.862914428626038,-15.630367084294559,-14.725629923357136,-24.213932518950372,-37.15050369711362,-24.279060319735894,7.926466408378989,21.81342617969147,10.90778903804416,2.5756059803398017,5.363630284867991,-0.48993655605161024,-19.37419203744831,-32.18752631120965,-41.05883856923622,-60.37663716572389,-72.87152250977763,-76.34045861028906,-97.5855052197485,-114.29212229529278,-117.85780335737117,-158.58273119370497,-183.25800435174952,-76.01983312426512,181.35951706798718,557.8085238416774,804.7479885968289,509.27755382534383,-101.5074467348311,-297.72563277676943,-111.28242752526602,-104.60698166245096,-207.15285554262306,-137.73602350653866,-72.22598635016737,-97.5375296226155,-69.11646396993712,-41.977655658055276,-77.63190716681882,-71.56832896032476,-28.835610272240412,-26.483389310206043,-33.624425494744045,-23.99194806206787,-24.528914346048744,-29.355694144433635,-22.930706351818564,-11.710792122129885,2.553126193617098,17.957147834076032,30.681849424325893,48.774327214233736,74.16513590562923,97.0958765188443,113.3592355505983,113.89971734144203,85.8373999260189,39.700901716037556,-6.25697260014628,-49.358088413473425,-81.0538059896906,-90.74691811994688,-89.01394219189007,-83.46034072859374,-68.28859534435006,-49.32615324718759,-34.511649904809175,-24.09574250465721,-24.43612940940089,-30.251316279767636,-22.69840152398156,-7.7151003577584945,-2.8187440911851027,-3.490544003288914,-4.0657069823605845,-6.441771579238498,-4.962026136290117,-1.3576814494375604,-3.7306987185638647,-6.719063334732283,-7.074579309043955,-9.763117579943142,-10.893247503964027,-8.215675634846551,-6.7180264921850785,-6.142025254717293,-7.463523331738511,-9.221453244691347,-1.9851612788795752,7.234925243404319,3.9345618103123474,-2.205505902914336,1.255397614330466,9.056827113396345,12.215494758014053,1.4655521897364032,-17.87894426116735,-21.64810943658204,-9.433314201818982,-4.293394339228936,-10.133287207346665,-19.47263515907673,-28.211551352869883,-30.466776562494964,-29.5118307639072,-23.21338074488427,2.1408759967789166,26.80921596469229,21.28812864530002,5.863692481700557,-1.084148096821007,-12.978276203104887,-19.34815442480979,-22.98843208066912,-57.85202038301524,-92.45392796152902,-90.81724673231622,-101.12001597629043,-122.0605112612311,-121.00964788302053,-156.67559351156993,-201.66205530583505,-116.09599414828944,138.56115094105792,528.2197734393636,810.5917559692726,538.2206364493759,-99.78451098044209,-315.62071588714815,-98.26950385008399,-72.97505102526952,-193.69215172044662,-132.84653327272798,-70.22189332685602,-113.49687173692277,-87.51739402981039,-33.59057059919883,-46.25316324014023,-42.24888107021931,-14.525671366183111,-20.037948695602143,-24.78269175463579,-14.15446580117749,-17.46392525103575,-20.742754966638966,-10.825423215886001,-4.3310267610806354,1.5079950860399425,18.51926459392961,38.627610678618126,57.67254638849741,81.51802598591966,102.71590469006861,112.30703905771547,111.16447035582955,90.28165693629026,43.72726270589967,-10.251748361190902,-53.172869473733456,-76.65348746260861,-77.97156341091394,-73.95585697074776,-77.12128453837516,-71.52530860322365,-55.19424622985558,-48.27780545660633,-46.32918750258192,-33.910957103753574,-18.625253419502158,-8.467976029974729,-0.8245066292359837,0.39482121097695,-4.259751892085916,-3.2091319579492747,3.0001704851565254,4.046360653984973,2.5494669686020295,3.6137706643229173,1.8821447509790374,