ECG,-5.8174638784579,-16.42092233182015,-16.53582720183314,-10.919673736055323,-11.385372754280237,-18.42891741103453,-23.051940590160207,-21.613036342166886,-17.966774035838263,-16.157786325560927,-16.434562331797117,-16.743725277637164,-14.137116483059502,-1.9193037645083368,22.859906969510785,47.4557119252665,60.133295393619264,68.67376231453349,79.45093511307947,82.49019394726224,69.62903187292908,41.00498111345532,2.026247575381532,-30.85170269549863,-45.40783011011217,-49.953531495622045,-52.327889880266525,-49.53223247420287,-45.92094549415073,-44.6290675204475,-33.746064522011295,-12.5393896911585,-0.46725694255597006,-2.874595982841498,-5.173264627630694,-2.411643824089829,-2.444164767798693,-8.204393069103496,-15.183133880980794,-17.34690541947369,-13.881858227740125,-11.480281208118164,-11.020726921237014,-6.037876767222322,-1.1611113277506817,-3.234836193266066,-4.072476414485003,0.7679491182037133,6.768311601942915,12.394997839160173,3.3422468096064755,-28.1925611791882,-47.81725246011623,-36.613050969977444,-27.909842212066327,-32.420315600882866,-26.686060939863836,-11.161442608757268,7.865595071094106,30.19332513364701,35.18286933450101,20.307918731954814,9.365771374657314,-3.9557902814936625,-26.59636118867749,-34.171788935607424,-30.139210905241196,-33.611210241066715,-36.094204769013906,-43.046193030535186,-51.32702021342957,-30.612330071979116,-11.545897005806655,-26.024543913167008,-43.68718203065629,-69.55451435708301,16.176080769920034,399.23703282803365,671.0441779923206,224.12753025046612,-461.3929425731307,-488.1182299312227,-122.13541916504538,-40.236667403998005,-86.05175962521994,-5.132716503596249,7.947615586089299,-50.54203901524433,-20.167845898129585,14.164307963427877,-7.021529850318714,0.9840345295558528,14.61176878965101,-14.059040921771828,-30.850280924671274,-17.782364991947674,-11.248845453571935,-14.131617503126755,-20.48987914934678,-26.666431740072788,-15.557019246270478,6.274872007151825,19.12032861085988,29.744546052910284,42.088493243582704,46.77636667895528,53.542573335703786,69.78812912304589,75.6984999658463,57.14119790292365,23.922736407811293,-7.806895244623503,-28.379533466682368,-36.96050802547322,-36.54539969343158,-34.72385430508069,-43.85808006283012,-57.74079194534677,-51.40459230225771,-24.732127878249788,-6.5989391665423724,-6.3138587692287835,-3.1841869341431774,9.310666786028948,10.203624195860776,-4.0258387350533695,-12.158849320372862,-17.06437817255381,-31.80708654531835,-35.97679059390212,-20.438216081665466,-12.42274629773717,-14.164372917897797,-7.6803697895648035,-5.8214998120754835,-18.072956499870738,-22.238255932166304,-9.581667480155765,0.9662190109825879,-4.6497284074450995,-19.712245251862242,-26.393193831940184,-20.94950594527553,-19.231519693160486,-23.761214962826887,-16.095614690646485,6.357225930721221,24.702197384330766,32.00639626461829,35.136453723228016,29.411787011077177,6.6007307504562,-18.83387043951123,-26.30811192152573,-24.314655500799574,-28.020953007393786,-28.421495997254585,-29.6093450241165,-42.18255006455398,-33.37110238386281,-4.183690962058062,-10.614758993222594,-40.83523966918716,-75.4467825730294,-74.71707787337144,181.94152194073354,598.208442053094,481.4426245325877,-235.43861521775628,-582.6810889808323,-259.60112569569793,-21.725747468497218,-86.52321390401268,-58.60803737230475,23.36810567656069,-9.27213071797884,-15.215893601486073,29.30263435485323,21.35950209452252,9.58034395325843,26.3271345273427,19.51007441366901,-6.490567637119064,-25.260746217628004,-33.295971836945306,-30.721701808496896,-29.91851333237186,-30.87979484637617,-24.599905310548273,-21.526114494990225,-14.40311539755815,16.59086534877496,51.83265841507813,63.656045103673364,60.384490549784616,61.451727306659755,66.69984354706996,59.86517270766185,34.57637097191939,2.9102612247486377,-23.94691511087242,-40.218712096749016,-47.22906072235497,-55.89044053745993,-60.67337397142716,-47.87109690875036,-33.03004811699499,-29.723214198973686,-23.564449811469817,-14.087856730960077,-11.284062734956589,-6.144218553532053,2.216828266946216,4.49559857280201,7.928228145905641,14.611226008932263,13.976145543924071,9.730610140278799,8.76230635482918,4.709188158502119,-5.354569571334018,-11.598703145229866,-4.174808298819155,8.79455656138115,14.34544415590507,19.524675893550686,14.963755874243745,-30.250341657031754,-84.4075605084463,-86.28827073749996,-61.83602291935665,-59.49026709441415,-54.844600990007564,-26.901683474472428,0.05865899226048654,14.842870449165419,23.099157191352994,27.337469388302665,25.639002074445642,8.181715922743242,-13.76746415655736,-13.623771826988822,-8.790493909508587,-23.681716171315905,-29.96941231151019,-17.76967643303408,-17.20453437413925,-22.984057615869112,-32.933065761131964,-59.999051035495654,-65.38266525485335,-67.27421594614357,-71.76067970984073,153.2876627138587,552.5566564246291,452.67475889539446,-228.47523219561612,-551.34782593065,-226.15840577540723,5.201139059072283,-64.3104936111668,-41.85312932521082,30.983412867548267,-8.794294016807378,-13.273858046983943,33.13873507121682,17.995606864270574,-2.52064233236473,7.45932557008961,-3.893819053850005,-14.394093360617102,-4.1557236394413675,-8.803216100683045,-23.548459584046967,-26.502914828980423,-25.92733650311454,-21.009197700513432,-3.9628073884996633,14.475695331573053,27.247781856336115,42.722013093259875,64.52141977024367,86.8437632874253,101.98427697776654,96.98699773582918,65.31801212406384,24.51653683665858,-7.200903949818415,-29.986236288481084,-42.036965136909664,-45.16552798152077,-51.99943458636278,-52.82584695077171,-32.046610913998364,-5.525883163305561,15.482573222995462,26.02173152864772,-6.413387409255279,-70.88250152046206,-89.59302822552993,-50.0701820640154,-22.996729156581804,-28.241928628018837,-27.5784265028473,-14.422845557192836,-4.3022933688018234,7.446400499230849,22.399814785638583,25.37269914009094,15.743503960878105,10.44793368254735,12.53910933388314,9.128371600539058,-7.928631029585048,-31.700515364014755,-41.68774606043464,-33.42138780491538,-32.30833113323697,-43.94864262100792,-45.931444560142936,-42.69999107015656,-45.14225272781317,-30.5610056322025,6.2537795758694195,33.44922294075511,35.88874552487985,24.124678713231194,9.193965447034161,-4.507857460826793,-15.158825091762328,-16.447045347734722,-16.393011337470057,-32.53265520813228,-46.0772956540184,-39.67911723634205,-33.89816636555521,-27.078601300368238,-20.25231107907868,-36.81737460384354,-55.68308088930944,-75.64877578062728,-34.111530083724176,275.27339274672784,621.3046807332821,340.20928184401464,-361.0595732963202,-513.767980013434,-129.17766881526427,21.06205903454751,-69.12292811656164,-31.25958764969638,16.41668734756133,-23.419694503274968,-7.957592030598752,29.83966346517161,11.003136664786862,-5.663692968130496,-5.795178221817252,-14.981920723612085,-15.892965633502152,-12.350481318505494,-19.600881990761422,-26.802853672591368,-28.106914425030237,-23.92239048901334,-10.738051261391137,7.318077972833974,24.86067385546501,46.71294420106915,77.1995573263705,106.00945058788423,126.79892532621385,144.18707208830628,130.1125086165237,55.68493691373592,-19.155725645162967,-27.982971766376025,-23.568279903839553,-66.02731452653292,-106.91691245326732,-104.75056186620776,-93.43807578545879,-85.90103395487398,-64.78856453123208,-47.694453701018816,-48.2336290888908,-40.67515888667391,-20.16812161748207,-10.596280285773545,-8.844214506314156,-1.9426126354332034,-1.9114105986682688,-9.93373580942458,-6.4708759456258775,6.169615631679367,10.56605831973244,8.139593534953748,8.41138499219539,11.403957436807264,12.439947728620094,8.655474310380361,3.3810835388578813,-1.1317711064954388,-11.987695609576623,-26.956702948957346,-29.123593959147556,-19.915007292118695,-20.494884140513168,-31.474417016614098,-32.38641647794327,-16.985815582616794,4.353174281400365,20.376477398080947,19.590206191511285,4.798944207138021,0.09535581316461972,6.527096175074005,-4.550570113242404,-25.686629275863773,-27.68948118391701,-27.101896860394827,-37.09326053016039,-35.22662272822324,-31.910888665503997,-37.01976620386853,-27.863927562644545,-26.402952812737247,-41.896200324578295,-51.87831432346853,-81.54002936470557,16.06472832100883,408.01959446174226,601.7654916037988,72.41226219303775,-523.9944274666719,-392.98747743513536,-18.94723657272467,-10.919542031629796,-63.39992508810581,34.681560849249344,45.18293784852345,1.1076983152579487,43.45972361553995,61.0568010510003,18.93752803354334,8.708956109300612,8.69222176286491,-5.84613800560221,4.749966014955952,3.1866707574133173,-55.14095445612127,-102.60605993540666,-86.86726180832723,-55.880586142676634,-42.210287495455404,-24.384673534993603,2.4677111919403036,29.11392936610875,54.379751601490405,72.88869036760256,86.2521527128232,96.60409697351668,90.47629535449089,66.87512097344568,38.15211142151251,2.3130531688692306,-38.6784623354457,-64.47505066542469,-64.01818730937059,-51.70072874847513,-47.665567927669,-48.203238501120516,-37.352269106258376,-22.413561476482993,-15.802666556999146,-9.16790673448785,-2.273329462066048,-8.031246405253956,-19.583052376437596,-19.518391456776857,-9.368655896008596,-2.7902329261195895,-1.801181520698906,2.949802298964933,10.231299136918954,11.508772374732203,10.803550144341266,11.365496666056005,7.013204480209305,-0.7891504855865641,-9.218211360849931,-17.56135068406747,-16.91677096588297,-10.495947470463774,-11.775684532081533,-15.18581273711062,-17.575743188095924,-27.25624610814345,-31.610034081403548,-23.236365306250683,-22.93530287570062,-29.72539246301842,-20.190641890791998,4.0907231070578405,28.936645008390443,46.184023416070744,47.25889263781484,40.68036379408482,37.473931876786764,16.437833366012647,-27.01603684992295,-51.47123787613991,-45.86502582607191,-39.35628087547481,-36.50735836233045,-31.21279922321585,-23.622702386206676,-8.562600447303806,-0.9684409097878621,-17.7274419248649,-73.62444949895821,-139.80247011410765,12.30053415220597,452.53918569206246,574.5738122661168,-20.162993407107592,-557.0882372465248,-369.0580053210631,-26.437135644947936,-37.24569348511681,-72.10394555123541,12.96187623124137,10.337385558087377,-14.644759108363928,30.190596700672817,38.902009406640076,12.209871416958862,9.32083326687855,1.0391271766415215,-6.537409006905264,1.8657419179697339,-10.979538582579018,-35.84964077090048,-38.96048453153633,-36.20474455033519,-34.06698073427318,-15.332613230962354,6.890490645760201,16.36613380589028,28.206512970270044,51.854998004575585,75.45509051183647,91.58099957243908,94.12975446415896,72.81717726722698,37.87092704987525,10.525158601271064,-10.452498653566987,-31.177730357163004,-45.03674724408542,-55.272563798592955,-63.86439756569133,-55.1283919813207,-33.621087536085106,-23.822996141939996,-23.308786481063144,-18.657443768827424,-13.908880960881456,-8.175647623797577,3.171588541294293,14.144738969806157,23.22413188697827,28.84541976906455,26.220133719317822,22.07354209651447,13.23843210327148,-10.99565095045439,-30.891690223192924,-32.44030755963202,-36.7103949546926,-42.06493528288607,-28.390318636797065,-13.113357711016608,-16.929774254717348,-23.992830215822156,-18.77067381599276,-10.391364834292926,-8.382366572219762,-3.523390958608939,7.426530808654359,5.6995601256943935,-6.100976049313022,-4.457007975592266,6.467251941989264,23.279271351582114,45.00051851548425,26.589895728970806,-30.22193416984689,-41.68732519689889,-6.566835231863308,-2.8006299197519446,-26.937771716657043,-35.778075384314306,-36.947984526609716,-39.58264757589709,-36.099874938006124,-35.03887978606441,-46.84706689008348,-56.106428644543556,-48.34984586327556,-44.493421244818705,-45.25078809287287,-42.94391021263666,-62.276295696829415,46.12544078984283,425.1037412023201,593.4144407859712,70.65371260339165,-502.23396450370103,-381.7159926728527,-39.21725166964427,-36.60300142684343,-76.7188231578055,20.3697814226879,27.691661249965286,-13.445707107596705,17.731845993620617,22.513700178928655,-7.049791626392018,3.7052923508296125,13.839976400825645,-3.128878782820431,-12.229377454652393,-13.539454135964556,-14.511947436375252,-9.085493554565613,-3.4381429957979286,-2.255343195719319,-4.270869968092469,0.28020811588636185,26.154453353204605,54.44135423267756,51.690647245338326,34.60838698452315,40.41499718710284,58.80034794847363,59.32095250589511,42.90272106797913,20.617477357799988,-11.134283491846968,-46.77799986104243,-65.56464097012547,-62.11404941795068,-51.63907920222354,-44.44196106037936,-38.01771296647093,-31.256498746347958,-24.57850165790511,-9.527997302324257,13.54895512117107,24.600454558689776,22.498453831109323,28.809361993426783,41.009154769151834,47.735188588962046,50.34464101998841,24.773856393102363,-38.10137822322615,-78.2870892563067,-68.06180015383222,-58.581625820876695,-62.88961566385303,-49.59053491052179,-31.842359713524516,-30.29348848029066,-26.854617322415564,-13.527745042432223,-5.104576396235839,-6.725725271979016,-12.15926612470578,-14.940272123495376,-13.407221323383652,-9.437160916248132,-5.5996716135041,-9.987578494159514,-25.08196635839355,-32.92345838100144,-19.270989302875684,3.7309194779137282,20.244168093748762,29.475981614721228,31.585628715545347,24.251281319208303,13.288770975293877,2.458924078433501,-11.476625613914413,-24.447444972322806,-31.135162437014724,-31.821332949856718,-28.109463648754662,-28.87942875215341,-32.52425897044755,-30.660744576875853,-36.482366900452114,-41.1560280874211,-42.60431569947221,-57.847540021809344,84.93532341601183,472.6202123630562,556.8151674563844,-36.868062889631915,-550.4577137993715,-351.4004566201431,-24.254945316013796,-47.10461073065126,-71.52076155891804,21.773695978906566,13.632107301221922,-17.01879773448629,20.5733374885761,19.9887638583884,-3.0764790587228052,9.392484864624022,9.036300090347673,-5.892462158426067,-4.1075728337110995,-4.338464890238939,-11.115169253561616,-11.509009251495701,-7.782377602559001,-1.7196784509649863,5.996823468153113,20.34045664704649,42.33188070118881,59.22611784258273,74.86007403583591,83.03653454137708,53.00582275698637,14.680047118253453,19.615501907662974,27.059833314436712,-5.420543686406269,-39.094300740147844,-54.95651514025863,-69.20769025899416,-70.45879532914607,-57.47387693093566,-48.83592451430107,-41.19328205714537,-28.741346823664493,-12.73080574076652,5.902046637926816,8.692426951978558,-8.091385962896702,-16.45332645254853,-15.622120445549498,-21.68309559573115,-20.49674144954107,-11.028659526824981,-14.625712688365134,-20.36446737536375,-11.407288760058123,-2.5889429562697686,-0.9990613117593306,1.1801719589756878,-2.3004802101397956,-12.225003578824062,-12.437161553429062,-2.7785453583777393,1.1485050500392298,0.4532781302505846,2.9335471254747247,-2.774597527511162,-22.055332156701457,-32.667769107033585,-24.610039812381626,-20.005253311780116,-30.07164892175517,-38.80725195589283,-34.496495237243096,-19.09792570673494,3.35075078358504,23.871474280229553,30.032337679173718,22.58630213530858,16.44647607170187,16.51104237594493,9.715862926916458,-7.087845256049549,-21.419596592527967,-31.435202881834105,-34.87150598411566,-24.735680935184178,-21.522510579128344,-31.786307272431053,-26.387978151878105,-19.793934639882274,-31.231702973481937,-44.4516101387333,-71.0033063902453,22.88021915245602,399.71537148635656,613.1517682978135,123.77660412981038,-478.94647614973576,-370.5354822400287,2.551323390615938,-26.11083492184411,-141.6947358231238,-45.55703695462151,4.522917115089001,-35.06330701765344,-12.912333176408843,5.614819657210223,-12.52601279159066,1.3099597153992306,15.162691626128957,4.061045235102386,0.9002018378163577,-10.600091352460492,-34.3496615643084,-33.36623461293775,-18.373663282193704,-19.460640257736898,-25.263487891890943,-16.25200709269454,7.030556198656107,33.251956609513954,54.24636154984622,73.1045223481776,87.3324679828558,84.62466184589272,71.30747401045625,62.97598942657594,49.76224298418632,19.618357240743453,-12.55737424240083,-38.32449676638639,-63.87494015683033,-71.77676787292276,-50.42720778838114,-34.25169360248397,-39.60738818572523,-37.892706616918076,-29.95824389730346,-34.72502489528881,-32.034232202516456,-16.631056320172323,-16.67854691660709,-23.179298324853995,-14.436571107765701,-5.9434353117924985,-3.4043487577566687,2.2112008113401274,-2.328807980579448,-14.314726996874214,-7.230714839092997,11.477196002749672,14.737227065415372,4.797083477397269,-3.285465535189106,-7.651126224339404,-11.502889954555926,-12.586941707378571,-8.714515686506823,-9.329298034140518,-21.388407987383122,-28.94334120227097,-18.185728051691502,-2.2502097801328436,2.326943802105003,-4.3476975153796396,-13.206176140702961,-17.389007914134105,-17.384588535065603,-13.705934756024085,-6.20779652530259,1.3185265216235305,16.47057633468309,44.3432672665399,61.95767964204653,64.69614160142855,69.2652837502331,39.61931092121532,-43.25100480708417,-91.68046502855645,-65.92859470885674,-49.758549626789794,-63.05960953487026,-55.02992487529277,-47.423796567329745,-50.66889178541121,-30.220489613527555,-19.374822696752197,-37.54275762279947,-62.0526067206752,-69.47192073406133,127.13428419730631,534.590328278048,535.2359526482427,-111.01535951836505,-535.9871129113027,-269.60500660278194,-2.527233533596437,-71.03657594444027,-69.44438262765476,30.811669406634664,4.780571095898743,-30.34196622183244,5.457797219143565,8.526693230952219,-2.5406181713783678,7.517199941812447,-6.741908851782316,-26.052155616201624,-17.992068432384976,-12.47643973998688,-22.08707286464906,-29.86276459909046,-28.95556488120632,-20.55035259406809,-9.833919584919949,2.190175559245919,21.282655296217918,47.36069809324365,70.22960936608666,76.09571721769873,71.90248192284966,80.19151154818093,85.86355719557609,57.848419429176055,15.260202564498613,-15.401042200897749,-43.40263197076493,-64.23025324455762,-63.96535135260592,-58.382471530493575,-58.22134716522918,-53.54281857043506,-43.257998666108186,-32.29756787034333,-24.919700579738162,-23.30613131948912,-18.421398456203942,-7.855020209663053,-1.8050021163637595,-1.2196457146003894,-3.7839172007135105,-8.330125584933722,-6.579710323726598,0.3906073301312105,5.297164180813118,10.200120884856688,13.600064018468027,17.496339381033938,29.24235890120245,37.44996248572275,36.60236414310297,30.537441720903054,-5.756332891174111,-64.35082700933347,-77.57273602365477,-44.44595064223229,-29.624267138083617,-32.450954828934044,-21.156253564646107,-8.53379827981944,-4.02088828709627,-5.854411733711199,-24.946957355902168,-47.607806637394525,-48.87551883910386,-37.09312024271635,-23.056245830788587,-0.2955772407955255,22.60549630597754,28.516744136671356,25.527965613254707,28.85158825817002,22.62650545086932,-4.368651843905251,-18.660600887183662,-13.448004532798427,-27.163218570305347,-43.01339824108866,-30.359627476106077,-26.688303003744174,-34.614437587472295,-24.079253594533743,-26.717627454136213,-46.46530785584051,-67.21462150815893,-55.63300464656581,185.49636366234114,572.2508497072532,453.5294370476382,-232.65621232328084,-549.189193373438,-214.85505635295766,17.7281584283973,-64.83478592407627,-54.10990209734515,28.162274287810995,0.5848728926734239,-14.375789511551272,18.684810035865908,4.985510351494781,-14.17825800552162,1.2581841257610495,6.120939063079516,-5.109096851616306,-16.31328018492686,-28.963757912905272,-32.32064968451018,-24.90974534195945,-20.836330590286842,-17.260692808805526,-5.143450231858525,11.768326862971655,31.380527338816258,59.09994134580034,90.20080814398612,105.21347670013299,96.09526117430134,80.71966462864518,71.27001187376706,57.8145934409749,40.96000927768547,24.140826885131922,-20.139064758743103,-91.95298616589447,-124.36368489084677,-92.29983813678886,-62.217160776812435,-72.80110821983482,-86.55217314139055,-75.94633555095513,-54.79008991211698,-37.546798952458204,-27.65557897864811,-26.016794920660132,-27.146526034581754,-21.94943739705576,-10.636553632095985,0.060477314533692095,7.829129212021108,8.734843484947454,0.3280035005049413,-3.449817588606976,5.999338238351074,12.46318849404592,7.977431544561362,4.370387638349833,1.060731309336468,-11.16775844932154,-23.687155924116148,-22.212897608719683,-12.766051046894173,-13.577272784572344,-22.37430657753118,-20.379183819803664,-13.994660175019202,-21.087363036467234,-27.025818266317565,-17.321809164407274,-6.865127985246103,3.621592053842474,23.296030912972796,34.042150201284855,28.514366084074908,23.263546942224647,11.550709166963273,-11.178991433115707,-20.199216463122955,-19.733552865016925,-30.160324181070248,-34.874290730223386,-33.972882363509534,-41.44161550320655,-30.637906478200854,-13.687604780665486,-25.17523803712022,-36.24390613414327,-59.82024996905206,-26.246183294197024,295.2274882294809,628.1656145357546,287.76379929034874,-424.3107443159925,-514.1194918500078,-101.94157028342374,19.874568944152582,-69.95306688961618,-6.586159894921462,35.71255221110554,-19.05304611432391,0.7876305080414614,42.312623878102706,26.229732009895756,17.76654658299911,9.954946698183237,-12.785029581252026,-5.902029416094245,12.471438191056441,15.252198641012773,5.648523011003242,-41.721783680783574,-96.10059992132287,-82.01733560575887,-29.925030102752267,-5.406532500653819,12.117666143855239,45.23028844094454,71.56590357414643,84.41703148169901,91.64392317330035,91.04503572965758,73.02403519473968,29.628682636665566,-19.94770116739538,-45.62941274329219,-53.73668085603347,-62.50426080790171,-67.30283716604396,-65.60744558837808,-61.29018765535156,-49.68482173837424,-32.768880380296544,-19.96802387988921,-15.117384706332167,-18.728907085958582,-21.667213558388944,-11.584069166485092,1.9841500629602145,3.4479001915874044,-1.8383162337788868,-5.408833766492506,-8.005053116823792,-6.452832000889208,0.7307579612321486,5.0678220805994485,2.091417774809795,-1.8573182621922797,-1.4377828216377662,1.6733162539891797,5.315746037432572,7.6277216025359165,4.4036156768743595,-1.0318168104941137,-0.7972516111754402,-2.1126949783135274,-12.944468412015127,-21.591624716040858,-22.081955351979165,-21.988142149512854,-18.645927332479594,-13.589417676821386,-19.93463270353328,-29.224055959190622,-21.206588805699447,2.858543052149935,29.84305265433105,45.87078924269055,46.3968237471627,45.97416738063644,36.77791069290699,-5.4353143179279595,-43.45598657946264,-35.12526846045789,-22.879395658505494,-30.748403913354633,-25.369905909280263,-19.963196864711854,-22.53857607445879,-2.0897320318621517,6.305573830430262,-36.613022889747285,-104.52866401001349,-109.58266332425842,145.12717601377292,552.1647121303106,461.6442992733829,-213.78784489531327,-554.9702457410239,-241.5212919135048,-3.7087289737600813,-73.9378094948737,-55.31257139655955,25.439264291054087,-8.37149076659869,-19.835876105776862,19.759280795597917,8.716788339677404,-5.390654528867179,4.900949948957475,-7.415812730918544,-18.647571372737584,-10.66327646251361,-11.767042174623766,-18.605860340094743,-21.023771829730613,-22.43230575776507,-15.347420825896515,-1.57738058431715,13.00241893841527,35.75074887467214,58.19656882304767,63.270939992444596,62.54870341946126,70.71505576522085,72.40657418416947,55.609686415024406,35.242170056621426,16.198159669780264,-14.720109252187696,-48.37086473051208,-64.63387667608708,-69.77805376848673,-70.48315264555076,-58.107652447467444,-42.2115688232794,-36.00664977218539,-27.133050622012576,-11.6333220893289,-6.557804301039628,-12.27372937251359,-11.293528014325899,1.112633390700072,10.146520453002582,6.796677373289935,6.07507844555945,11.579601967393822,-0.5044702122529969,-23.859591348837824,-27.326978778772606,-20.903742235429817,-21.499702685545593,-12.822069269134044,-0.4671321399060844,-6.5189918632657005,-14.498948713879667,-6.182792850482858,2.7868063679143553,2.212025265628638,2.5982217270828283,8.618110543529067,10.914442440239156,6.230928198015105,5.434310047699433,10.105557334786763,12.48237277248979,10.397244236567296,-9.873260121934283,-46.38643922187356,-50.13653381591787,-12.574889874064437,7.756222961471238,-0.3708812049300505,-7.587651573115753,-19.995847255647234,-30.314300524134932,-22.611222618604184,-25.28478040390877,-39.345780961894405,-39.33528600319277,-42.56157038726333,-41.40221078755403,-19.667077844198964,-21.429819003247943,-43.331358909927445,-59.752808704885986,-44.42698033991631,192.46579265716133,578.0528623679816,469.3447200632029,-208.9800833435301,-528.2289455741168,-199.76963947010023,23.273908109495903,-73.77425493467817,-71.25056743285536,10.071212638145589,-18.78474397006716,-29.883781805295445,14.879429170044322,10.554338861234221,-8.39479766065019,-2.3043564068199025,-7.185131726729394,-12.339383124666321,-4.2412739901704315,-4.261364275922562,-9.496890523820731,-11.78434453882635,-14.84675021813209,-7.1501389451723405,14.167856168396412,26.354732304020068,22.227937732059964,23.82162007360799,41.337918409161645,57.65031504941126,63.20151583252723,63.75276472279029,53.40766775701011,27.809047448770535,0.7269092437680662,-22.089638886162557,-37.77178243163647,-35.29372574322254,-32.885457273439556,-50.33876262798977,-53.66203682385192,-22.781353849513575,8.388089347433096,21.514651739791073,6.293195422164935,-49.158613626702774,-88.24738770372616,-60.84682480990985,-26.951176111924667,-33.234631805175304,-38.554277511259656,-29.08058250714923,-25.66433743819028,-15.547018603095133,2.5591091782562216,2.624361864844854,-9.799566078641334,-11.792180188966071,-6.384657629612825,-1.9207467234671611,5.466571158785431,8.919009930423732,-2.6723630471638806,-13.73555773909575,-7.582108170477159,0.8352917488338747,0.7875281212351961,-0.18173262614437213,-6.77963421321418,-19.220335312926657,-23.703614898107034,-21.338456255099146,-11.482169322567282,11.398740161021848,24.404608233397354,17.083351620407054,16.655538296335617,19.620845767329854,1.4328281155426428,-18.375102985866455,-23.929055588398988,-33.212294615005916,-36.324183644876605,-23.71630629358205,-24.576929418644998,-31.86578457660584,-26.57428412879724,-33.54192521085588,-36.64601739188091,-34.95123935802693,-47.51061167680426,125.74078147393199,511.69665057985475,489.36498467253773,-163.15797838176755,-565.394108564472,-275.8066182405994,3.0985938237319814,-50.98598174967124,-43.512272763456785,49.30716277133631,28.87786052921301,4.801404712296838,22.211300955682958,-6.472694198317047,-24.73952965267833,-3.8077216671578693,-7.029302748584881,-18.04958380344671,-16.744667585586214,-28.645878887580622,-36.34738595385714,-29.447456828661217,-28.790808986497566,-23.578031122537745,-9.871621234191345,-4.865828989293892,10.162995384926734,49.4367327364826,83.60024171604832,101.21927739780509,118.2788754542571,128.47275683337335,116.2836375366094,90.42814978523057,62.67799416695838,17.47882514220275,-58.29515198658389,-125.41872694342004,-133.55573456409303,-101.38746501154402,-79.8876193275052,-71.23531434526186,-55.45677407238534,-41.634784050104685,-40.81822599392617,-40.15336552601097,-30.485354402833913,-21.559148654189478,-20.05862203956302,-19.861165626622387,-14.936444789173578,-5.3510573513913045,2.214679272251633,-0.19106912841425228,-7.0938611200364825,-7.330256649876439,-1.9230336267786257,4.934574606144908,9.508362408316074,4.484995114191875,-5.0106547275284825,-8.108581760599257,-7.146761560190271,-3.7526492014314243,-2.8186171294395983,-19.10016546962751,-38.62857925638018,-30.657998262716585,-4.122915787412049,15.463249572881558,23.258641163321208,19.477718576579754,14.697507400870084,22.143229066536264,22.7899058192801,0.4290864913384205,-26.969093229224995,-47.33459721222296,-53.50120445122786,-40.30481890990124,-36.55907293851307,-44.946811441678015,-31.172486879767796,-21.997562891753226,-36.230408934363055,-48.33713049119807,-83.63559882691945,-5.677534372410008,376.7474588547157,607.2366470160079,114.94850129036678,-504.76487506510824,-407.0771791480961,-22.263918107101546,-5.06980377086882,-74.22554839356617,19.02391193670021,39.564800356193516,-1.8517127142581904,32.365598026736386,40.68616619818229,11.123089318918524,33.999048993669376,54.610605884407576,43.47713044191133,42.554575556705245,7.388887768453225,-67.48530370049343,-96.10368186371129,-82.17727635066943,-77.4898568851069,-62.03304869483911,-29.956770568733976,-8.782905959497443,14.644389978542144,47.37681235161708,65.92631481185747,73.60065935956295,82.08962016632874,81.14239042993728,64.4300284603985,33.70511490073862,-3.355142873641671,-31.928950720536342,-47.2097416396081,-47.43970394535252,-32.73968788821461,-20.55507507247703,-15.157910441071227,-5.891546030881802,-10.562756812046786,-35.24257184526695,-42.32447387007629,-27.460853144362204,-24.833524896916224,-30.36198025600207,-23.888452434939055,-12.633973555917393,-0.9985854691596181,6.668397519002831,-6.900712570877868,-28.244041361389513,-25.168976814445852,-8.976896392506333,-6.7373917461545645,-9.189149744537943,-3.6768621618110906,-1.2465810581522305,-6.037106142470044,-8.366506944849476,-5.882893548135513,-2.8381808487142663,-3.198844148686522,-11.583932979829601,-26.030553906268672,-34.17261063440472,-27.197870926667548,-11.132636332353414,3.3890800063991424,14.877845218232434,25.50395224205057,32.242297360649765,30.803196251013205,18.1461167595321,-1.649333358026552,-13.66490819472279,-16.885936701550357,-22.07813582301241,-18.163777863281293,-8.152189815167006,-17.83226951375968,-23.343001963491133,-10.755996063334596,-19.757644855589135,-24.898777872598494,-27.269244847057582,-63.56042814714998,97.75098559900216,508.8589737778418,495.3354898601155,-183.4702113751755,-589.723664446918,-282.05399280143814,-9.584136060199043,-79.25818068191165,-65.35419052209669,37.37516517691461,8.980918652633342,-22.118571723585617,16.664506425880518,21.650353077316268,13.875865637979997,29.163893692398656,22.966488045313717,5.9637092852934055,5.845720249432942,0.8264225117934885,-16.500331030853694,-31.95811751162549,-42.185658461620946,-43.34826410250439,-30.889574954509307,-7.916865924637573,19.98394414936905,41.003658982830416,45.224867845456785,45.56911133100985,57.25045857235557,68.28194405000322,63.421943879349335,43.23883630148104,9.206837829657404,-27.65516870110798,-46.420623359633616,-46.881048845080656,-40.78307571717503,-31.587735433633014,-27.607326637022656,-29.37798930973678,-20.121770240139405,-3.2928885410032755,1.717213625038223,-3.5548623550932064,-13.041087094806912,-26.800250910697965,-30.785119303395398,-16.166091094528163,-0.015922454341751546,0.6063188631280454,-10.56515501481007,-17.485783746554723,-12.366718615454255,-3.9766044188744836,1.6587642891583503,5.159151400658541,-1.8259965163489795,-18.64972442652893,-24.719734607032617,-14.621835186719244,-6.8918796790718915,-11.249283170996646,-17.99137933753324,-17.508713921038396,-13.956567723261031,-12.77743042943772,-11.045523103221882,-10.254720176619411,-6.004242277489125,17.965306334609785,50.05364793352014,66.62740881449349,74.75414319951761,57.48407681496053,-16.455971483380672,-82.74106651654031,-68.99075582456324,-39.22628890893793,-51.62203473680519,-51.65768139770263,-32.23117160013123,-36.77324040387424,-34.62635267020383,-26.64436863258149,-55.54260638847883,-72.55056036298625,-74.13378209599821,-47.416854571903386,233.43511538361983,617.9480969004135,407.1128984325694,-314.44224994921177,-552.4715554598337,-187.93822105668528,-0.34123149990018575,-75.93871465540681,-30.502121867200195,34.26432511046805,-12.98302347784869,-14.529325077731134,25.93069419977669,15.10076261888332,6.8089720555871684,15.671254085976326,-0.9594428110088113,-16.88610543043946,-12.864009445970987,-10.386108446603888,-14.359235623276135,-20.436055903329386,-23.777533121352292,-17.388847610982403,-3.3454942002985515,14.686991843665027,30.614156847729,38.91650256172031,51.663267223957135,73.8458673628549,86.23800702881519,82.9728814279902,72.25380626796643,44.072461483826864,-3.366323058993517,-40.50936689488699,-52.73618331972031,-58.17703436222162,-63.42048108583407,-58.637212963368505,-48.19635222000256,-38.606517835299826,-24.82529961319444,-10.21143159798979,-2.473732946524427,1.337988362497212,4.308541282189184,10.092532557595606,20.2881092588195,20.967981826893872,10.877813971366024,8.457009240003506,8.758295917773177,8.00756157591928,24.414143472956184,26.681484894948007,-26.61796679950322,-76.39015350469907,-61.66611987447888,-29.486679455000655,-21.27000870625927,-17.972916065882686,-20.452154648909335,-29.704921208173374,-23.247435892346303,-15.396931588022635,-27.326777261255483,-35.880281684479456,-30.96458178893927,-32.9177067486973,-39.43603827728334,-32.33428827462494,-10.904332238436062,11.861976125615062,24.32441678703089,28.39243451511041,31.95970281899661,28.249997411434542,9.416957617247279,-9.837600582822748,-17.488374205118188,-27.229940221067075,-39.13396830946821,-35.9263627225729,-35.32253430928151,-47.2846450475314,-40.38750192675555,-30.05498706389678,-40.56669207147395,-48.71009710504056,-66.12232281146433,23.635337621516868,394.3087465948127,625.7862421381001,149.4913176099415,-486.87618109645575,-423.26200881740533,-41.476721025142126,-13.850795184599658,-87.01680277515311,6.2185597984520555,32.01050088724113,-23.78247774547262,-6.035501419142709,13.748827446789127,-5.1242709724954985,1.9157996971070412,9.147104840098743,-7.785223472903342,-14.313997403650609,-11.60313836076032,-16.043743462882503,-23.14809531204007,-27.282262285419968,-24.057380828528075,-14.202615605582002,2.287560830882464,29.070758807876164,54.936346311202925,69.11216391550933,80.64220301630976,98.05242478846934,115.5875364880963,121.18846892029158,113.18070740233283,90.25999758748915,22.932172972045255,-83.91006245443708,-143.19388368469868,-123.34858471460399,-104.32576929506806,-112.64597011889146,-99.27586895250623,-68.46731248852207,-47.08917992541701,-25.246022058505112,-8.37759603255543,-7.865802860093847,-3.9636273338961416,10.39182854132713,17.89555351263043,13.705848221773536,3.299311830391815,-9.99954153652002,-21.47702903353929,-25.10868849197568,-17.753743190716953,-8.354360592437668,-10.132996578960153,-16.856372665120915,-15.512806469135413,-11.259717628711734,-9.450237475525995,-3.5962222232966283,1.5909348106038124,-5.571670475850688,-17.48136234525426,-21.742826072293347,-23.53852655307845,-26.16764830026468,-21.346410313354298,-10.994150810843056,-1.3427701820187803,12.409083813102015,24.974041571730638,23.139675977773926,15.771338606486518,9.743088281043686,-7.822528048952194,-24.701958250191744,-20.890885364562383,-18.565090488882177,-29.313964332189673,-35.21449223874495,-42.669457038728325,-45.79323277089131,-28.40150522161235,-22.736515785766187,-36.2516359006462,-61.52775014772031,-82.01249904825147,109.68674953672567,522.4451658194392,516.5955185573139,-143.92067812819062,-560.3460064305912,-262.3223645927225,26.637734243870483,-38.41861069378606,-36.78374827824894,59.33016351255102,30.05085632449398,5.201907281490531,35.928517983733826,-1.6551084595072503,-39.90439620128221,-17.615339702144535,-19.80398582294434,-38.058060321957605,-21.836460326358953,-8.794191580534802,-13.81391499326519,-13.37472175941778,-9.579836735364047,-0.9412261028337578,19.49137030338256,49.026982585988165,76.24436714286777,67.85913988482834,26.327853259521888,15.403662764342975,45.94755397620341,60.90149152044745,45.90541591775633,21.016864552955543,-10.583263285145975,-37.38444931391035,-48.28040665358388,-53.99980611959821,-59.54252076664635,-60.092593173052556,-54.76147072974278,-43.515110541860096,-28.680380404521735,-12.742964258191673,-3.116584996093337,-10.759514759050326,-19.553012374447412,-8.160941114315374,5.097730732237535,7.648146274364823,14.139508292287635,14.20185107518732,-1.2130796436096567,-7.078854390697611,-3.617796617317829,-12.284984937582067,-20.903106049385542,-17.46329318948468,-15.161536999079267,-14.293854108019342,-6.095085686215519,1.0375109047958055,-5.008881573494289,-18.870661844912554,-22.354144652336615,-12.66248477650835,-6.743706859929489,-9.007055179515817,-13.00384198419431,-21.98170061955669,-29.7916375040449,-20.320295650186104,2.092241359823606,21.509383708531416,33.68529817997735,41.19562915358179,42.66016907645138,28.596589038300344,-3.718312995113985,-30.712296936770443,-33.893254765850365,-36.27846778343202,-51.41877382303221,-47.38053060427783,-27.817163753108723,-35.333830859125584,-46.48926115133027,-35.22758832878105,-39.79712471815759,-44.361996211932905,-39.24137815317401,-31.839022265123972,184.5319025868811,585.7493374601003,512.1839842213658,-163.84385875833942,-506.4951310022798,-207.3381500354376,-24.182008029613314,-137.37609587384208,-103.2455220410074,6.953856449071132,-21.630716653269694,-30.905267962332516,15.404545998405087,0.14506282399853276,-15.568338801589702,15.380169760882936,21.926139204226224,-1.9630633697769397,-18.450856295978703,-24.569515756342547,-21.498189646756106,-14.423375169735234,-12.19421570391981,-10.209921558683988,-6.6620076839666,-3.8163662491850543,6.805813792191106,29.098800644759528,48.90487584449748,57.506859106674405,64.68170186452745,70.99516740901439,63.80707181857585,45.468009781574395,21.98970125954638,-12.164479404336824,-46.257075582348655,-57.605431521727645,-50.495715210878785,-45.7835052947032,-44.59011604402345,-33.54434132110802,-14.767176424117856,-3.3708828994560847,3.7665457708949592,18.666826796475405,28.491846469537805,20.510628973461817,11.338226634615552,8.886866739796234,-5.097906770223105,-33.004569538269,-50.587314967360534,-45.77280544482294,-35.71776572415432,-34.04128741160171,-29.284240799278866,-18.02501120299922,-15.052371400853307,-16.159875891752726,-10.774555420770142,-9.067345911468301,-9.11735942253154,0.24572381388561482,3.667989512792378,-5.6289065050324005,-7.133006216299698,0.7763985829557054,2.695023818679058,-4.034697955974622,-13.671053140505919,-14.729664249285191,-0.2025467920435302,24.664937719183868,53.62485283443821,59.463548550320084,15.051821097416981,-32.62134268986249,-30.269564885854233,-20.60003458009944,-39.332033070936966,-47.39796774951511,-43.05055195688242,-52.26354627230069,-48.740610547904225,-33.2098782205382,-38.659369360165336,-41.05558945353553,-34.399181675177466,-43.168359889886716,-41.43250660480261,-49.29126995619676,-21.230981879360655,264.83138587989816,595.2031268802214,319.7555850192531,-357.4644336342479,-501.5509648686873,-133.72760516156848,4.981120169825928,-77.26538039948585,-22.926105250032364,37.32581955115187,-3.3574915788423603,0.7743273553723142,28.82267285739558,10.616164277908641,8.51931155114804,24.73802521835727,15.96438119899047,5.3520500046172765,5.910667713775589,3.2159525313568564,-2.9205982438165172,-13.821038024943704,-26.85523661184851,-36.34456802483609,-43.83062048458539,-35.56876121516652,-1.919657048816104,32.865736993314805,50.179565788786,58.22862725878395,62.7536440668233,62.34790632462152,56.76672895409343,41.94087842897653,14.021188764814209,-20.598798168709614,-45.502858243941795,-49.826311766444306,-40.97104815834559,-31.741468749172988,-27.060632205646716,-25.817129526091257,-21.533545259013895,-11.378382882198137,-1.1359805797361755,6.1494480783607575,6.224404299726757,-2.154805925824629,-1.7295789957569667,13.076428067446766,27.435684835901185,40.807862529238626,33.801219054143196,-28.16494561552814,-93.17774605670657,-82.64319482203753,-39.88267656980166,-37.404330528120354,-47.56892110499409,-35.56779569237625,-22.794503090764266,-15.889091846611155,-3.2458948770946634,2.818891910455104,-8.226301793949382,-18.932861773715892,-13.730842426701617,-3.65071256884886,-2.950817068208142,-9.812417848694533,-21.384123525355683,-32.29911824372269,-27.118480468978635,-3.9456820612841774,21.147019713965932,34.146478648299436,28.703696835889826,16.53439365798348,15.500273747249974,13.906861521575745,0.8859939418619929,-4.401367161846741,-6.766015180178817,-24.56497982160659,-34.880013085969594,-32.881006813717676,-39.39036119334249,-31.195442323823297,-18.54234265107527,-46.68927748023433,-73.77685342837906,-81.4527237370663,-43.56884782493644,234.16596287741845,582.2140392683932,350.0503076659422,-338.68465220855654,-530.995462009261,-158.17629718990494,14.959547381990037,-67.33229424982409,-24.611529866603636,37.861523666505505,-0.46767357648647945,8.408060861691661,40.69403572094745,11.904197590439859,-2.811123260706996,11.412597861849992,5.054430577686732,-0.86924733670749,-3.0150423151516144,-20.995820986823084,-30.497629761773684,-26.384866240282484,-28.072704853771114,-26.85590858617901,-20.420157648226205,-16.17065752099247,2.825468830469328,39.267517733287,69.78626301047545,89.05189382746775,101.55468172409091,103.25366050063451,93.88588117949864,73.7072565486006,48.49092434915355,22.157718387120994,-29.504121698099567,-100.55412814664308,-121.4306737465258,-81.5455829753399,-55.2838413071274,-59.90083193468917,-57.66709866945046,-53.837689660592424,-53.60639582326269,-34.300624977853516,-10.877591256886152,-10.460026180464517,-17.526529498122464,-14.754645162144655,-7.805145770676667,-0.31079742191171533,6.08086964534575,9.515404517814734,9.300816443066573,-5.195614690648849,-33.04904486861156,-41.80076524223088,-14.328091299938913,17.983418355054887,21.715505161698577,0.8569416433821999,-22.235399943451615,-31.74055672884215,-27.173636040672598,-22.219927014029366,-25.491925756595556,-29.807002424037943,-26.31309774037125,-10.795688651707914,12.525139405486149,21.867357521317718,7.426111435334844,-0.04534285103292479,19.09334558677827,30.524385630531874,9.825945570321208,-13.518423938418762,-22.437430993113367,-34.438453895155654,-41.59541837735991,-31.368850203037965,-22.438507707165577,-16.386797169491963,-15.072740837567256,-31.037576587572502,-35.13055018355695,-52.37409371121227,-74.52859085529063,152.23292463717382,554.6898264059238,427.0758374371861,-271.283751034573,-554.0426616993999,-193.55621130296282,18.79383155276766,-66.4082098144895,-30.547622077441936,49.21396944255842,11.364293858491756,7.988481279280506,44.656874893833525,33.00631186087087,31.67234744445357,51.03245597732656,48.28494534053749,27.211548014235667,-27.216540156498393,-82.91635526504653,-73.21798021439481,-47.310432310472294,-59.16686022632959,-56.979245348455606,-25.697758375089588,-4.386263691188689,14.707449202974113,44.4470674271628,69.76736472405122,86.75282267643391,90.98248447507929,76.21229633552149,56.32432491989128,39.03642535295572,14.438316018211454,-16.569800135296497,-37.691736774916194,-38.31758222927511,-33.77674201585984,-46.679289547974705,-59.88746657205657,-46.038532362581705,-27.240101872789417,-25.257018482262495,-19.50762448141469,-12.645271883147956,-28.753168533587495,-45.09153087095864,-33.40071560500616,-13.114645472785789,-4.200684782388887,-4.461353040287857,-9.744628051925169,-8.02579545086138,3.8956913130075144,6.75181777885528,-0.27726402098945613,-0.7085803873070518,-2.0781120430260867,-9.834292833823238,-3.704084750966012,14.36934483109701,13.168106985128414,-11.160487884341904,-29.19570482597948,-26.735823133896094,-20.30252135512192,-25.66849199202678,-34.47429070136767,-30.662265894482623,-13.618540899837157,6.919923807417365,23.603673785925146,33.85403382251259,38.505602907904056,31.972425263460977,7.225622288509628,-17.495112684312296,-22.444545788418484,-25.373549938034692,-33.712109984918804,-30.497497402625406,-34.326688942439525,-48.79331949069961,-36.65175369966359,-23.34429253956126,-38.669422896418595,-57.56686660436498,-82.51506181744116,27.254002652419857,421.57679746067424,624.6396159413583,118.26604770534037,-475.7257296437765,-368.484043992788,-6.813563365826174,7.481926309335333,-39.14516521564246,61.80102982388189,52.82767444652917,-54.439138558334506,-63.258308816813994,-19.847378152800346,-8.896989907976753,-12.604942326309818,-24.95412314864116,-37.380061284195094,-34.46601290270067,-26.05426015669751,-17.181972739151824,-16.57531850030953,-34.60494757373863,-45.51318795384008,-29.744674462281615,-7.530470598451505,9.703947118814192,26.496683471409632,40.00380508272633,55.03910655388797,75.32499944992375,87.01206571346705,81.98836391541411,59.67081657985244,20.85925164599351,-12.27186930080975,-21.500184096203398,-26.392793420497195,-43.42663572746794,-58.04498083633341,-56.29514995468355,-38.6138583841356,-15.939921122665215,-6.260446886979626,-11.442156619809893,-16.407898744012115,-18.560819394263667,-22.760673682715392,-21.11743511966585,-10.90258563895383,-7.367231976107401,-16.019786297286338,-21.060838322164358,-14.6072814533334,-6.473416542760177,-2.7740519806810866,-4.374579685076192,-12.171783930459164,-16.451954389027104,-10.233353687841973,-5.262748714445472,-6.170086943080831,-4.702811447750351,-7.020077407456325,-18.613183892946182,-24.985438989502164,-20.49828578968858,-13.5014164222341,-2.2329824694457994,13.192124619945478,20.39482902049901,19.47547668493123,26.039569303813252,37.68213369453006,28.6570819101413,0.7413335197758437,-8.527499136896864,2.469885199888674,9.334069601769947,21.65100520731813,19.568094711667452,-36.44624593605892,-90.9395474139345,-96.24748317823605,-94.8258203321734,-94.83099925623682,-105.62648077851713,-73.37650492651036,222.61846180692947,582.3455786293375,339.1792927177156,-336.8929744842318,-498.03972087953764,-135.40543935193665,10.672581340590604,-64.40911257046638,-12.043411812805036,39.5936314967681,-5.868755374692306,-0.34939668876409424,31.73363870227143,12.9646131469613,-1.8984838375078832,1.3514553416358814,-6.3115558174441375,-14.927477320247274,-23.47684780973227,-31.02166504792305,-22.546231043131716,-10.473782914340251,-12.464526991117788,-16.5202615894512,-7.774255479518086,8.966874462544434,25.196438879488788,42.290174566324346,58.403754806467596,65.75675027402367,68.6755598222649,72.70823563321646,66.33026316002311,41.36215123715668,6.288781188078,-27.535103096922057,-49.8735953574874,-54.64215497234707,-48.37279104394803,-42.209084022447485,-39.5813500930779,-36.48563995203202,-28.27458479434882,-15.599116120293345,-2.071009676458603,8.962938773113764,10.369392913631831,-0.8893007740298415,-10.955915913554435,-8.314367291495898,-6.302099950573091,-15.908649671783671,-21.20123385367665,-13.747082539742973,-7.712753456643004,-3.552983361294471,6.443791307430953,14.740354011075116,22.036967403234136,27.239584634836433,11.274437959051125,-9.981015227617341,-11.735344241193676,-32.916497526372,-82.3685476764573,-84.83438424329455,-31.197663108361226,1.8213856346794977,-1.2158755887044386,-2.775629634203245,-1.8667057761563939,-10.601419983114639,-18.0038435788583,-16.971683908533183,-20.811646201732735,-28.310305242088805,-21.864796998902516,-19.034310624432493,-34.34592343972696,-39.92578296502919,-39.999907510951616,-45.27714548894813,-53.49297127330139,-93.77853257933796,-3.6173716503408713,392.5518603414437,589.0602333022613,57.06825639247252,-527.0386072917552,-377.38182125830167,-9.593141187066863,-18.041260922433956,-73.48421776040914,21.236337055983178,27.6380788817468,-14.636350276717309,18.69997962198041,28.088559712295133,-0.4363151893252084,0.8137665523163777,-0.2475574117459587,-14.278901589816984,-11.372084627499643,-10.151997304496456,-20.20921676979709,-22.093964446576145,-19.059478140119612,-18.503345342159832,-10.551710964447818,6.038666180787104,21.262413021791993,37.21143828082624,60.13693099777163,79.68566122148495,87.42208088550055,90.44822283988525,86.92605467435138,65.98217817279985,29.786150831721045,-10.397313687223075,-42.586366749030944,-59.593217191048645,-64.91018323420641,-58.11080928422139,-36.08378011492216,-17.84259365372746,-24.689845022581274,-40.45007995030827,-33.98231884537618,-9.837446181360246,5.257919374941783,15.77523500069326,31.70316493287131,15.66484810854454,-40.16469383762094,-61.54887821908326,-27.206507790754582,-6.869767254088991,-12.84556407068543,-5.143322455887667,2.1955401819488998,-6.65880371046396,-12.132181628539485,-20.14298855240984,-37.659310870038276,-43.62758114153172,-38.67088878430738,-35.53760489992141,-26.200744512800263,-9.741146487551326,4.804369608208164,17.22082196909147,24.82167044665135,25.08526649742496,19.645911340697516,3.9538924489298672,-15.493802713176173,-24.287841436106895,-29.787955277668363,-33.505113202677705,-25.533320000153946,-27.64595668596851,-41.07318928749568,-32.71744709437603,-28.14669110926106,-43.003516333854265,-51.45094746647521,-86.50817986554013,-12.059791806874259,378.2472492622136,624.7778989205513,137.36260414852438,-484.5148095756666,-393.45816457011614,-30.60277341896386,-28.814100404712,-86.31119336166415,19.06852133133471,34.38934202148701,-17.637479491794217,11.120821913956146,26.127705140919176,1.8185210785787493,12.59850276931759,22.7444657653849,4.31915624108185,-8.213089280235,-19.786134856155215,-45.026951413194354,-58.817012809623876,-37.28409970484481,-5.49321186879619,-4.230856653873636,-11.624371591533423,15.789997329061743,57.34158480590675,77.4402275313968,78.74512693703096,74.83632397362491,79.6073343505302,91.88431493666735,93.55402077685622,82.31948077069242,44.457855408180315,-37.83789586593479,-108.03144523830548,-107.32004938669141,-80.61737117072808,-75.08470603024354,-67.51734887502889,-51.17702336787867,-43.62436085141096,-35.06364007598148,-21.035418857120785,-16.540047710735287,-18.442677120499326,-14.868322254777464,-10.410575072898212,-9.709103016145754,-6.953790645697222,-3.885282823022834,-6.096118112855169,-4.454846960339106,4.762687668637712,7.141321889856974,2.5340363178892886,0.4069237194302975,-7.694725402356363,-20.144777902828555,-19.33581968923926,-9.207883710743552,1.2265547711716982,15.737793726914528,25.362547952297124,25.352993576908844,30.682727371275533,34.65257813085725,14.1157298875749,-19.02006045232295,-33.99675933763167,-36.15701301985565,-46.0695389312304,-46.75844713136788,-31.407265900362404,-36.714946490851986,-52.88773405595481,-43.90843093944968,-35.53251481972217,-43.60646037395223,-76.52372146946934,-97.56220872317155,137.2955271323778,577.6663494006016,513.694516827344,-188.9526754001375,-540.5049629331356,-195.5420492864539,35.185665588824556,-87.035575230998,-80.51913998101149,33.103560954735244,9.541094979492726,-21.464685305211667,6.755008307565198,-3.4031308235887145,-13.827387414691145,9.39299915535654,14.029003997098838,5.349044719262494,0.09415732710643354,-17.10512300345856,-32.61361479721892,-30.32887876629031,-19.78300027582054,-8.885543987489825,0.8613182892739886,16.217493668267053,48.46007752065887,87.88395921030767,100.1917365918603,65.48634010801491,20.267296464107567,15.453616524702557,30.279741695160205,13.066248950794721,-22.796624215282954,-42.21647596985029,-54.97160293458073,-68.64500387620743,-64.8294881944752,-46.03640837886813,-33.43620527682068,-29.098470807220895,-22.8702030817633,-13.418757998754597,-3.966028343396392,3.167383051593962,5.845743044484415,7.102963148242363,10.28194604173506,10.174327767718339,3.547819497793064,-5.887353153731642,-16.337258242009355,-23.613077597447315,-23.663046650455907,-21.902572289277757,-18.96472227366856,-12.250876305364402,-13.42198734766394,-25.30335584852139,-30.663053545001794,-25.160532082351967,-13.991258417899704,7.968388468037715,33.4721596050663,44.117413926260326,43.71139554692134,41.949074629620355,30.810671065116054,15.200916841759112,11.488831435992397,5.130119732577624,-18.529911110835062,-41.484258025926316,-58.37535807552883,-67.2319611808316,-54.356242827138935,-45.6801689756978,-51.907830863355926,-60.78129320141161,-97.87757413082441,-7.741495605285351,378.9805177937814,572.2489484637822,54.0410943655765,-520.519026680549,-375.67286392901514,-12.067551947746644,-22.276173805283094,-80.05356629754127,16.866218834414603,25.08147205526072,-20.353281469253957,10.459476439620527,21.536570051324105,-0.13419204196303447,9.104142665151599,11.887086493272854,-0.4561667858382563,1.0047524607607023,1.2126910837085756,-0.10949479418032237,6.819956391380984,13.190167185722686,13.073930825941805,-13.380195503213049,-54.858900183037385,-46.045059031351194,8.286566615070562,39.18808130809984,48.67597263776224,65.48172706373998,71.17385532650329,62.81453613269073,50.90156728420949,17.89511700905969,-30.489670006762868,-59.06835350071608,-62.18177312011987,-55.69564084362232,-47.009058119191366,-41.286776980382726,-39.90428944437996,-36.21839700364765,-26.629565220434653,-15.799102785927603,-9.476377360528016,-7.008620662960176,-6.162877863055165,-7.46346883821573,-5.174235642234311,5.434505796020533,12.638091737863178,8.162950610195171,4.093639958161656,10.251573050885941,22.673286112357395,31.174277804387472,19.212490131202014,-14.559863738506827,-39.183132698421296,-36.37634825734545,-28.630790299814507,-30.945999317702967,-29.006896056894266,-15.958153132777841,-0.19571907688554546,12.16158149396282,17.410696763832206,17.485398974978693,15.6168528546699,2.8355148876901577,-16.88730120560805,-19.0051001513706,-11.958795315246698,-20.132866842198403,-23.80541661650252,-17.502853916384147,-27.217366754716068,-27.477769979218202,-9.0481533797924,-17.009244433943998,-35.07107701179134,-63.515782502486445,-82.15597499504052,144.2727868291913,530.9530754668677,401.7153825125546,-265.3581868109434,-526.1289810252975,-172.21047073748502,41.121751195782764,-35.352046996164475,2.821077137353562,88.76217605074217,27.42458288100372,-41.725472683442035,-35.47869104747103,-24.864067692146488,-22.849261528751878,-30.090533243720813,-49.36265799418039,-49.909369511392526,-37.92703602814256,-34.69287386637244,-26.684402399520387,-18.00538998742475,-24.836286652289754,-28.175120107438193,-10.976274034968334,14.248237332577606,34.955871223157374,47.03271966746891,52.755125156992094,62.893847859273876,76.71614234881888,81.31563898520676,72.8252481287963,48.27147487176695,7.750010434029836,-24.460562244083913,-29.018873103513165,-22.45973512231795,-27.857889188436932,-49.11409074706696,-71.01710899228078,-67.73334065400158,-38.64148703641946,-15.16220910320143,-9.527230276874874,-7.818634368285078,-10.17655252491528,-20.447650315204505,-22.85747781685367,-10.810964109659182,-2.620684619368845,-6.833385610345051,-9.223797505842219,-4.0820164363778595,-0.3546063669991142,3.074450659033303,8.660228577374008,5.498825404980247,-3.305417767266163,-0.053605230184019526,8.501961518411969,3.758665103769399,-8.9114797681088,-17.14687053754584,-22.72685659447193,-29.079600672979833,-30.791425162146087,-20.075694064336332,-1.2833098093654671,12.77252165345355,20.340647714071636,24.578020002162525,26.12120584176813,27.983596004475054,18.442332704357476,-9.686123734522058,-25.42878736276552,-17.183540863939296,-13.265201726731238,-17.121743279517077,-24.772433821663203,-36.811656977964546,-31.12124433742031,-24.420091352336946,-34.748992214053594,-36.98302334449227,-69.96922023798965,-33.115154763806416,321.47451078881824,635.2887605643193,242.84817451301467,-424.66004589110656,-457.5558771636756,-125.32965381211712,-81.12127842222706,-120.10012757637725,-14.448397210381607,6.723276026970311,-39.83089494208934,-2.2390309045828243,18.37690508526921,-10.714680611983987,2.244390453949551,23.700942598403593,5.524797368194271,-19.345617995406542,-33.39350046114621,-35.17522111110493,-25.29508900801143,-20.193204169239916,-22.059996040946693,-23.19319802320442,-21.26000109602346,-5.442101486704022,25.520099600933122,52.95104602726208,68.04997763305963,76.48336768603721,81.48741918276698,80.39820897882787,64.86514601495449,31.63483239322656,-6.577876580260215,-36.4262335256672,-53.50402011467338,-54.75448322106813,-49.16896820448139,-53.55791844250467,-57.56847089558343,-40.84091739977669,-18.384013108666945,-10.862332268589267,-9.054815257751027,-6.971164205103637,-10.490626669929934,-12.31241608454901,-7.676469768154593,-1.7251682377751658,8.675825427064805,19.45709544727518,17.344165028093478,9.96123582782059,10.152110587668469,10.115539462315212,4.036654989036684,-2.7068815300153597,-10.611862074103257,-19.451230152993833,-20.384955946452468,-11.887279147939683,-4.6970761953904585,-1.7590583983153731,3.5203149359958346,4.984318860631575,1.1414957851096608,13.51400858121329,30.70702624461964,9.027650260250287,-31.64700116689588,-34.138246064400064,-8.996482353921138,1.2114732065386171,-6.911519103242453,-16.779454335671964,-20.362697466677517,-23.261549163090248,-22.92730916815372,-8.061255497003607,-2.5162084903399133,-18.285183778691234,-26.277867389248684,-44.88703758657257,-75.9024241604288,-75.83694599636007,-87.71623399408941,-10.711237655446666,360.67731677467947,598.5507627737186,114.31154609809118,-515.2851299037076,-430.1598946635403,-42.64067886897953,-11.336671355966693,-75.1459530162414,12.69336397409603,29.68802696860977,-23.229545527269686,-1.6464886248248747,20.882771129835906,2.0529865810405354,0.44397409512209585,2.8006948449058697,-6.862486996301104,-6.165469969503079,-6.555458964297368,-19.575310390202446,-25.708644998588845,-19.569039033151302,-15.482726562226528,-13.434319039089097,-2.4718518657215895,13.53362099782134,27.4794588878961,46.55495063424986,71.81228615966846,91.34183494462964,97.12896773421272,83.31328488280714,48.81629834305699,8.461299867804644,-21.13950432804052,-39.29845217973857,-53.846756451202474,-63.328830736024884,-60.129162705114666,-50.12807973509753,-42.490983919864625,-31.601200188768587,-16.746190516883964,-6.089275252359638,2.7731878361522693,11.856984375020415,18.490601082142817,24.521911926814834,27.84670701681756,32.33838310356644,37.77795537558461,12.610425853259557,-39.38961037186888,-52.90840975003854,-23.21799476545349,-12.351091292398333,-23.6805552808116,-21.535757817275485,-8.409094346783736,-3.059814805424878,-17.130141028823502,-39.125366434903185,-35.77586256990808,-17.908736209218613,-23.193885729358154,-32.51158603473914,-20.216520055419274,-13.690761868119107,-24.744636212391356,-28.30106119774991,-16.366842688569434,4.80552253812777,30.45973179224834,45.235038339141916,40.38417530981322,30.96575444187465,27.009405926767684,16.059634675377964,-6.866616135537297,-30.756330782992723,-50.85623220310113,-57.25115360853843,-44.64410854529798,-40.010607264480214,-45.342261356371125,-36.51048032191396,-35.75137201534028,-46.21219748139008,-51.62184405231134,-58.43390655170302,94.62228144501995,469.9147529641413,520.8246663590676,-70.60512446524682,-531.7694984658207,-305.1384309915301,-3.376363994766205,-51.28702308761999,-79.42873740584025,18.141697929286167,16.355653192812888,-16.06754360713049,17.07478162003468,19.983290390277674,-5.944676544747017,-1.7937951923769448,0.8529545464475665,-6.224891065401021,-1.1074286903633368,-7.214386835542218,-30.483364086456938,-37.16874004489968,-21.873394970428052,-4.744215507399616,7.1705945292358555,13.527467266530682,22.47761120041144,49.44957225576611,83.50661923027077,106.72363275381772,124.45939164734125,115.52388223576122,51.52618140959804,-13.851121510553119,-21.231026650725916,-16.22694288794139,-52.40634535743405,-95.08739003829892,-99.5346468468697,-78.21493353347257,-59.09820077674976,-41.912211580038026,-20.709131085411833,-12.755534020573172,-22.000622620514783,-19.953146276547205,-3.6896998917371313,-0.9150959872176436,-10.695052124914902,-13.677610310282187,-10.999791713363187,-9.890657852012264,-7.893831521178544,-1.8751068192182991,1.101075951208049,-8.307647524039353,-16.583308813946033,-7.1999573740131915,2.0395874816746655,-1.8947890395975406,0.04147108571899416,7.587958650883623,3.8499604917205597,1.6631966784559395,11.526098080478906,15.811407515291979,11.879026798062611,11.919206337369012,7.396694764157098,-10.117968695666853,-26.907865149092547,-34.84212156395765,-40.55528649705381,-43.021538021352384,-33.35682451812976,-8.957645529422786,18.806889559325104,27.522485565323276,15.5531149097663,8.670572662403371,9.356657541004296,-0.8932754106558551,-15.4624818055828,-25.226983794478382,-34.61227292958156,-40.00357390467535,-42.867583827071705,-38.17423055913148,-23.199671229395303,-32.50794510201634,-52.11615907838023,-45.08908423659611,-44.81998429471241,74.99731769247484,431.7093437037048,534.213332372364,-19.51837998896488,-528.7197965523121,-343.9040456809873,-3.9270132717010853,-3.560978578265587,-36.45127166713926,29.298621080420908,7.775160210125918,-25.968275685609946,11.334231439656067,19.20247026120025,3.1132417264189796,17.184876840842335,25.580790995770872,18.902817007499337,24.408854871938313,34.80743678364615,14.991034839148593,-49.70370617537387,-100.7058899327373,-84.8161641089952,-50.466290166387964,-37.01380913730694,-10.270644842068407,26.789166309142345,42.54791407277499,55.91995698879124,79.18338650178697,87.44465753691708,80.92297774109672,71.74327707330502,43.68402780842019,-3.939618202162422,-37.643196615693775,-45.13629361115492,-44.584387866745026,-46.71658848118198,-52.79072735193712,-56.910970945777734,-45.45129642462487,-28.768704189309375,-29.756585050543798,-33.70982612279067,-19.76625718739124,-6.072368305614404,-6.943918118151334,-8.494438574194408,-3.3204219602003526,3.011753608336086,4.634004515509094,1.9503540592319428,7.747486485675799,22.2505319518817,21.778072715647575,3.5379447063687675,-8.561434212375653,-9.886857135019044,-11.79310557765555,-15.252705471610492,-19.27251066896681,-22.174661871672747,-16.906483417927525,-7.666427603888039,-7.71240323067504,-15.43733673126674,-17.93570234093504,-13.81052259712185,-10.567830214896432,-5.443971690017214,5.071489192005913,8.36725471824355,-0.3874137990619495,-5.140798695495032,0.07014900733815388,4.230461291968647,-1.5452907802738967,-15.73717371811114,-25.57505515634388,-29.453849068670984,-33.19051062700169,-22.334440215018468,-10.02502613548075,-23.921599647838544,-22.1466894052174,5.530410968113039,2.806939553352663,-10.157857511151306,-36.707663023828175,-58.720290589481905,168.37884455277248,516.9141443539909,298.98764498760386,-380.9394175903471,-548.9952674847243,-161.30379718481618,6.080717025845516,-65.61309409115935,-7.438624490164905,44.85124959020138,-5.764530544096864,6.22478506263883,41.83609683682167,9.882664081384942,-10.312726274670224,2.798336757470352,-4.089088639330418,-18.692127378517178,-18.415592005439592,-13.873271107010863,-13.40102392807659,-18.188911424607145,-24.138259577619905,-22.483028270110175,-6.732695551869909,18.19768363673049,35.24697340987458,42.582442910830906,55.62037638572319,71.96152279255827,79.02533676547884,76.711306681775,62.93767876388861,35.49592550537358,3.898908616702375,-25.347921163465116,-46.690542653683266,-50.175614224011625,-44.697694208156975,-47.01373446508869,-47.56649459327685,-31.038281032200764,-4.9012530199113336,14.073261150326914,13.849476004300296,0.3792745058136173,-2.940877657854955,1.5070962712945715,-11.014432633623148,-28.583587064873818,-27.564371437510374,-25.439267603820003,-33.1081238550028,-28.229996487419378,-11.585464730214934,-6.772582316404755,-14.378338939785024,-19.941238840343797,-16.490883974372636,-6.302183081907515,3.154754098435742,9.10901271119552,10.073660391456944,4.283486889933883,2.8872891875662,10.408055718824686,15.846745421054468,25.85645028053758,32.48515390291795,-11.540741277383347,-85.83233891671297,-95.21497057940165,-36.6531734927581,3.7411889317619877,7.287816254605902,8.952511113031932,11.122075611335791,8.354186527408949,3.361043520383209,-9.622756321786845,-27.688850832625583,-39.99028500735101,-41.290954955403805,-36.607169656424176,-38.7076924575064,-36.02181447046292,-22.722911453632186,-33.605329241447215,-51.01905083925061,-48.75030293079894,-55.82891274103326,83.62705921232491,463.64424219995624,543.1266073502139,-43.88716595030134,-541.0890698569602,-335.2330477300361,-9.427053224981378,-30.5316996985013,-59.66160404468193,26.093594737920426,22.26092103256909,-1.5188725743448197,36.381678753848796,32.704589305684706,4.313317267642333,17.0396290024575,23.474987213725182,9.587681756658604,6.948252614067516,1.7738029967504123,-8.724616580520872,-10.273596989785693,-21.83824458546554,-45.35591329123892,-47.39607835055201,-26.529784186147733,-7.870253470268306,9.71967391772897,35.62357330424868,59.769612984086066,70.92124283018732,67.86805455259795,55.90869903776206,41.949877650855115,23.647550581017203,-2.5946080795363,-28.330180114936535,-46.04423021030314,-55.33273696691862,-52.4132233477321,-36.58147806880709,-19.484206132864127,-11.203536222901366,-6.796984349139201,0.3072371755221468,6.6906202854422645,12.698812081485272,18.75327949682704,12.511191168007695,-3.3411479744670167,-8.571494039617644,-3.2275314992619073,8.697457774552621,23.77544986289899,2.6382066116340326,-60.5879114408681,-88.9218161406032,-56.053637587834764,-28.56373557225974,-29.393140265235665,-27.73066485875544,-22.70146857431405,-20.823937760575543,-14.609672539978554,-7.810260767715771,-3.4906412935599818,-2.860956854184156,-11.490200406354713,-17.271731094804718,-10.550392557371278,-8.486750184052887,-17.858139078402374,-26.056235464086416,-27.46099485117372,-14.481817444444587,14.752397721427908,35.09547447324532,34.66585726711996,36.486248505421926,41.86221096261362,25.427092876353214,-1.536681693753816,-12.756336159486384,-22.211625264007772,-33.73551926679531,-27.138203669149462,-26.575376345484894,-46.9739318761568,-51.92487757025529,-50.233532189125185,-59.68758810044375,-64.21957439423296,-76.511948864261,35.62923270875348,402.6678720032302,561.5229698840159,50.549494140829324,-504.5133062479612,-378.29566468075586,-27.476699998777086,-11.426698495821558,-57.46148864720649,22.666790634762684,26.653540925316328,-14.174644005351738,15.826110048333746,32.525905751441584,14.121284926929293,16.461844760245235,17.17530161370785,5.074887133325191,-0.5987632742563189,-9.857167893347633,-20.853372879199547,-25.565889951674354,-35.05945967862161,-40.31230425406397,-26.814853192000722,-7.482453268948676,14.321286072993342,46.75205702099416,72.73488877939978,85.58029311588022,104.72786851996239,106.36547710858167,51.97367042037216,-11.815051233276968,-24.594625474051202,-20.83963660559617,-43.32279732943494,-63.346261818986676,-58.08742998901474,-47.886545338947954,-42.91005740338384,-35.78525139949405,-30.537927367845484,-34.03767958227532,-36.01462748094666,-25.814034197965533,-14.173698218698348,-11.524890963347378,-9.900299286226133,-5.496422748847198,-2.131621847608468,4.059780916021111,8.729458986306334,-2.7278985098183597,-21.11749743716324,-20.274242211330733,-3.249611685871841,5.737255045965956,6.320751883508567,6.194536238887288,-8.519981332191986,-32.899988417288995,-34.05334711297356,-16.089576270250888,-10.624908919468417,-13.947708927128005,-12.77631614954161,-15.14182597710186,-16.291568127104554,-8.548812146047549,-8.395827521547552,-20.751312527752507,-28.92553785604313,-25.95741445835914,-9.695385063744821,16.255666088225524,30.69635734022799,29.58513732751321,29.27186855725501,22.038254082283387,2.3415796631444055,-5.782210450023395,-7.542583389240308,-24.133957295313746,-29.24944433581517,-19.155404861486204,-33.15100862584719,-46.668160122041556,-33.44697263796618,-37.180013434102094,-52.31473666434872,-64.61139557288116,-52.25643151415711,181.91738231435647,558.2746755891945,437.48811456622593,-235.84286049792195,-544.4407618664347,-216.07024430061864,21.159976439644204,-40.894984174753155,-22.74569360061053,49.69820932563857,23.90340853966268,25.00226710124582,67.14655270138056,58.12209846846681,32.97709922723833,0.13838107723928772,-55.93165657921453,-69.65989732248929,-41.30513600375947,-37.61784552439266,-47.27952905745353,-40.996428628949616,-33.30066549151218,-25.481957092270918,-14.66266576554123,-10.560186424559483,-1.0124459925872862,27.19597823346914,58.47040200255948,80.84435486856069,97.84293440269354,100.01549052134455,75.14581971141376,37.888328743107756,9.367618956435289,-11.26456145774999,-30.753197935754574,-47.480802219458724,-58.68352625616526,-62.280293120628706,-60.50550235249976,-56.02605429718046,-44.47150807995509,-32.6607920556786,-33.14680208867078,-32.97992342257066,-19.714020017903366,-7.912478686339806,-4.611771481644432,-4.349929856023177,-9.221456209969944,-13.344552283507568,-8.282781254526654,-1.043185019110684,3.2673439344450514,3.0602987640465713,-5.741530797192837,-12.734662388315847,-7.578331966517116,-0.7761774551163683,-0.5696777159199833,-4.444508689237486,-12.564197117883563,-20.12368182890267,-18.379783944533145,-11.540072388265465,-13.530892795403261,-27.651280386875808,-36.42470133417727,-23.715400336692248,2.4134096382790418,26.749530345300418,38.300672923633996,29.91802945644367,17.39833426963258,14.42122100698546,4.573984668226332,-9.986120286612223,-16.321234272630633,-31.517040615496988,-43.66865461066661,-29.599120899994453,-19.217784795216748,-15.080923860866818,-2.7657679560954076,-10.298896535132894,-18.488230672480924,-29.47185059045571,-31.08088472740897,215.13389104602777,604.7596839469707,403.62389580822065,-362.7177561941853,-621.8120239085024,-202.8222320610608,18.896963649970736,-73.48337006644277,-31.709883735210813,33.475472448767675,-32.47285789473207,-34.27153385598892,24.92145028819606,13.52524628549283,-8.09957911802813,1.1092204724500636,-2.6045000169073766,-4.260174517895813,6.267394557717342,-2.956336021938151,-29.31905450827113,-41.31874350764044,-29.013179745926923,-11.044248384572384,-2.5980229481129387,4.831869385293415,20.06634021257634,39.787216889536936,59.646868683421076,75.82400290329866,87.45568057230116,88.60013537961072,65.30128980859882,27.21394378761063,0.16340151756953025,-18.628588263976447,-39.453176957575764,-49.71901184067349,-47.055965602299594,-43.593018042319414,-34.6244915030067,-17.62847171170053,-10.132093280979309,-17.705591387256828,-26.826117787278434,-30.20245825449191,-26.66748424903617,-16.72751811596805,-10.334415477739945,-13.99948983659199,-18.398898353136225,-14.315969953216385,-4.762889802311367,1.6245984929179613,1.2862061673302492,-0.7064685246571436,-2.309235306448004,-5.788272547829944,-3.7069155482331837,6.1259388175325515,8.30990784080616,0.7169927827798759,-3.2649278517182623,-5.269166081757277,-10.019485720586582,-10.432782441730527,-3.8544769531652303,5.413300284111134,7.278547620272064,-1.4831019188601076,5.1205141301228485,32.30041947672237,30.746836734354744,-8.871109394046883,-30.269255840977426,-21.25972734947557,-20.440647909652384,-34.08367602019326,-41.89730640241575,-41.96665912087906,-46.3151348526103,-48.61019209000479,-35.54078344696188,-30.19949052244563,-42.13187205281693,-37.366929267283425,-29.24610835243363,-38.02601914791008,-43.75066947868819,-65.87501942499733,22.101371392271716,394.6161065198805,609.4512271330038,120.79624352719858,-488.66361486580166,-405.7382063004933,-44.40659820510726,-21.146098572848743,-75.99971876850401,9.400029321761956,24.340721952210416,-15.015421812509835,10.589677165009386,20.149213695023057,-1.1048888072855814,5.720407350841779,9.2164896159649,-2.124401750636511,-0.5953004177168078,1.4557377428709395,-4.71852075131124,-12.464893427662448,-24.643116171614473,-32.88287118308842,-27.47985045680825,-14.342786070850519,3.196414047022566,25.785788760645215,46.996998689889075,61.16106691446724,70.96146831222813,77.57581997687996,75.10528489703668,59.68188513875535,30.62295271182181,-4.896593522609714,-27.070093778004484,-34.84091221325227,-48.505171237429856,-61.125425022071234,-53.472185479124846,-34.69833455957062,-15.813175951747674,-0.6112940751449685,2.821312777850242,2.5023263098490887,5.510771975513494,5.776739693840026,13.113717113321792,23.152915300272767,13.15247480150709,-1.0251812353138305,-14.199970924721413,-55.48833744910229,-88.50292151223607,-65.57240722965703,-37.6775713547961,-41.262874837544,-35.660714345157785,-17.89268478000568,-14.165395320105738,-10.799694047205755,-2.7611664969991203,-4.400486304777214,-8.095878531190095,-6.974567083595069,-5.760968002191117,-3.380453585878481,-7.5742149934600675,-26.383535799577913,-41.66064212169034,-32.454316781782424,-4.792154268763541,19.786499943820218,29.759233819875377,31.64869387732582,28.43715099733436,11.058290753623885,-8.988857135476636,-11.092985405425999,-14.767451896990101,-35.727439515842065,-43.79095939223554,-36.98985831614817,-36.36320674594886,-24.23000924050375,-15.83653752226115,-37.7291888434647,-51.0965071589644,-65.38180193913688,-19.17934770502751,294.8484495935938,601.313414001508,263.3691746726753,-410.06349921465505,-487.69085241740896,-96.84682097845439,23.53958813765866,-58.507659980919485,-6.0088761006220075,38.16303585761005,-3.926181978073828,0.728967889795225,19.020562510020724,-0.788813232405909,-6.355367186179233,-3.433431599453595,-7.632915367076844,3.4048044795615438,9.089327970957937,-5.383169547565977,-12.30312355341168,-9.031412658188966,-8.511256223307184,-3.625099294499022,2.0155057368827203,-4.029682353985305,-1.833979588513575,32.72968886353435,74.53968237390313,95.80498267986458,112.17188857743415,110.47631416745082,48.79267623112436,-31.030175116475874,-55.778201404930655,-51.06691849364541,-64.77757087395473,-74.63486767998417,-64.98543054142843,-55.93257645004356,-41.77493671172038,-10.857593323594287,9.094943785919178,-5.530959713127153,-28.803279072081754,-29.766766340663537,-21.705667494202945,-24.2057116706442,-27.21369450715948,-24.35640706144458,-21.48263881338431,-14.731600898701132,-5.817356826434743,-3.305098779663073,-3.2862756167876377,-4.904140431663336,-11.996039333342221,-13.887222317529298,-5.23083748684264,0.40790786050111905,-3.071121814564819,-6.061686946323141,-3.091501541266881,-1.4177414965281017,-5.04256036809098,-5.1487367142737455,-3.3679458818722043,-13.452440530478555,-27.535797452863193,-29.6036511103961,-23.844041875593362,-8.871463297197575,20.074140377608973,38.99623578096678,32.38337342168503,21.662726322836775,14.328265548908597,-2.569871260979002,-18.500075862203058,-25.655830534468972,-39.5060000820752,-46.419341387179244,-28.830801195963918,-18.972879245627784,-23.030837732516247,-16.083354381405684,-20.812773894203115,-29.182730590016448,-26.476935202602807,-54.63156504891632,54.79145692938977,436.6817496083753,538.5620631141661,-55.5411327196326,-566.7292364449444,-341.356629669561,-4.232295607730197,-44.130864789863374,-70.93520782040142,41.457893366643454,42.72364536551656,4.742012153122746,36.77373531488848,40.92672178285831,25.836698727240332,46.453002891021555,55.45633438113073,30.900562908783236,-20.156670611072208,-83.4523810161591,-100.01937269535252,-66.41203540857292,-44.207162173478196,-37.779439156947234,-27.122561092969537,-21.735446774857472,-7.392761361023136,28.945748054584257,59.833014386882574,74.8402254303708,84.32680925418072,80.29117823222592,66.1806915946598,56.228315464819765,36.0809580606649,-2.8834368797607155,-38.68443280590293,-60.92914003452803,-71.04926176876322,-62.608711501148505,-44.57484372349156,-33.638666183966116,-27.74881450766428,-22.119401747384636,-12.50571075784299,6.6482072938784995,18.794444350196628,10.89496455808899,0.21297828511564276,-10.446243640848,-28.64750960136741,-32.386580190304784,-19.133186219713323,-18.30572578517191,-22.492585870167915,-13.481529330545019,-9.182650703771237,-10.375592006553449,0.4201802514711215,8.314001225181386,2.9914462414686547,1.6069906391689823,5.3520174853845255,7.2217395280466725,9.148952388790335,-0.29376106729300133,-23.463692588282548,-34.3979070860586,-28.046906027471685,-28.23652200603714,-36.613802613115304,-35.48287593141981,-23.105171298701393,-5.345357186262741,16.965756540318424,36.105923680364725,43.44355440752347,39.21656578265821,21.669580292181426,0.8086992372591331,-1.9899734708019832,-4.51727062790329,-28.246551589567627,-36.47525546990691,-22.011527042874597,-20.35283767763233,-6.669450168382726,16.885114658870272,-15.686447025384709,-87.80969066880519,-140.732849733521,-56.58966714385597,311.6377530880429,595.6721317726358,191.04315492280838,-474.8811150055138,-480.59938624569384,-75.91662702499745,5.559237796776458,-72.95332536729246,1.3723058307004194,30.57972954916808,-18.171303159031332,10.803938679289658,38.49882761856284,9.902282704081024,5.844537391794108,13.098997396829375,1.9733581864353118,2.3663180765252463,3.7694381939733117,-8.343151361342375,-16.135509438146048,-23.14533063354849,-31.904005256499506,-24.77845421081829,-6.919395025930455,3.9642055829274057,15.467518832921481,40.453984209934745,66.056776512661,75.99642179104137,78.81763656587148,81.14623594205904,68.21311708437263,38.601058795112486,9.316248908056625,-16.53871671517711,-38.16357946401584,-46.132225911074784,-50.54229405883072,-63.751975780227234,-66.77294975686196,-48.996381512619664,-33.090570568396174,-27.054049047865732,-14.826837029585164,3.3170186089376834,13.651485751883815,13.737463558459522,7.352606620280971,-2.941979198858693,-10.599939457842732,-8.706808791423848,-2.7441433437003226,-7.47946175288828,-23.64366817325226,-33.90661825538801,-29.131389718064607,-17.897815948280893,-9.822794965753289,-8.122134385801552,-12.149277533944861,-15.71366729077329,-11.074755203889612,0.6148571150999089,9.721798256908635,9.615356789859575,4.647909285322202,6.429124137204322,16.658171562316706,24.282479957031146,30.906429381699677,36.66657821870762,5.312371700837751,-68.98327507118576,-109.25416046023919,-75.44158624340267,-27.393187710694505,-4.893668233147519,9.138281793881045,17.58738752395738,16.058306435266598,9.201337012081975,-2.4392129695150064,-9.274117342256655,-14.951222010839114,-34.30709671296663,-44.3973901569633,-35.25228057519383,-34.06682233056359,-34.93480952804897,-36.03976420647109,-46.88568811557671,-44.11338121729531,-52.052954283578465,1.696945937721921,318.4806030366526,594.6868624490234,222.11740435161607,-428.62846080225313,-457.3360794038211,-68.40072983523123,19.32042017606412,-64.1119017574933,4.117465819147693,40.957764710357694,-19.103632982280942,-14.33856965142503,14.634803390958478,-3.2064851954748583,-7.111324198428301,5.926556112911914,3.7442967834615413,5.9191503124770835,7.299639139782859,-11.5930219923715,-27.655821969777875,-25.421278926833715,-24.889362530996575,-33.64253162371048,-33.229963509500266,-14.849214644435396,9.157998421972854,31.15943635031383,55.361636272828264,75.43670498080192,78.52461153837775,69.41695361192639,57.70954524213397,40.280785948538465,17.457144820383068,-6.74583920090601,-33.429945003115655,-51.99131951214099,-49.332427271890424,-33.619265329350085,-18.73037058482837,-14.566296964842593,-25.049605190367018,-33.21536790918895,-28.102917274891162,-22.113812326252347,-15.594409546157681,-9.315789344084383,-18.267922692224907,-25.384505371684476,-10.199206156193775,3.4846197446833287,7.267243928542214,16.715581490799334,17.77428478704426,5.891911083584291,6.130969607644687,22.89232789659833,39.62737963269618,25.670182662566454,-36.83129408730514,-86.71806993788566,-65.82860166347237,-29.692974048954245,-30.33940245202429,-31.954627580409664,-21.14752525806177,-20.363182455855963,-16.35245415611143,0.7263662617874012,10.747641540983823,6.792911378153789,-2.1779997647946203,-9.045284217561694,-15.524788453190489,-29.28628433789993,-36.36218288874893,-16.347419320918696,10.934512136041711,19.779871138032785,23.932223019790133,31.452303419294616,21.705234703596986,-1.568759445725549,-13.76544250154123,-23.126488355416818,-38.29188132190665,-38.23618666838986,-34.83900999623152,-47.971175251444,-47.64852770533833,-38.90010781394001,-46.0128484145805,-42.82400347599335,-51.255145489996664,3.0561819678135294,326.0274445069933,603.6504591829224,219.915913199621,-437.6056823704844,-465.21624033186936,-85.40981784332567,-4.8872687099375085,-73.30200007788193,10.587984647109309,49.421931092540454,-3.911894384813216,8.942698169203414,34.13577528736861,12.634417572578663,5.85208068580587,4.287009415696624,-13.899360220996135,-17.477260722192266,-14.62262623870026,-22.21712281728142,-20.00970593890517,-7.801206402517401,-4.0945438113565045,-3.984956123938275,1.8452964816007356,16.18807454831323,50.27512686411702,86.14253479079281,72.13111778801206,22.337476051333606,13.887708854583062,47.621600895423086,56.236313234743534,30.806960899729,5.519424837117843,-15.657446304655139,-36.934621223365895,-49.498314615819844,-54.997480699583186,-60.00057016798538,-57.633117318263196,-45.46901834355924,-36.48770874274446,-30.680076512089833,-18.88178997619957,-15.915619536787922,-28.230201887295895,-28.718737293074113,-14.266287048101539,-9.151708783487727,-10.508799579394164,-8.352481301721397,-7.915315094014165,-5.137624799138251,-1.555211423089581,-8.62718198375391,-16.13140997921736,-13.033685207788288,-9.42625591242654,-9.021712108821099,-7.028236728444696,-4.541444362492275,-3.019576231493307,-4.541905580500099,-7.626901577993163,-6.038252833328926,-4.375302304614122,-9.017811755484562,-13.73294654872054,-13.319253610248497,-8.975225075602388,-7.776859676649298,-18.013598587316675,-27.195666235039525,-19.00128743803453,-2.9520740310053037,12.885086006556001,28.64837295486638,33.11774760405445,30.08267506874165,27.591489423423006,9.140330506583151,-15.916070814872091,-21.64526067041379,-24.8386402081179,-30.593577863665537,-26.43896946568027,-37.068082675058264,-48.16950306288721,-28.13968358440428,-25.523584020308448,-44.910115932923844,-54.68260386208204,-63.6461176969267,111.20299289786296,522.7185380419708,549.313201769942,-104.7018073933793,-559.9216642723181,-281.34930998683456,32.181344363288076,-17.38868670983434,-21.189938033611824,78.46525318237633,26.13084663835133,-60.704105982194825,-34.28530282729996,-4.290298192911504,-14.038201746303942,-9.116467922988772,-8.031985571698927,-30.519425860630516,-41.51961614630121,-29.000337308688437,-21.523638387377883,-29.38325105557413,-30.70645102603808,-18.141204820617446,-8.928888894951797,-6.457327884619945,4.384406156434585,28.117001587224145,52.90599892826622,72.51095063647372,92.96158124221897,108.35443000441397,100.1417922627838,68.36108340151767,26.84214771513196,-17.41873319535783,-51.03066889564474,-61.20963999275605,-62.36620654629408,-69.18352911712844,-68.28493912887154,-52.109537805518116,-35.86626940237119,-27.34584159803328,-22.9326028473456,-21.90851960641588,-19.997508090352348,-12.818273909484171,-4.696246474986786,1.8497279190924,4.952890157731492,-1.7223493052875796,-11.516160806328221,-8.511008805614235,4.767612881770508,11.728709948237267,5.124244390089878,-8.078477543373184,-15.699905654035335,-13.023453066695382,-4.475997713298401,3.3715814090378746,2.3409859770507797,-7.1550610481618,-11.410419007746256,-6.652309581977561,0.19425000635675094,8.749646078227034,13.013258761616122,7.532383802859621,5.567097336446946,13.831633553868896,27.677284145164556,40.5368433229153,17.930835831476113,-52.557388371357106,-95.45056830086622,-57.23099281037821,0.6694638500267516,17.739259554796686,17.22634690571028,28.28380262122101,30.09397129177488,-0.5333635716234149,-32.905544403243134,-31.88900149836959,-29.048498052775024,-44.44523654925325,-42.6599176971921,-38.17175286557855,-52.45046708668796,-40.12731750369248,-23.466335240710205,-49.005910710633934,-62.727205889696755,-62.01091601797237,12.295695084779908,348.5663133977347,625.21040093956,229.6687496851097,-436.0664763203905,-464.53195712935536,-83.43601020476365,-4.733118386019374,-86.27998341820884,-18.634683929752143,21.189568245561574,-17.60999736712705,4.625640333134853,28.141059981798897,-0.3958533432513889,-6.7819897982574116,5.601871340468715,1.5656820151452049,1.449733171756261,2.1373292968259854,-11.28925883854137,-21.278830267981252,-18.5064649894569,-11.067492330721178,-2.331286159373181,4.438786259901487,8.232207793497112,15.714713560782354,30.953881342847403,51.046942901496074,67.24374100616456,68.67618185908387,57.114232515896845,44.060839581043496,28.26200596935828,2.7894700299607638,-25.1296251940077,-45.917648123297155,-57.983256681262176,-59.37187156094245,-51.245110809832966,-41.1271174368313,-33.28867411335021,-27.013775322031755,-21.286992922610466,-14.95507720432007,-4.083008019679399,12.791767625168683,23.826701441052187,22.551798940051377,25.930987988225716,35.54674818960848,31.051551037701035,20.913001441894465,12.493400669518145,-23.39152582824801,-72.61220724989283,-78.7253943334205,-53.51708969950049,-44.3925996206497,-43.16202196742158,-33.24739337034649,-26.049761507591185,-18.34625570013103,-5.034147080250943,-0.18288861157925496,-3.3548786022503485,-3.1139308376754897,-3.759708779691497,-5.886804790378756,-1.8329766085915864,0.07823127947960629,-6.646613657442735,-9.672947701312506,-8.937290223082218,-16.003478102441335,-23.946769020966126,-26.217946125717404,-26.954185195980894,-14.360589501446306,14.888373979399006,32.67606903480262,32.710253152633555,38.472402072192004,40.78998284616761,16.962650985593875,-8.108468038252106,-9.016385900669876,-11.45440445221946,-28.889976005579953,-40.5391165923626,-46.84773062651754,-47.64847021039135,-33.79909414947118,-28.084048510059706,-33.397868570380524,-46.339818112256495,-57.463135464294126,114.67134204533004,488.5740533613475,492.4777367707934,-120.05147939260614,-544.4154937712932,-293.70065499642095,1.0266315431354727,-35.05428890774699,-50.67679314407907,23.579125139125274,4.93951651210196,-14.550518395258853,22.599585587319623,21.134871793418583,7.3012402883491205,23.280572558698314,23.43069714467834,9.000439921930566,16.528986112843214,34.980339100717906,19.987487945668775,-33.57130613885901,-59.61867700105811,-43.107387866874525,-50.531040238509256,-60.07903561808357,-9.50212288471764,39.867815659727256,38.41640391736491,47.114725503208106,83.29070495648796,104.19474332032408,100.08530651983773,67.32418513949986,11.8079307947107,-26.272480269515917,-35.89181273340954,-42.78759731412808,-57.95478635912336,-77.26852991559313,-85.47168911932539,-70.15338206591127,-49.75104474417471,-41.1919976571864,-35.307220743198215,-30.12273289222726,-29.545936614992826,-21.654511068919653,-0.9821798543827427,13.884987199694432,7.545239279213352,-3.3182561537097186,3.8405386017647754,14.591709011323928,6.94813222833719,-7.874145071403564,-17.9226788185976,-26.282153043244357,-23.191505341900815,-6.058558693077046,1.608845067363223,-7.25136225476162,-12.581594002565163,-6.69431886028012,1.6277455369142704,5.454451689041905,-0.7666225498687691,-14.103227956111207,-19.72386408440975,-14.882932300183617,-10.641100157031499,-6.743253853134112,-2.4044798969107823,-11.9278169432448,-33.30467679599038,-37.73586855539586,-10.140729015748008,31.234446469516897,52.40085300734958,38.727884567073424,18.638705230904876,16.958749814307968,14.82487399213307,2.525232106007844,-7.1898708723274245,-17.479759173824544,-22.254348253793133,-22.496254917034886,-46.79029216930138,-67.59973999401213,-51.52716798245545,-44.32859622392407,-53.35919471874058,-69.29571669163502,-63.176442984197614,187.68219492822553,595.188260865885,456.3713029585763,-266.74212077849876,-565.5092181707726,-193.4051987277605,46.229329796968194,-28.03722073763855,-24.937058997716314,-1.009299016403702,-61.36222660105996,-45.971961404386256,5.143356646678434,-16.38494610151392,-28.797699649118638,-8.091143866048677,-6.229505050750809,-1.3623433636361,12.149832556285357,3.0161358814755435,-17.425394913689548,-23.929948464009925,-19.7253315274842,-20.485369879202068,-22.588194083206183,-14.154967281623962,-9.94232161647863,-10.128907168149293,19.981755358852958,68.83340586985327,88.6056906211808,86.60782792443854,88.22764430691153,70.6373085873105,18.869551286106045,-32.723798371068995,-58.64505151207032,-72.02352446993211,-80.6643629122189,-71.7425276232859,-45.92995402192807,-25.16029282866668,-25.385416995776637,-37.19436500253315,-39.434986639075866,-32.32699684666619,-25.431017804336598,-8.171221866991988,13.278802316501533,12.17939987589147,3.982825708345487,9.060494847818626,2.877641082751083,-8.559992940434672,7.419357811046978,25.741440931817355,13.318663206339465,-16.890974148155475,-38.41917450206137,-23.692779426034704,4.151511558439751,-19.964124922485706,-57.785073459943966,-29.318372193649644,8.962895082478,-9.683397195617566,-32.11458870071858,-21.909476396193973,-10.276384004552433,-18.963306724307806,-40.63437367043477,-32.49699039531021,19.301124831189885,44.524710696667256,19.91963999559171,14.871194904094626,40.06100438869083,42.73428373721301,21.4784688850768,0.7816616840576511,-23.604070568933725,-38.990027026908656,-15.07368358313461,14.401552136459141,-6.448107026444312,-46.93082721637697,-64.44017004219221,-70.0885515412253,-73.59616572698059,-101.02145447672191,-52.34385166300234,284.813978041243,585.3001273181112,212.90148633644242,-448.0015708559548,-471.79760712362906,-82.90991039306729,-2.7412197967581307,-71.94889213938801,7.74972188831174,32.45376615590094,-24.040145367854837,-1.3221463446606423,28.746669054892834,6.695815080410643,-6.813811996259735,-12.289244586679557,-16.10979670672038,-10.369395394913603,-11.719161504789401,-8.019842493743152,-1.495584937683705,-15.235965238299855,-17.421171841925595,3.602247318733533,6.896077567592418,8.829836760641221,42.296741852046395,69.16278467190214,71.38761031130562,87.8153443787461,106.03767313611249,77.88832001344028,26.78948163668736,-1.8246045020902715,-25.047395768497406,-59.41081769024177,-82.65812929489111,-89.38520754010916,-83.77945703069803,-59.4494127734057,-33.99580810627004,-28.8153046496271,-31.445899370775322,-28.154228547290344,-25.38674078505578,-26.88481972002613,-24.21125490121478,-13.315461039554776,-3.8614693709199592,4.175233462962574,15.415340464039133,7.046377036363435,-18.861595987971512,-14.220247288502007,9.557754205078421,3.8450829337878485,-0.1382914745188044,27.142374092510302,40.597086779422746,29.807058322760938,24.841687808463522,22.992849129544528,20.35608448736586,7.425365516580538,-37.0073107243829,-75.87266422065346,-70.90650403225831,-61.814058242763174,-68.49237487018708,-56.87620526866113,-22.28935271441926,15.917009103885581,36.86647467435657,27.16532539400803,19.294429386685565,29.44080523109816,13.610340475232814,-25.99061904866433,-40.60676039355515,-30.23294540147878,-17.164472967750843,-20.20116147305045,-43.194523237636574,-45.265248124900545,-31.136870037447103,-39.33353783918676,-36.8607161773504,-41.365898182371424,-22.587975830480218,247.65600757997234,569.4520356937654,298.008959773514,-344.00803960134067,-446.0025538149175,-85.39759330340817,32.31468182588499,-39.128026277937465,-6.007667133953234,-6.713935055111676,-52.816423119696495,-10.042781986595246,18.092349503147307,-19.625143361800443,-21.488277770020105,-3.6213989482974354,-11.243956602263577,-16.567862134171712,-21.49433601810131,-27.043148952317495,-20.56885376046446,-22.64475766976944,-22.098723920490777,4.311979101153867,18.771883911735458,10.354152105926152,22.247197244818835,48.823330148273946,63.2431904177767,81.79614423587999,103.08604353742474,95.92046162359614,66.26887246255247,42.91273411455778,22.255605636924304,-15.6542361240323,-57.033745960423644,-69.0758754233405,-61.75252950252103,-62.74208874277856,-53.79770775727273,-23.817875348929434,-3.0732729503702707,8.865652823843458,15.578207888242872,-22.48929953670107,-79.47293171352406,-73.6153362348722,-29.72749345318625,-23.410599443370018,-33.61788037082255,-20.553727977126858,-9.076091686893669,-11.536305447228084,-5.766540602180475,4.207673893493947,0.07469041586956138,-5.597629336466486,5.588088727540877,17.956104864944734,12.843221111501776,2.33949166996055,-5.688217452710358,-17.327562508663128,-18.74164049648752,-4.291550314044515,1.2876528789839696,-3.7193392493766684,-1.8241946669684577,-2.4461759918907466,-3.5520366016081377,20.00871956529382,45.6602621698032,28.587517156891465,-5.530198399314483,-6.491967189419205,4.830547798654308,-9.701124143877419,-30.614484698866754,-36.89307080814099,-40.08508772419115,-42.034275361640525,-40.08404345082971,-32.798984246212974,-19.783210315293367,-26.106913661921045,-43.894793715049545,-50.260506478789885,-65.94791878496643,57.62611413986906,445.872124873047,585.1704785102481,22.574339815648955,-530.205645623154,-348.4221659625403,12.418102002054457,-11.080546434593991,-62.52428762613941,42.956923118097016,46.33598001933965,-11.501271337030323,10.839683311020366,18.041065118118652,-11.007052193177607,-6.795433078448784,-1.1863571812361071,-10.130845543860648,0.4228157417106271,5.946938121656323,-21.97894446085366,-48.08960033497415,-40.79271676405888,-18.70553659977104,-4.943467967244932,4.603513190986444,18.248668057109587,33.18063760792934,39.40820347366411,40.14859990940313,62.3544583043332,95.63979472941584,89.1373639986393,59.649289909240956,52.72027461458752,37.745656682101696,6.775526863213977,1.3918570462535662,-16.549372737796418,-75.55418181893764,-98.25922912849775,-71.82498159070967,-64.54323061992362,-65.27817807845857,-44.87332137022088,-33.48163052280181,-29.71680088404539,-12.100332722884481,-0.32770031701878466,-1.6724824287252602,-2.945749381911444,-11.403234785889701,-21.807554989217913,-11.716436637934837,4.6440823073421456,-3.8834607414928897,-22.720174767286515,-18.394664144753044,-2.5239534695380783,-1.042604487675181,-3.0577000704155246,-0.8118798553051398,-9.59930770349953,-19.027506636161483,-8.999953769302714,2.5524407171077304,-5.462173707144572,-20.267896839733208,-25.996939941069236,-25.927896201601037,-18.072498212368096,10.978774529717596,45.11651823771386,48.09406997543533,32.21578218128479,27.030221479563004,11.572000477975141,-15.534505378692188,-15.574024809557333,-16.814480200947273,-54.443422903866505,-68.39095090084243,-42.77889696640465,-40.256917363830695,-41.40013808933378,-21.05009767148571,-31.66633883245777,-60.724677407468114,-80.73024585370561,-40.988861620764524,262.316853878905,644.7771191244631,408.1498846596041,-330.3476242259837,-542.4699872513646,-143.57245096446064,23.47836671236267,-93.38129418173087,-42.42575126620483,46.56887395735609,-1.9529629918261158,-13.275785116022785,23.03977926085519,11.419419257842582,7.11402032869512,15.27196895086163,0.2605852325519007,3.3300787016806885,17.047643628293123,5.701703638839245,-0.3411745142224243,13.716945047087151,32.250337153728395,46.29182263337866,23.79695603478357,-31.037386825096153,-49.15542055134004,-19.947437993928826,3.041959146647356,14.80030807068633,36.382926988144426,51.25654054086861,41.30430834793088,15.828247695472282,-10.826281997296707,-33.11232475174515,-47.45824856869774,-47.652756547446764,-38.21808777241833,-33.6694649545326,-33.58176549595197,-27.795771108382322,-16.704734336788448,-4.716244001599197,3.4902020501033206,5.247366659217505,6.6908822152270915,5.843337487623476,-7.17247878464017,-22.441616039405574,-23.759577562643564,-18.816189145237953,-24.38938029614534,-33.08128167840566,-17.973520199580495,11.681016766664598,7.127635843809838,-24.147838131621832,-22.689867191321248,0.664009301151733,-4.271665974384593,-18.461086117565067,-13.77393128633382,-12.180002913058068,-17.728553922895948,-11.628662864184188,-1.959032361499908,-2.625442932127225,-12.364673998054588,-25.10628828299725,-28.70543924913688,-16.55787486851698,3.5950342525867978,22.99926839860946,33.69827259862016,33.78599075649893,29.669584805899685,15.99907662298712,-5.696712791348054,-11.344705123507772,-7.030864807228291,-19.056703992536285,-35.82163845387903,-47.028869827370585,-53.06457728134253,-33.50646756038077,-8.280271399291632,-10.881773097187846,-36.45367824598273,-91.67471671089788,-19.591964384323717,389.1439108284437,688.1854603704965,220.99232893693613,-502.17469981311274,-520.0924979465951,-116.02206831817495,-29.853227949424934,-104.77203608243131,-34.10340457559842,5.334233873410412,-27.07361006117333,0.899681207548805,25.345106177749265,4.626990703682633,5.91448532006263,7.1144457991263925,-14.98876609104422,-15.65642484219742,-1.3774821607515468,0.2731131929227617,3.119897658777936,3.9566602589829625,-12.688490852906131,-27.138302538803803,-16.35456212486741,12.348971698978415,33.97816344557937,34.18227040987307,32.72041782322355,53.82521093559382,78.67598955611588,75.57165024529321,50.63903270452842,27.989554146651862,10.6345461324921,-15.433718332361618,-47.665186290423314,-61.22102098502728,-56.08533017226864,-60.42087508710409,-65.01521334358571,-41.06127073997153,-12.420917158332514,-6.998571682940836,-0.9480656443540276,10.06711477014713,0.13680541102691635,-6.323696644127957,16.62631580135823,22.320317174012864,-7.6271095829790845,-14.971164248579365,7.2147450894544125,7.185031453988639,-8.809600955940518,-13.0415581187513,-23.694633309991644,-37.698683862529606,-26.03562633361086,-5.012907153917752,-1.1301462604307986,-1.2237401664164018,11.304312431696955,28.360129446758116,31.43848076385764,25.426773814837595,33.08466967562417,24.773814227374068,-44.10029791368369,-112.58661582343079,-99.8953684740484,-50.27765090011664,-30.764775919414717,-23.511583968940666,-7.563342314242497,6.658957227299332,18.938047867335825,18.628535344708332,-4.820786818305443,-20.836464970461396,-16.200225325320726,-21.498333123322244,-27.720948470300012,-13.509615395834118,-16.79882506693383,-40.47585088424184,-43.93960098346912,-49.57532584163139,-62.90669254377913,-69.03625923542478,-80.32997053789197,89.71244872659814,514.9917404084599,582.3006796904451,-54.59664112042282,-544.6794889553097,-305.15572150637655,-7.040605507846379,-67.6353098515574,-80.68189488549608,27.84029704248855,17.010912042763152,-13.776018478523138,25.758779425377057,21.46856790948721,-9.507581289715873,2.664446814848205,16.793385364294817,5.812180056674942,-14.135906240349755,-28.011392575690195,-21.585026293540494,-11.162694598594914,-13.77506140627328,-10.493324386434926,3.3324826759740844,16.846457540687886,36.714379758317385,55.917146546377474,54.64898438544434,42.046646501782305,40.60831092953901,53.13744002212324,65.6034865395065,61.56132917327709,35.235445413798885,-2.9443910134855713,-33.43086307020524,-47.074515020322636,-56.97872326521612,-66.85156334093892,-56.70140622077831,-35.01772016325149,-34.25811586126926,-41.9221650600182,-26.336925300525415,1.2131104584289076,16.587693630295725,19.304253101863992,18.821425092066537,19.854319720681172,21.381041886761597,27.424455172941144,29.29984614289151,-9.823555085926614,-74.98998998695515,-85.03469401349462,-40.05373170890739,-19.85668577104674,-22.33884927273514,-7.157510877217383,-10.561350959500906,-44.67283613292098,-47.57384424940988,-18.591419301552015,-16.062427944106386,-30.595352921518547,-24.744872539228545,-19.37294136416071,-27.597023236670164,-19.96230797381819,-1.6356918702452745,0.8609007380709457,5.033306795812164,23.554844800374084,31.770619979270663,27.16645067377149,19.859325038710942,-0.31175261939916865,-18.69439780578335,-17.854395454414206,-25.008633930969083,-37.939171870552286,-30.61797694595499,-34.27901613286542,-47.898265683715636,-26.999455622592876,-12.138765161158375,-33.58845751967193,-61.95008199293,-76.89093249444481,102.33031880601581,514.8554721912891,545.9564634402168,-106.61870208764307,-572.0840439397206,-304.349478655657,2.2985221164083676,-50.18149773655045,-55.384901647318316,41.18171417774837,12.358131914099921,-19.678635517699337,29.494022702283228,36.17349194043517,13.383227231601351,21.82540582362566,23.69442521271266,3.385715172839822,-25.47621059946295,-48.24871538010223,-41.90837862803712,-25.67162552949169,-24.495958832754383,-20.7825265283688,-8.727353446506104,10.26940856735953,42.38578685575352,59.80998574002209,57.245721769582,80.84688049029971,120.29985586922409,127.15936786551627,112.34674010266468,78.95093377585522,-0.1423462545319829,-80.53973234667318,-104.2936915966257,-99.42194493328176,-95.2592243386891,-79.67868700883534,-65.23787363062918,-61.236578435523306,-43.93375971704146,-17.85408743008002,-7.1896930961891705,-3.0989858778391977,4.160868256282921,2.9981299904655465,-1.828672444206461,1.536329563851293,-0.05878144184460865,-11.187236887394796,-9.445670587891769,1.9750794755789087,-3.2469324997685725,-14.625485711845695,-12.140986376050083,-10.384876219528316,-12.936818716384717,-5.270788474841215,1.5821771850185513,-0.5110675026472009,0.0868840084210678,-1.5403724708014916,-6.252985374914061,-0.15144856930109718,1.3414071265148166,-17.68524305727803,-32.72741799687638,-30.283452807131816,-27.21645477646943,-29.1958758199484,-29.468876617229277,-18.281461106455822,12.801426865194369,43.71583335606405,46.06053325521758,32.01706918424084,24.25705199808032,14.79652743595706,-0.41366411387208135,-8.532616574810074,-15.103027977655632,-30.607399767223818,-48.68037242987036,-63.31555929046514,-64.58600389804589,-54.165822228616804,-52.874402754290855,-46.71068964648289,-52.63256177503817,-88.71437730855857,79.56079364870527,529.0055186204021,602.2586146027094,-52.24640087286667,-546.9614236319178,-286.0111748493544,30.249875547719128,-33.15299379168589,-51.20905419298009,61.64418914953135,52.95258854921324,2.159265313285628,-8.558158729226731,-48.958687744483655,-59.33340328921912,-20.920678067004697,-19.765011210557187,-31.536774160420975,-23.12771350640213,-29.910385480586296,-29.918836248742434,-6.837351439395038,-1.8579055643334463,-11.936240300368326,-14.458022945396554,-15.583018203671257,-0.06862895015153292,38.84615853938837,62.374663023836575,58.53020647541896,58.17232255108172,69.85769107655459,75.72252577146729,61.79208902848464,24.819495823988092,-15.529965541184549,-31.365840682611648,-31.14692612457105,-40.90780751550329,-52.17081554992559,-45.95274321056059,-35.114004519196705,-34.46415062870543,-30.1320351227366,-13.392553440903622,-4.458956548772722,-11.57999081332332,-10.973652885492331,0.45234315993700136,-2.700697514152637,-10.38576093740331,2.62196591306731,11.234996478749416,-5.643494078997895,-13.135400717411143,4.517111231399227,12.658831414199248,-5.067828923403866,-28.725192913828028,-39.62438584579746,-34.93201454841744,-22.930020226714902,-11.08151578432506,-2.477881345781544,-2.033741580271645,-6.76525112739508,-7.61000519196674,-6.286289729347255,-4.436874440072625,-3.7806151667596666,-19.469649627628574,-44.795185077266325,-44.51805155189325,-14.616732327466595,18.47646766589492,39.27426131496694,38.870930872777556,25.95709320056223,23.19529211415794,16.987105120188108,-8.024124517279834,-25.272133276271365,-33.08931274213758,-47.0377298794093,-42.86564092302981,-24.352852057823764,-21.592225263482508,-20.91241718232434,-21.56414143707528,-25.28148168787921,-22.978632738390814,-57.60544804923412,11.248669114488749,402.13804857515936,662.2934461895152,168.58575417603964,-512.11611545041,-474.4094886014314,-84.40516466210293,-26.121562126556448,-85.15730289009608,-9.806250287907389,6.9820221111437775,-31.44568979374286,-1.9971596499935718,16.6034423903007,-2.0876348419213713,0.5140106350328448,3.661711864687251,-0.7039849216705996,4.150778325850906,-2.896385713076958,-17.199644418669752,-21.33877148619294,-27.861162769971756,-29.572100136662925,-16.029853084625856,-6.818290739397827,1.574991944424732,25.678169924485278,47.1841093017698,60.580896492396526,82.74339464510437,91.5856761635834,66.46485786780416,39.250286964190536,25.2242344764354,3.4551797710854535,-22.691524847421267,-40.42749245185002,-53.18409867071513,-55.222924670306135,-42.80027670706987,-25.271407030676166,-7.731735333430528,-3.013566185911781,-17.898825089538114,-26.698513625525187,-21.39776506702181,-25.568638032519225,-30.046708065457526,-16.29223119315184,-10.12316916947481,-20.723244307947105,-15.425977327128328,1.090554572931861,-2.137035132840353,-10.703707694699734,-7.325904808794341,-11.108541348822985,-18.054917798010294,-7.586440348742592,1.0470942547097266,-6.870668816686514,-6.848174304544807,7.544119485718159,14.933592151371723,9.85220772035704,4.527116061016642,9.676439883628637,20.011036516243117,22.818860598489728,25.664727205557956,24.587548310338452,-15.158779189472263,-72.81507463699543,-76.91829548623784,-36.211923944572874,-13.478982058132049,-5.75662801601673,10.773818275116401,13.329216868921321,-8.545983648345349,-23.24156637967511,-15.40787449924684,-14.024078236175146,-33.37266485977113,-38.81870235775571,-29.94255459898896,-43.02967506035334,-45.43020641010739,-18.827448989796025,-23.33872237728714,-45.71752695627541,-60.41344212963854,-51.863634374061625,196.42046171147365,615.3528479411079,499.6402158355452,-236.53821622830642,-589.4770465605039,-244.12024154666545,2.8305602758962713,-79.32235330019694,-58.60189073050093,37.9353612332595,10.991461072789726,-8.17748376359677,25.81291163969229,15.28484955392412,-0.4325241428463311,11.980587563140375,5.694624418729737,-5.545201131781814,-3.36020068583594,-19.161821106970546,-43.97471816188874,-43.691604096164596,-31.08873198976488,-26.481327580739332,-19.26342155377136,-4.149963808977838,13.973590106918735,41.6608049349247,71.6151945186235,80.61538665145835,74.91651143454344,76.5449452233546,76.01837825704979,53.61316780493591,19.22293038377667,-5.6117162861412595,-21.54734438867803,-39.715276150938834,-50.74479500828851,-39.08124470544739,-16.293559347474833,-6.922624432911796,-14.121299067710805,-18.62882695867806,-10.181226798029883,-3.18615148510451,0.6330044100241281,12.397116052101051,-2.2927222119665416,-62.35855492589144,-89.17433661409268,-46.942071679144,-24.032512470738986,-47.44464304309045,-44.414314027271885,-15.202479905866468,-9.630359920027345,-10.503877315725319,2.1469641056347086,3.0185660935988565,-5.902763660087263,1.7814937899392476,14.12093681658096,6.770846853645583,-6.908696008956754,-4.48712272962786,6.7554999448516,8.667863727739848,-2.1127221190456247,-18.003634755664557,-34.238226770034416,-50.604956992176135,-51.65552575164459,-15.918858205656361,31.53124150258274,41.34074617384826,25.906218295588033,27.20250107880219,24.980717710726687,-8.439456184424284,-32.378240281867775,-25.775956574285736,-29.42763842941406,-39.56794749756493,-27.375998301815127,-25.053952349365588,-40.63366035499966,-38.81443041885707,-35.22437324276729,-52.923142273814285,-92.29977654836536,-71.28858392765147,225.4827006122767,628.9032036387366,455.3803420070408,-259.4347121616901,-540.3849224503427,-189.13326542337973,21.10725007774639,-65.89284133150987,-48.11044671672533,24.688783893767635,-3.4449365255104674,-7.7698464869210895,28.706380219377976,33.9625939216544,37.54659856110935,30.410901640033636,-0.1664328005193374,-8.589893438421779,-10.20525149444263,-24.085954393634744,-20.596378477947415,-21.74011935604617,-38.36607547628082,-18.564293972093214,26.754961816077675,45.156386761754014,40.161495732675625,21.634036797291778,-0.02489136035667805,14.908931397906553,56.85602479963518,69.3281679480471,46.74116906390157,19.849271381454237,0.9404662694740971,-8.75321768929391,-16.07857137999984,-27.13202237597372,-30.80336827729448,-23.665307548259467,-21.294315330196078,-30.923752244941074,-44.21988773241128,-48.86044511057232,-41.97016430696782,-36.76431270970328,-34.69285265000212,-16.26004484374426,8.762446438857562,1.1566929242011952,-33.09630790351428,-43.87668553472081,-19.885472699328595,1.318883120319395,-1.619966924419554,-13.422943829961614,-15.964287874782741,-9.451054991738406,-3.2168517439299933,-0.47717098420799253,2.126602537761743,4.121187993867597,-0.4255171053985798,-11.147768961381223,-14.84250666962532,-3.189321483955112,6.691894268980507,-4.639119156130967,-21.499586239029277,-18.06893823385931,-4.563453858361456,-5.260354492498561,-19.646090214654013,-32.85561089403442,-27.639644881442614,5.713583020368811,40.80238970458109,45.17941120967498,38.37963643810083,42.05685141526234,25.0565886264661,-16.399655848623752,-31.559673711740714,-22.98225373736146,-31.991908409039517,-40.0245552416171,-35.164182547659344,-46.69949681426526,-49.13822962064357,-29.270974176407258,-38.30449524204572,-63.19762045155545,-84.3766923219797,-63.265380463131855,214.15377605021024,622.0022427630104,471.7247664339968,-238.84129682936106,-539.7220244142834,-203.6322289349219,16.554635833444703,-50.24767392071575,-20.00911376011022,61.64524494765334,37.30297843720315,30.35070027598269,66.79160070109236,54.256583445723976,6.01942311344996,-43.41035669666958,-74.95156712870954,-63.75573364518695,-42.56101596632642,-49.734737033504246,-64.2027837982993,-63.149307763335905,-51.013744596778686,-37.43750769545391,-26.18231769271314,-10.843714380690656,10.911671856409159,34.27339155553191,58.68055915306794,77.29381952156197,84.621419726685,89.45839807145695,88.28324786042889,68.96517108407629,38.5754908170147,4.129166128494898,-29.136679509176748,-43.84697684929719,-50.09433116506608,-71.82101297990681,-81.55756286216308,-56.33268462581413,-38.3618878324019,-43.62599800992795,-31.71961961924695,-6.17935481298694,-3.0112038536279435,-8.531859604084026,-0.7764768987672497,4.861960831126471,1.7011662113893884,-4.355769826123861,-19.966781287262904,-33.18948101346912,-22.023265819672783,-3.6773535773328767,-1.5631080478623431,-5.780482677413026,-9.081003598856014,-12.889497327519035,-7.121948084815045,2.423349499410568,-1.7473804111637428,-9.635709983444716,-7.691238747136067,-6.861184561067347,-11.428914597265457,-8.553124994759461,1.3133711849408911,2.030137415281379,-5.4654203765096,-1.6713233391709137,8.498780655615324,4.458714674849675,2.1627107786445,19.575240761961673,36.21780349409719,50.39112978317027,65.80272970779873,35.28728087549405,-36.17481697497984,-57.76867168009791,-28.260052051434087,-34.01243415012514,-69.4731969683795,-73.62672393180704,-52.96313288837639,-44.088846296417216,-52.86048434923419,-50.48668954473,-30.170704244059113,-40.20121023759992,-62.315002235235504,-49.63637897371757,-63.70417354707502,17.29884416133727,409.1259919416876,650.1316152582664,149.6843698213541,-489.7250373073247,-411.78101421830337,-33.27372832316034,-5.047572588290166,-75.7849281045791,1.6441424497414943,26.877286855763856,-7.745370245474152,9.423386822072999,9.84691443461711,-16.487488058042512,-5.307306213484937,13.073947852882242,9.422291054529797,0.6916705152668605,-12.804511269077024,-26.322994805927294,-32.213461721690884,-38.049354733586426,-39.943154599870994,-28.078901276262464,-7.304290670657927,10.298904836902732,21.471101418106656,39.909050408166806,69.5022328780105,90.00318615402462,96.11212233749382,97.37673666733515,84.5361151602352,51.82564783232179,9.88149749434108,-36.3890506345999,-71.83107237625667,-75.34752809422486,-61.84101903740201,-55.54341236107455,-49.69245739471182,-38.96465668376846,-31.46537360472462,-22.424119141859297,-8.7503220806063,1.2830627743531728,6.573069084122626,1.5197139383983185,-19.028551352536756,-28.21149072249345,-6.663351243816599,13.992334842615637,6.362286256340671,-12.615263312460602,-18.269355167874085,-3.3723974220519413,20.067514571728687,33.35372370302504,31.529813825715422,6.012171787916863,-45.63217072750132,-73.97512241071423,-44.2240177742773,-12.803081299954453,-27.194388801656935,-46.0731984142038,-30.628960265589363,-4.163539649782024,2.671871668198179,-6.707324494706366,-11.680707761299054,-8.001988654977023,-7.071740621378124,-7.260692588801103,-3.168750989190954,-8.322374505018317,-29.313178404309568,-42.866585803012754,-25.04484469116592,14.352503115549673,41.90233665041285,45.05901052794731,41.965898742047,34.364265587658096,6.576251757613355,-21.438254417819046,-25.231282014586252,-26.92874763076791,-36.85131654382171,-38.643024125788145,-43.09936812240176,-48.31163677226026,-37.48229927588525,-31.850561286877674,-37.33202024934306,-56.92922003136631,-50.85822108558575,191.88694125085843,586.8977817675982,478.2196683987199,-212.14733691090143,-553.6986702855356,-237.4406702797411,4.851181266856411,-56.80038529246287,-38.39447939218847,34.85214697881713,-0.24008830513106005,-9.347273941952478,31.14802158493312,21.706268754658243,11.586287469206146,29.00785727305313,14.949964494831544,-19.34711908002717,-34.38754022767706,-36.05343938169069,-40.81391771750859,-53.841174100492246,-56.53869930589619,-32.151536114973275,-2.1447440960853905,14.407037069369517,24.042753385310768,33.462778733117986,53.11524175335149,82.01864964961129,95.46988288151113,91.55657381506794,84.08089819360728,63.35009580049169,34.297950933423806,17.53676459631807,1.141598885418606,-26.99751342428105,-59.85526206082828,-100.86818472599475,-130.1331300414959,-110.76970169097913,-65.25045320867395,-40.5578187695735,-36.0608634332894,-35.63040712304543,-34.367751142342925,-26.172586732766042,-13.859989834800572,-2.749638431091057,6.8661036154621335,5.0492431218445155,-6.658407434550444,-6.017276315120867,3.7353086715228656,-0.02633667574638565,-7.8672609729469585,-2.694306037959386,0.537753399129457,-6.230817641196225,-5.443083152262439,0.7463817196382188,-3.918248655423998,-9.595328095804678,-7.074156665744152,-8.933280906802132,-11.165470694274827,-0.13411256023895124,8.236876551390246,-1.8353070068050972,-13.30559611254833,-11.808212501544705,-10.100584429221328,-19.627133125279208,-29.774466048465648,-24.417842003857025,0.23530533685152566,34.175316846324385,53.90606684560361,48.79942887703671,45.769395909203006,48.725254671943475,16.0939193424279,-34.965969350807306,-48.20473078235072,-48.201282520588265,-62.3660527232948,-58.042463916830066,-46.76734372330598,-45.2512372446746,-29.69503956243522,-27.268043704161048,-47.15979575677615,-62.722320277276594,-65.7545406151924,123.59738278299088,537.5446339674495,554.2625069181831,-108.51345105086307,-569.7209221715182,-299.0785706710608,15.92155825072826,-18.080327393225435,-23.922327594264104,52.22600746857627,11.190631310185744,-19.358218605262707,48.13356774979374,72.75454226423295,15.737246473314057,-44.990336044223696,-62.74340545525296,-43.682097153713855,-34.268073272345184,-43.84999087371504,-39.177649161057516,-30.55959036810348,-29.47280461051558,-10.124775823827832,11.448113840158358,5.558336693664295,5.823468553263837,33.49952537144618,50.88293711960926,52.104593140596805,67.94997635573154,84.31116189448764,72.5639278105308,46.80181754393546,21.959873018740566,-7.988470885849236,-37.84534815659753,-56.755904801313065,-62.45292407924856,-57.136628976583225,-49.0464363830286,-38.675779070645994,-22.683328622996424,-18.248761350909042,-28.15998438842397,-23.837998415109666,-7.076204460051969,-2.0817796626283425,-0.3187842603500215,6.193249265066147,7.186306479264317,6.2581520984345325,-0.415691760207622,-19.193882827948514,-25.16042426813383,-13.455930142275784,-12.091589595926484,-13.610510713174463,-2.3532793553757507,-1.9944161016837398,-16.138146376165274,-13.229536038516912,7.367335904436182,14.961547035064381,0.07205113720841183,-16.565027766133852,-17.82361794533155,-10.006010861086008,-1.6041605744311633,8.646941435134329,11.80975397173039,-2.5466327463860594,-19.62425419550928,-20.750957199881675,-16.182372285563396,-24.21761040088498,-34.78095377317034,-23.63722389143111,9.384559246869733,39.83298034224693,47.125951960421965,39.04118599632001,40.374169924058855,41.77530797296162,15.526763786013017,-12.69764211531239,-11.155043882734766,-1.2758571123798301,7.593468170556341,5.054593922812792,-46.32135826120755,-101.13669958758595,-90.4193182858337,-56.96085155188331,-52.600777659446535,-80.09555889040558,-45.09573479467459,253.1007496167207,585.3325254776445,314.00670690840656,-364.17279912156494,-515.8953217416845,-150.51156954372874,-6.5864120272771665,-73.97555121100135,-4.942462649573379,47.93787442179959,-13.026125389086445,-12.524206587812824,27.24892921607649,15.44954233516426,13.806363497128107,33.80394025376944,26.308928144811013,8.209143475074491,3.3034838836280294,3.5349038390022827,-3.940359499715301,-27.61866565309645,-50.835989790077605,-53.964518795568765,-45.86110509230968,-29.471707204910047,0.1911034751383065,25.559337289002087,38.20045574847839,52.411937965794785,66.57097446869852,72.15909744532276,70.90291157779615,51.551520414005594,10.052272154164331,-25.595630551779614,-40.14623002101405,-44.644482542040116,-43.93800897302247,-46.38125157781372,-57.90903309524788,-57.06159726145361,-36.309858996011485,-18.459173034027586,-10.01760309896536,-7.251134021425223,-11.348258327995833,-10.036739903310766,0.01829001551936038,10.042309090486185,21.71429237712956,19.15920155752836,-4.409422695720725,-6.505187068134986,20.230245798678467,36.88397886709356,41.539276117656456,22.253692029880973,-41.4538985183748,-81.79704083457933,-51.47726602683439,-19.55117899965955,-21.12162231976348,-22.44896861308024,-25.63503185991464,-31.13125389911566,-15.891116474391163,1.4240963454395192,-3.6062353210925444,-13.96822883193758,-12.810243887885978,-6.736407226261358,-9.930653711698252,-23.171791785169518,-29.49004021318789,-21.6918719932053,-4.608626378325027,20.609374085353554,41.982086300555025,47.43428007674849,45.99498204686125,38.30380682577895,15.412956194470414,-4.976834365502709,-8.880573173921393,-18.674309599923166,-42.89488702736806,-60.14458087467988,-62.96471842095181,-52.57979015350816,-36.09907341208302,-31.74169527181906,-31.482285397291008,-52.9520747315769,-87.539176795912,94.46524718136762,513.185855670822,531.231223490825,-108.85246390512611,-545.9851704084743,-287.14701914350417,-2.4847045624349846,-55.119399627695415,-61.46459452940452,28.850899328749072,8.041751758503878,-16.8209329953434,22.26941710232165,21.400316721838713,8.338929829077836,21.001828481311815,6.656885226299892,-10.715368154241448,8.138628043749755,18.292735160127656,-2.9143235601955944,-26.376801680413493,-40.801688472470865,-49.913407655709925,-46.759600529909754,-26.276602395891164,0.9700629110917669,23.621552074947807,45.05918287644405,68.07069253611921,87.1556842453601,98.95402897539725,96.69568158036549,76.84398928879592,49.625527252560744,18.921268957559647,-8.14833922141254,-13.409224283292637,-24.646444002351508,-82.13406715767063,-131.32085952159,-107.20811010243831,-62.17595815556838,-53.898553595369705,-48.771332356952755,-28.489965974245397,-20.91738634614055,-17.94173471412864,-0.11053823831389309,12.59820362379025,8.821808732644428,6.102567158584751,4.176319769346335,-6.528398265119879,-8.230819468911196,6.100122495176162,5.117720235516021,-19.117168564104908,-31.018739614461065,-18.127475831844368,-5.581463126904584,-7.547919530385808,-13.948353439456863,-13.014344882243678,-8.063191212642177,-7.577686443488254,-6.884150861587633,-4.184614544071483,-9.527615242237427,-17.67771493862642,-16.97616015778594,-15.773926756658964,-21.4801060800743,-24.299091528209335,-10.168431564124237,21.940186898631747,43.105857521336006,33.04670984082634,23.61706330410682,30.524630986336895,20.02925639564978,-4.565281033705762,-14.10675437105263,-21.688746172170873,-33.25665824750036,-40.472821848071796,-54.44451151906839,-51.92286641392208,-25.22747271354908,-27.287240960158364,-41.57187664687171,-49.371737505231295,-62.45709562160398,127.52709429481958,532.5650694894647,496.9271462881456,-181.98712984834165,-578.4360361090509,-266.0787809804575,16.425065806075246,-48.73704117087052,-49.87436354745447,35.06942669651009,1.115475456331751,-24.405213865604367,22.78734353102236,24.246584073741083,3.3927048320294864,14.81765040236426,16.918436619478353,12.312061781667662,23.033416057453078,27.67847248974415,29.6277602486399,27.667948759205945,-14.341093144417272,-70.58439987273958,-74.83985866405726,-40.53692886584082,-15.063524271045305,6.3356122329030775,31.3326916046189,47.0522608298176,60.62046225687368,75.34856765928171,71.55543498127382,46.48702119824167,15.097482472270476,-17.464360582751958,-47.8778697612306,-66.93922772483172,-71.77096307465453,-68.46644648621611,-62.058605817546784,-51.77217315047098,-37.37472696549085,-23.597333995232702,-16.945964201041278,-19.706593248837798,-22.45319164854547,-13.133263682572164,1.2889019473517216,5.850447015110799,3.3424466268073267,1.419640457730992,-1.2069924749897485,2.2357546915371813,16.366806177722566,18.74086140990159,-3.461423834452061,-20.06553269383652,-11.745392717729082,-2.0402973746525763,-3.2498203319012546,-2.797536098953719,-3.1033179998319422,-9.729572849145185,-11.181394178307535,-3.646577001475622,2.739422342358872,-0.8157597684568785,-16.385312808704107,-31.746607246379913,-31.54515141313413,-16.926524057833984,6.102068295349646,28.324915788381006,30.373637460148196,17.68673852247015,20.241242171223256,30.41418471133796,17.981803397369692,-5.548823184101215,-22.041766692401247,-38.30495445786754,-37.392510918835654,-14.664242911279665,-12.816864050733862,-21.993529764304263,-7.8505463695425535,-6.041324959276105,-19.477002596963665,-32.097055429130336,-34.533324952160626,173.56948820840444,574.0609198604756,500.4425616187532,-221.76246169905505,-622.889475908845,-289.2233418943837,-11.659907919308111,-96.69588927653558,-91.1111165918988,14.423308756895537,-4.6685532859367385,-20.607582298949506,19.545827537060262,5.3501444440732016,-15.60599727037808,3.0400639429287093,6.178995212243848,-0.9046676184530611,-1.379093750793814,-16.686334905566827,