ECG,32.043735461669826,216.04822770083715,76.50547931970297,-411.30785140555724,-790.8617689292364,-647.2794693331042,-252.0409839489188,-75.45502695534003,-50.188603907110306,23.784939973607276,56.552282882717634,44.290684667840644,78.30280369787386,74.82158887005806,19.498560289306575,16.510535016031127,25.246841481867406,0.007042725112128778,0.21762357166172208,9.561538294681693,-9.727829402782426,-22.96199357468939,-21.504911784065747,-4.843812725861298,37.950275392367686,62.61098664992436,59.74927445403384,81.9103034271566,105.5492367816345,91.54785956141602,93.02688603460425,121.18014282916076,115.26193638680027,88.19154740140334,66.61101391569456,8.706636845001375,-61.707643207892886,-80.31166455690521,-91.22572707526243,-117.42000636089502,-91.39305072388935,-51.188168956017556,-72.55510854219062,-80.7464372381969,-30.432780137855374,-7.5804891332362985,-21.406668004772943,-10.856976248092,1.9202495881756327,-16.300808276674964,-29.681443773770667,-10.103520892488437,9.38719702053272,-7.03243979490826,-18.56529352130637,23.745079800852682,59.99682862523373,29.3037708959012,-6.593842525290727,4.6478945714728255,12.975358762884202,-16.712742809914122,-39.59074646857803,-15.572563827803268,15.472238846894406,3.6311233767432984,-8.46034474824417,18.457785632148383,22.04635358833079,-13.354046877166379,-12.267306898658651,12.667543774408188,-7.217620900642791,-42.24529074344859,-45.13281072334838,-33.122484827062934,-27.4362589345802,-50.043239884283224,-92.20438370453813,-82.93398225174143,-42.502804165396846,-53.99074825138156,-1.709718737478795,255.93226832598324,543.164915557829,581.5758649860252,274.20459880757363,-271.69388163147016,-645.9628009890744,-488.09085746459874,-108.53966923037198,0.47714889978525576,-40.80071495722602,14.468744565040488,37.18682201664487,-4.687198659561239,31.485237208832068,69.13894615851838,15.004206339039712,-20.09638125621516,0.7980412699017911,-2.7807474502420932,-20.662284973276613,-15.131321353291732,-14.640332363006785,-22.106288939265767,-10.919596357618653,0.2587923232371221,-3.924018493711886,10.109448643233627,47.85062694313183,68.80257467497844,71.71336802781461,83.45543266496426,92.37359447534989,89.66053413294478,90.47917396646716,77.24580838210956,36.74218214258436,0.7976707180884017,-28.966097426517983,-69.94207395725188,-89.78291947185042,-81.72266294923513,-86.39567957435904,-87.10770091671375,-56.710761032915755,-39.5098780965438,-50.2051805222523,-43.69663460127286,-18.636230027325993,-1.4957001483025572,6.329729119006153,-2.2856023199294313,-22.865010213802115,-22.27052731917292,2.968699141475235,27.09004001744458,33.23981383233322,11.28615692429431,-16.669511881363302,-11.063401875421569,9.570908872902738,9.127703321413971,0.7468246756015215,-8.287920598412217,-21.038872727126474,-12.753142956576395,6.915356379514616,5.645225204386394,4.884154849415726,8.809832453143997,-11.71293462480276,-14.160473521836186,27.9105174669709,32.39096100641885,-21.128702013396207,-48.98098611218315,-42.26282663376488,-49.87312207077217,-61.79792093168662,-62.05585030457719,-61.79677747079321,-57.97202059345819,-65.56426280375112,-93.45357413274775,-50.932724862081145,155.95840267817522,452.8035425230345,632.4716598701807,477.4148917057396,-50.45252236591374,-563.3273549563855,-578.2604099063822,-236.90680430639583,-48.62817094416175,-48.217061520505425,0.9784828576344751,39.357819393566835,-4.437814376623969,-12.875529766306823,14.05486206112201,13.518377237066508,16.616432621660344,13.118065249273435,4.990837982435715,42.65880658964673,50.00577552991216,-22.715933548588445,-57.04674545007362,-41.82531058822668,-51.45455031540578,-11.87676580151495,79.08294505869637,78.99222204687656,20.394991082953617,25.55365297018598,60.27901364250905,81.4007546702128,108.45957627838406,124.56784340282576,120.9589310205338,86.2958853910985,-4.700781989566765,-79.26157236410894,-63.75581009001291,-31.24277293116893,-64.22346168513985,-127.75233448061446,-124.049063956211,-32.792285377642266,5.942864455607356,-64.19723850006613,-70.77600100676433,9.384263896648914,-2.3478264606414,-62.20832322055202,-27.652624615308447,28.31064291690808,33.630953887624656,17.41623370365503,-14.780111506089582,-7.570510413170701,51.691369340675095,44.47923737083897,-12.507617160288856,-13.17832621455373,-17.424355403284583,-39.25164989974928,13.002785448761713,54.63055929893075,2.3279678620338267,-26.9907924665116,-7.88754822301966,-18.18845676917276,-21.18459161267405,-8.950266852867323,-25.900037812955343,-24.545648113660786,-8.020227877432724,-19.471348596416266,5.920867347247167,46.157844920694735,7.2426740673093315,-23.17131685453494,12.69989464645656,5.073746823789868,-40.20040231540149,-42.159368107469376,-23.281240165483652,-4.623633530592862,-31.544462062536105,-153.93895844217104,-203.03392146686247,-15.11437757559969,250.30934822469575,448.7802736242309,608.383487541681,488.8029222618926,-128.13074703333166,-675.4279367782013,-523.8638167979433,-113.4762049066404,-65.01124394273856,-113.57855289517966,-11.675082354620173,-27.40785871174998,-93.95457616366726,-0.29054315675105613,9.188944158990864,-111.63983241647767,-71.83467331804034,5.013340540458955,-85.00599226443083,-101.72717524819919,15.841581077805586,-4.384994420221517,-110.81894812894029,-84.63990387751517,-18.295124987688283,-13.89817075817328,15.68227256439309,56.807670111343214,50.54861633517745,70.3073431772263,109.78322082332522,50.13915042091062,-52.983179582558634,-28.562937976035748,86.21227832823178,97.18193867510622,-8.555445982580608,-52.84810800112696,-12.407987311154713,-55.588524946992536,-162.44007427213026,-133.78357841584372,-35.160189049771134,-69.55775954324892,-99.54983164897911,22.70374865997526,40.376943539945145,-126.82573666588112,-148.95816421206806,-17.642067903061452,-9.462899150037714,-54.373466056732596,-22.861819314868278,-21.189970342546758,-31.122166083605222,13.249472239620712,29.47081384788009,21.881736868350828,6.886174405555003,-66.99684555180318,-88.1001115852592,-7.561917859599635,14.327138326354572,-14.196494894248396,-17.626628519760946,-44.312067150406286,9.474678090334134,133.43144744683917,15.795649460625484,-201.8791016448764,-65.76948856480143,152.4222881926322,-15.025004566705618,-206.63836183908245,-46.725566624505454,78.23018979032284,-38.36647593652955,-42.81770456490861,38.873199318986224,-110.89447890569367,-263.33175516322666,-140.3672945150309,-0.767536425264268,79.02322261497443,364.1632407657938,654.9185271736195,480.1034864571942,-65.57161414046001,-471.1767545217097,-495.0574844544419,-282.17767378608795,-48.166159396177434,54.3039247171091,-23.61623630641064,-83.69472281589734,31.117692383581335,76.39436337125728,-61.28686104339576,-59.07849721569954,109.49337853570407,113.32232037322409,-27.418146272933498,-86.2291947738166,-58.1442958729852,-14.712778157618633,-11.899849517296673,-47.37086868165967,-9.697345899871094,63.351500840586944,34.332469635597484,-2.474616864282177,37.754657500137824,25.580748401864142,-20.271504871561085,46.21492713031809,138.89226249396185,127.91391495528525,92.9449175433784,79.37417493107199,6.749942274902075,-85.95295489066015,-105.72409888866233,-113.15413432840539,-122.61590231976218,-40.66083890938898,6.000935546184337,-115.08609730952227,-152.35458654207204,-2.4741450599998203,27.041138048055114,-47.30894204279753,18.133867821774416,10.19135798244892,-163.4213703562089,-97.50778650586479,156.38381974595634,124.81071878646867,-72.77327816215384,-81.85524816251994,-23.80255163149589,-14.252395836220533,42.108350160617434,55.19678491775064,-15.158701442494383,-12.105095760530535,2.2413590413298223,-72.82437114934612,-64.26261969236636,27.620684011038307,-0.46300345770324114,-35.80192554359031,68.22577378960074,102.85334464935329,-33.35308033548111,-142.6679991531239,-127.43495199660649,-51.96607365895178,4.179693450100643,-14.650960466030142,-55.194883271752204,-45.96877410124096,-48.145975601293,-98.76535024423086,-75.70039205261816,145.92386828946138,473.8568616272143,585.9163820913222,279.64892587594386,-216.3279184969595,-493.50068296976326,-421.77166067561245,-215.50008411755633,-104.51723157316468,-56.05249616259576,34.04906830093158,72.68338644920308,7.045433156012795,-6.183607913707419,60.974961174521155,50.41146684478488,-31.263559962618316,-48.74505380469928,-0.8772318792302647,45.35294033822736,54.65631233606537,-5.336499846626818,-70.87399485384384,-31.05538344228762,29.33790972988575,-16.03771042037756,-48.47292960316569,27.906156488709446,74.08344634279678,51.102566581945,74.0703831927337,105.91768001082077,70.35039731073891,45.44539611968324,63.99648843578667,56.6626753620594,22.94286689893987,-7.52132042773208,-43.69084204882024,-63.56537898099254,-52.373152691711994,-65.5209715603399,-111.54350276091509,-102.2702602117923,-34.72294456745241,-19.829865749285993,-51.36161291658884,-33.89069861969533,-1.2699602280608921,0.5454194323123858,13.981826620470244,-5.08103544515685,-78.50633683493535,-59.69007703128857,50.861168883076715,57.45048767364366,-24.681500587011627,-25.310382064015208,31.02157908926727,34.26255705806709,3.9918276651007774,-4.851213301689658,5.444271212491044,12.788938219896751,6.322663429512474,0.3921295983597215,-0.5102981944035072,-20.5374327610022,-28.15906969360096,17.96085419313342,31.240668947758166,-28.127565125317407,-25.344814372659197,25.06756849984669,-37.096173005630554,-110.59734941931264,-62.70605178972277,-47.31064291605148,-84.7584423166298,-38.41815830370375,-30.384189166957107,-73.03270956693513,119.92431378338944,474.02512029295957,576.0005162715489,287.5290208077496,-207.9195037228818,-538.5865965113479,-422.7861908377214,-100.52619039187827,44.278579535623514,38.27822214265751,10.869703457649848,-24.39212711723698,-7.368293499654063,32.744348940119195,6.596613786816356,-12.399447574545906,22.622675233114478,36.31117635784767,35.44490532891531,34.24696582096834,-23.40901748378189,-86.13498704167768,-69.66715799107325,-34.32608304277484,-20.79199860467604,18.930144482460424,35.63081511247388,-0.5492582381293865,37.11369180863037,125.2239513021007,94.94394516506011,35.51187247075094,95.2427491124003,140.10842732442714,67.13311403482778,-18.473839813232992,-32.67472938080783,7.732397630216019,-14.936335628049893,-125.24863415291476,-102.54005818084667,29.081291664767313,-42.050091178484216,-173.02996446133736,-66.6394100121677,9.38156231580934,-115.56149898872009,-112.73857755693037,37.91148070408256,63.42999638081855,39.783981906658575,65.37307567229895,-0.38018838674057065,-85.0026594043667,-20.59527424572593,54.74879629757861,26.36422922624218,14.338025195014374,20.344033152297783,-35.816225495692834,-63.754867937841176,-22.69344507456539,-1.6636737487825943,33.40555020402272,99.91842331674329,42.795298023410886,-106.08008974323613,-105.82295418501403,6.731467906215146,14.443362141251498,-20.650870175751365,16.01484505683247,-16.142266106387297,-128.86912575513247,-96.87598345374323,24.431124832829465,-4.469712568404574,-68.28397019129316,-12.859980919104558,-50.40430350371347,-183.80541497974653,-11.353159474558296,431.9973356366651,602.8245757612037,376.13759763953374,67.3693010099239,-244.45703347810664,-513.0398301992354,-444.5232570013702,-111.43051868385365,32.757381041743805,-14.690316763300018,30.07030558667178,83.43317919290297,36.211700771856435,14.558024169855253,8.548228958333283,-26.649367368651028,-1.381386057624658,33.8259813949723,-19.940154904642572,-85.43738659427707,-89.87645723183527,-44.29153287987022,3.986432813975166,-6.1838853222773515,-21.094841619419704,11.289791697988314,7.4961013514901715,1.9462773486650207,95.99915052006496,179.30742755939298,160.24841151676077,106.3220537594578,27.38936413257823,-45.858514793546114,-16.062669727071093,53.8334495152804,36.02024009900394,-37.11645582754194,-67.46320668734596,-41.21615237464737,-42.11928712629976,-113.81508414405184,-136.07265116067987,-52.300231317007814,-22.565766179910923,-80.14706288821895,-55.82162311990463,21.759814325730524,-13.309330570795467,-85.39128095066673,-42.57054572328529,32.600563196260595,8.057635176726784,-48.88690420005349,-18.588192356717656,38.96413120283452,8.343116016274031,-33.49409927439972,19.9172093304795,62.585060443345405,8.619693083616504,-33.68622787163637,-15.188658539264559,-13.520633622825756,-38.625751166070245,-26.61025324803291,36.07924872786137,56.95272857134457,-25.238526543127584,-73.33947980901918,-9.37119388415299,-12.5185128116551,-104.98737166596133,-85.21316802556001,-12.500075461881252,-50.16142061859172,-73.70415941200267,3.2266465986915875,50.81042661708861,86.12847845057682,248.7772880108889,447.25557655353026,395.26507206981034,-4.6283775130956,-436.8896886707569,-514.9683312104906,-296.5074887346535,-115.91100572649256,-59.610255476741074,-0.6225384298088557,74.20063220004306,86.01001835409429,38.055886131853484,4.432543833426877,26.85393288925664,65.12321522365643,39.02329020338159,-45.26317525596596,-77.60342799738278,-35.75423272996305,-15.760339664631237,-25.27506870601337,-13.419661720552725,0.1259678890879563,26.25500565050681,64.1767193299473,23.87581395769269,-35.03771374642481,40.543250396783236,152.00609296879793,138.35037000269406,70.97535140168421,49.025859443471376,49.00031614940086,27.538599172999508,-22.757862203291968,-52.89964424583545,-25.32141063151391,9.320682094545763,-3.515590844815165,-74.66013619672728,-160.4475953557823,-152.80143466872877,-64.67177108589826,-39.98014642766315,-58.492767566839795,-15.169563923441899,19.29003804627565,-16.016454662056987,-32.76748531684431,-2.4764406445871003,7.581495820605799,-14.418388418395551,-24.0341627980224,-13.162193526526863,-3.1514704141369467,26.020397322407796,65.16012188948093,29.9785617167911,-42.88599997261938,-29.38125815361468,8.14901493502621,-19.280890742957038,-19.13495955515468,32.13882154439761,39.82902582156174,0.3662397654443481,-52.38451181941976,-82.47904452296298,-42.067376911048676,-10.063646775264694,-47.75095990562938,-34.266841584284364,31.112696802521043,-5.106348995965064,-71.80558331566672,24.081747110699382,254.1782467458515,437.7158987361058,389.6941823928903,22.446892768164517,-433.89595617201616,-565.9620661433756,-320.53578247893415,-58.402737883321194,18.41226967187449,44.594546167441045,82.11850015617385,52.55846330102358,10.941358069339662,30.402239117860717,39.984390083567206,22.703352688068406,25.889182014365183,9.89364875116646,-27.204192655472067,-26.86424573575434,-27.814953669717962,-59.659373264574384,-54.83908354236475,-13.522653957703632,1.8800137556788945,0.6098674532145978,14.696521791180874,46.6885029150055,90.07031584156499,103.76413556747082,78.29395921533126,95.5845391291358,137.31253891556216,69.4560593522155,-23.023514189328882,40.59294037416351,103.70030860201312,-11.719847436616131,-113.81405865759103,-91.6759345732662,-79.23165879348116,-52.36853356906722,1.6039383223130415,-67.29852134210303,-149.38624820694216,-58.93396006172667,16.759323917955093,-55.259647860384966,-73.18343055283668,15.206439908118263,27.93309646078236,-44.24334256308182,-39.09992176245191,47.584599493555764,49.14419975911504,-41.50454350976434,-46.989991274200875,36.9422718381505,60.74686405931989,15.668057759087283,-31.72919598497107,-41.589601627781455,22.603930231693226,68.74509509554466,-3.0773122295817252,-54.06988643322179,17.632270945880194,62.45583972743664,0.6970350990322025,-65.25467844105914,-72.145739398574,-43.436485760828276,-13.232052497156246,14.320483748097752,19.477570241469223,-59.35907880350091,-152.59233122449024,-115.31109384692982,-22.236329524763345,38.408382378654494,184.56985338610733,390.41459719021395,452.35787124679024,268.0561666752248,-159.0422345419918,-538.3695650832377,-457.2518897002267,-129.91032373769906,-29.37129843789679,-25.328986397018753,56.78286714614422,25.590860588809278,-35.420172402340114,42.90878877063713,64.69026843298509,-2.444567646205721,19.772596479859114,34.664334525340635,-24.618058355255577,-11.796241698777596,20.44937258545354,-37.29364999787812,-66.28878392213801,-20.69437265959207,9.594832341907022,35.84809202551487,52.20441900325155,11.691371526926375,15.164850305878183,107.90835806845533,129.885020100544,52.43111503922835,40.09214038557704,108.60648540977265,125.58600367404769,73.54038612042932,29.166896922479435,-8.893816142412472,-60.97724839094901,-62.77033297881709,-35.63241634411228,-99.83970062394793,-159.51976637851908,-62.08663888674543,17.047658743056303,-63.90896068049733,-114.86237945789463,-44.008843524162444,41.30864462640814,89.11650707689486,50.967647464859496,-46.99751075831359,-66.57654166594199,-40.259755714380674,-46.69023276245889,-4.71272017892999,53.08236393136798,39.150485690017774,38.19988395309771,37.657376626348935,-43.488415625681895,-63.179124427478435,38.87861440135693,73.00955496183462,12.744550653296482,9.021026148925237,29.416914258897474,-39.36246289849697,-103.19391390876777,-43.28811258224482,14.414879570348642,-50.59659136204212,-101.84412656562603,-52.121976210413706,-36.125191056630584,-81.16819143961163,-68.21447415307726,-35.47860492875246,-47.58659505485802,45.11192944281558,281.1312709211479,432.3988898128116,409.90484710199263,217.7118458685463,-216.32232381206913,-546.926629375909,-327.4057520927307,18.378889332503107,-37.037701746474326,-119.18012878238217,36.24703868425888,72.70283280450892,-20.128254479670307,3.622132415508819,46.614014206395595,44.62819449013347,46.91854745527313,-37.26281295585934,-130.94213439252857,-65.11266125527987,14.773078516394127,-13.327188354576354,5.330745428356913,71.62860302766252,12.715999529593736,-91.04502638688328,-31.70847688294667,111.15347086715359,110.62135275252729,5.221528329706555,5.65374545957642,111.35951094548692,173.9483957801661,172.75609826168477,131.6658190935367,29.765500133593854,-68.23931814181165,-91.42538669644925,-83.79999014148524,-63.619027325831894,-11.996943213751333,15.26336630097498,-24.812927091155025,-103.70658776174827,-149.0358690649405,-83.31454159883666,1.4739311803139543,-46.74358543998123,-96.84502328836294,-12.121365254598814,38.18150679621262,15.95673263013789,60.522906296101695,46.23184362676812,-82.72643209158885,-58.293467534044524,82.96261439535762,44.03357946406608,-49.53281229874544,14.730914126603707,35.77367149629295,-73.16532450069815,-81.50481067623795,6.622066189417168,24.35265756199154,17.45552143279545,10.945569128934277,-48.60470867434872,-61.955040332535276,-8.657264811401069,-12.636693995898877,-26.825779080669555,0.6068815058798211,-28.81362475165499,-70.41777366040665,-45.86313982126328,-56.67500442107092,-112.39846004658915,-106.83386383225628,-15.189695785648027,195.30823790871113,479.96600772703437,579.4677475101812,298.479509390604,-235.82810454061098,-596.3500207980017,-441.5775067953317,-66.38010097289494,6.545104262087733,-85.66586606394148,5.401188881381074,101.29126047098899,44.5976543006536,11.497444467361717,7.638808874889877,-24.601871108017782,7.853239312363229,30.110830369575957,-33.79021425904112,-34.85357461549653,6.0901644245547,-29.855396472919626,-38.27789451775514,-10.684196908160086,-30.170140924804812,16.146142236089883,78.74648185469758,-7.190772671452594,-24.179219312619402,146.26685526472733,180.42184216725687,54.10298285618248,68.89731213747348,150.69353688312924,87.80976982845148,-9.166472893836557,-22.599219042190413,-27.84085583085679,-50.99003732896816,-37.905745982713285,-10.706765263650716,-43.27901844807631,-125.68905362177739,-143.16662320696526,-40.82256924649214,35.55383298345137,-33.73895067940805,-79.47655837141436,6.612481862642227,6.303251392493287,-89.7763639243431,-20.289574537762928,73.21645359481073,-44.2490382054482,-92.95858674692954,42.62170387999283,25.859450389180864,-75.91000197792572,42.05817756889488,150.54188661312827,16.267629950966835,-100.0638382237974,-68.44849993660384,-50.220334817273844,-34.032972539265295,44.03640094240337,70.01008344718964,-5.287278817896869,-73.4631190989922,-60.83799460392882,-3.3605022552042314,26.506017653789936,3.303864156036987,-62.70189743294621,-137.44033730766947,-127.7809830265386,-42.27375574915394,-45.10604884406692,-86.37968138035254,86.09253925511217,405.9551924242635,560.5123444354718,433.6274513094092,60.57860153249535,-389.97946168657387,-541.4507268848594,-301.976881007623,-69.43479808743398,-34.45974421188794,12.95431008435719,81.58418292919396,26.591160836090147,-21.901780124063542,31.948059481100195,25.13747217026038,-34.00066536016672,8.603113510853305,50.14429328756562,-27.173105773690445,-84.65152114039614,-45.89252832249405,-0.5595090911512894,17.820257163386586,2.162490612552011,-45.030791967723154,-26.247303170563605,67.49952043066291,96.9511553337984,66.34808943168755,95.12982334197098,129.38062215877704,87.87031726729059,68.64913763551864,107.13266153874085,88.59732238688731,14.931697854395416,-23.290585370394613,-47.488133124052105,-78.74397176615652,-61.346185272807205,-28.521125386932766,-71.12430938804124,-137.93279486416037,-105.31467270546423,-1.8634357301435927,29.337043500936844,-36.82966198627439,-86.91849794761731,-71.32769084901767,-41.54262967235131,-10.407631026875883,23.49903682621475,11.110702070942704,-14.302288934715577,31.84700396693585,64.69923844486559,-7.842550967565149,-50.673430315274885,7.3615423682620165,17.819928432872192,-38.230778087580624,-29.200801853837174,20.887138361408688,23.403774296868704,15.037655060988246,17.464438032175607,-27.105309576264258,-92.06741188886474,-68.66618290870963,36.749225831002036,88.25728031965083,25.66232296609396,-60.48626415246996,-74.91229515718504,-49.00065563407389,-74.37580591249207,-115.33655646167925,-68.85792656677377,-5.773463580005409,-2.4167263761113773,97.72889346089077,350.7198415225595,519.6166972728646,401.81146323920484,-17.820097954062874,-491.4774898582159,-554.3474450406297,-188.4228746777265,55.20302826039406,-4.1668486081782845,-32.25288572548809,56.2959472574003,94.38628109862125,52.70031938998358,-23.817436979797357,-74.04731224242211,-44.8449071329321,-0.1002643038879274,-0.30247953441263586,-12.940116614898647,-26.534105242137823,-42.24332876295504,-38.03574002163688,-16.958036366892884,8.318641341627906,14.170986005519513,-7.581711342199423,18.101132671661098,102.75123426858977,120.50700728426361,73.28318794137707,93.00678505655897,140.61338774199353,110.71819355399202,62.63477616177327,43.535377294054506,-3.31973536355685,-59.15989112648904,-61.24117752399381,-33.764147715175945,-29.34148725859405,-55.52584468192247,-73.58576191705743,-59.8210956581547,-71.47402459108395,-119.98258957489995,-90.37344946196777,24.950518413847927,62.62139448228125,-14.382519736970242,-58.912848879674605,-7.356167846929456,47.55648889341876,36.313758511510144,2.894020900816292,4.854025551472928,20.11444537232559,9.654420424158383,-0.29809249484281075,20.306886813082635,31.680470437250726,-3.085373786783139,-37.253339552392845,-16.760076080085106,18.715366279167146,-0.00938813642072489,-46.55900615306755,-37.464178103874644,25.786614469025896,57.887170236613855,21.216967502038926,-29.901608799034364,-34.538886140738086,-18.508502493627027,-44.70081629844081,-66.86588419505966,-23.15319380014025,-10.625618712411779,-64.79054457713984,-60.509296239569636,-41.95433256049241,-77.78542538594134,54.72171060640862,401.5206551958508,610.6013847899883,461.5194016584033,-3.032160244556806,-516.0825978282417,-583.540823080222,-197.98966004089377,31.72414360824639,-21.463998987151307,6.71064980722187,54.440746584797324,-30.821217944392217,-31.998886456365206,67.35668308223362,48.3543717526686,-23.907691549519136,-6.076580973930911,18.545440877156935,-12.702118559225465,-33.10000263084704,-27.734293457332686,-27.74346432747165,-9.949280263607983,18.311679170794363,-6.764665437298854,-32.92656034681369,35.517950062542155,95.3734604838996,50.99798975334608,46.273062877093736,135.51471434297372,157.90984835528738,98.5705695677006,70.79459895379244,56.19602924184712,16.16828668849933,-23.63745225883829,-62.247482768175615,-73.06446791776678,-49.32409393106478,-75.34715954362639,-127.86180916720615,-91.04059771957266,-24.66936480910637,-32.995282182726555,-49.614172115266086,-34.40333177014715,-46.69568716601533,-45.410485029362015,25.04470871819179,57.80023568323183,-12.2855685007558,-60.3183972970277,-25.06119694107252,5.540562428236737,20.930801323443717,47.67507088534276,16.89275785862636,-44.56014438853438,-15.428580289731325,38.458094498511734,1.9461396459326927,-23.83819482438807,32.928057232851806,35.645314286968954,-47.97033814583433,-62.38405939546792,0.050927699034536644,6.1837818214566305,-13.63290651646982,19.745041823882534,20.566668766945035,-45.773554325344676,-81.79748165560683,-87.52294778903487,-101.86369447907023,-79.75291654903498,-42.494978512328466,-47.24977567847009,-33.39180749304877,70.53787572762153,275.5378600047013,533.2909751159688,583.1662042683962,160.98231085911772,-437.1432984813224,-602.9865478465097,-321.34061251258277,-82.77655532882669,-30.035820978407905,11.227414072132028,37.364040581533736,22.175030317057086,36.984482876158864,43.48660474611298,26.514411856053897,38.93891444246283,-5.296796765594754,-102.48262311124931,-69.37434462494372,31.82209711657841,10.852142271912143,-39.27427794476807,-9.669392191593722,7.352527992313222,-8.581384107589278,-1.0296189693753135,14.770906707812948,36.28795725994108,67.26691847168335,81.21057136127001,98.00837448263219,120.59479715341303,106.97750741867698,83.70963200348213,72.04900014864926,22.542185735945118,-42.1435577840676,-61.51091699884854,-67.62355738865685,-82.74820936410869,-72.50581901166098,-59.16974571057162,-81.97111302929997,-98.48876277856185,-58.36075220354057,-6.255250567274359,-20.09651419159337,-64.33405378337305,-34.28783392712421,35.73861093175786,21.326638811889794,-43.64397837719562,-33.51254300026133,25.87740399905237,29.282885955893747,-12.313865474935977,-26.537575773413245,-7.0229727526859715,12.582040191195437,19.8632865336724,15.613797286701558,-2.832696851643128,-31.501094147812807,-45.42445550767804,-9.832725638427577,53.39636890661265,50.252387762987794,-25.856008137507587,-43.52411771822739,8.116242169536887,-11.932997674877237,-72.45101744371459,-39.292642440275046,0.5196364383360894,-66.54751240403989,-121.2214312535477,-69.83187615036252,-24.480468112639976,-58.98633548862753,-51.46239610368919,118.40123366051489,379.61215570672505,569.097121682241,512.5969634644988,77.95868370956146,-470.6630462178321,-577.9633108334539,-249.80547437449056,-32.831624305197664,-62.239458261271956,-61.10062124388596,15.10970735660949,54.668609498728536,55.05884195721865,35.56634298324761,8.273369074239564,-2.900428747067987,-4.448445355393703,-18.27484823388726,-48.09647770212764,-54.97853616233899,-11.633214696724965,11.914376450927048,-25.874841440085223,-34.94685404339886,14.22667985081257,28.818364348875868,12.125392811935718,60.21971084417789,135.12194720675072,124.24818257170571,76.24204449963892,92.01789332775314,115.86882179357721,99.35683042938047,92.35648088772255,46.93572208898885,-64.44941883511612,-92.25398455877288,-32.78426241935893,-58.58751204603321,-125.88715892794585,-109.79505984789445,-87.91011406014262,-95.08086462344349,-49.871185498673285,4.663327955020378,-3.117377002299037,-27.095801523508396,-28.715711226177888,-14.96450738759798,-1.8454943723664563,-18.232004374286422,-30.383123458510468,14.601643832841846,53.904826875805284,25.70294056393609,-12.86503650001469,-15.96626076978256,1.6331295547645475,24.699295340553952,21.9553372238581,-9.634882095004071,-13.359991381007683,10.452660463758194,-0.2978075998798815,-37.46296881637319,-37.190897191462575,11.947038868239572,61.9769917407901,68.5029340323623,22.850140354240825,-46.731492468275604,-76.67326284267277,-44.38166827565949,-26.534979356099733,-55.94114513175407,-72.17725763300675,-81.78118466387126,-92.12667413881346,-47.214301293308054,-19.086223347538926,-41.31135689437566,89.16612499607618,396.7739569611792,610.5893572721975,531.9870007238019,85.08149562068945,-491.3118306685236,-617.1584457890435,-267.6747386781103,-42.96945392387778,-63.18196865915984,-49.72609307720919,-18.788562656425157,8.264638321405933,60.103514597381,4.256785042687708,-51.56201438421937,65.63936336394698,117.12590751462652,-8.027979213474154,-54.19080887543402,0.23092761248302374,2.1430773849312414,3.7925444521639733,38.105657278017105,-13.658492931340113,-148.7385703702066,-168.45632269214502,18.62357146244667,213.71942521381632,223.15027341975716,99.63521844887691,-11.62470454762316,3.8310340787422987,117.6344927690923,131.33916420975726,31.876308057770004,-10.104363158411157,-36.70765890076139,-91.19404694948616,-40.19263802742848,25.39849296580569,-59.477326462383786,-145.1133689177999,-112.2825252616417,-66.77330077908344,-46.57107506033408,-25.581228746993837,-10.291987962259444,10.379809864231365,10.802906846689012,-26.319699395699544,-39.39694554705946,-18.79925809842681,2.2174730656531727,37.99976646064529,52.522722426726226,0.5772937600955679,-42.37196054438812,-22.85574326767331,4.926638860184931,19.97929422080081,27.352312701156706,-2.0563574590304015,-36.513792951656114,-14.876543832326341,20.283568662914774,9.42974113911132,-9.953898168513268,0.5361253594400797,11.953781567475419,1.5448059493449113,-9.340305613778275,0.9748119230246459,11.989330442850527,-9.523718731313899,-43.15196759822419,-50.42334904490055,-53.75826762054785,-85.29217553176227,-111.08037064019597,-92.88171549132669,-63.28988918513939,-49.800776587996886,24.13669463814324,247.4472855860663,553.1549595592099,684.421295944336,361.76287291786673,-299.8885138827947,-685.4613486014968,-475.27531572476437,-124.58755408237522,-26.329151604206594,-14.005101094990621,18.114658951561374,-8.449270555102125,-4.1466837801010445,49.436657905716714,32.77936929655799,10.483577947356789,37.62256270255016,4.918680828284074,-48.9945937650692,-27.709668690136525,-9.150851237835031,-9.339248208871474,21.943825650971974,-3.9195570309498287,-71.62440750896194,-21.35354603643676,80.02915664581026,77.90356768928243,43.36763037418673,53.60395282405769,70.08730901895102,104.03003000257284,155.45290963183822,171.24670651409286,146.05410429226703,71.70509767559463,-49.33889005258039,-126.58281782388846,-113.79354102036785,-64.73426641913362,-29.62702918697917,-44.68922620654115,-89.94709058949292,-86.84126398479506,-59.41092937498374,-74.30768695621813,-70.80577877062098,-14.694972636141003,11.24173730539713,-3.685020151257298,-3.1913139573378118,3.0046948316660362,-13.67649066812885,-52.61296572247793,-73.32670263956877,-10.621333532544192,76.3041617648575,62.43582407599194,15.220811942360827,31.80341042276084,9.754563369486487,-63.35665042654128,-38.41501765762112,33.06965496953744,7.443433755691903,-37.48176658452155,-16.265322600322,-3.5194922154100112,-18.347356528925527,-5.02358797175528,11.695894879263331,-15.665553099022354,-50.13559329072073,-35.695526539485925,-9.239767769898641,-36.92895207737538,-72.11300221230228,-59.088986337466125,-58.755080839253466,-80.38185296226506,-69.79096397290792,-76.40010486259528,-67.83155115569383,116.27030323314273,407.9165219224719,586.3373592609472,516.6599449407163,75.69571652790948,-508.5064071787401,-611.5963640846235,-232.03269218145113,-19.855040970343858,-64.09864580869511,-20.408859050759723,43.36374612630806,9.272102842301951,8.563587612094782,29.447160815495902,12.661064699661669,15.503811363341645,6.247025730614279,-31.854064142812916,-25.569140795332686,-20.6851941850028,-57.77777152863395,-44.599536709707614,7.90965896319934,4.040269129427282,-18.468304732743082,5.883056222841198,41.939833494091296,56.1176216328651,61.43186959707771,69.00587743847805,83.3275669760921,99.1267709574555,103.90241708140684,100.16257674455369,80.67045262735151,22.674174028072194,-50.61706420213015,-89.71172924519809,-96.13441206382905,-89.30534726905482,-70.14562713992368,-61.69230233876675,-76.64979340483922,-79.3243577467073,-53.68666409269155,-22.991008570706978,-5.393337904473256,-9.8966296260827,-25.08622437481104,-27.199701591093152,-19.032459511996766,-8.63607990597837,-2.5065377205698454,-17.08968429719605,-27.013657732850348,-4.748012344014459,6.362883166109455,-5.884986817115248,1.3936149565698486,4.687184082832886,-23.138200891996462,-33.67627345090065,-15.37730605877535,-2.5337932066086637,4.39758433388743,0.7272585666078228,-17.3178373335144,-15.22572255113678,9.695271826200745,20.902768331652602,10.242840433481014,-17.29663254431873,-51.79916062144958,-62.70782773875952,-50.71431476058661,-50.431632570860046,-63.347072103600965,-64.42896279959362,-51.61894350611473,-54.824598355705405,-80.86125875624028,-40.32065795700177,157.26077524479265,428.7548016659685,566.3485787009569,389.617766960504,-97.61391588360902,-528.5704944581903,-497.416227560826,-175.81141204726487,-19.621838602026564,-36.6265434620507,-8.705162937649952,25.083286453752677,-0.700526535672779,-4.8700898393119605,21.92269546124397,22.585332737774415,7.381197874701072,0.24957156026960625,-10.832856264590358,-32.07060171045761,-40.7294585991397,-16.43443345567434,12.997116208689436,2.786301063518376,-28.379075085632927,-17.643177136155543,36.23740275456551,67.10714376247799,64.03775634666346,83.37793423479306,114.0745152201414,98.9028733724368,70.20826673327886,82.28291311037285,95.70919466633751,59.2650647647845,-9.626828849836198,-69.21932272653085,-93.48084472832242,-84.72267336444246,-72.57951201490705,-78.20385169612751,-93.00981947444328,-94.54619905529981,-66.60107863490218,-27.1591476414915,-29.135979186049468,-71.87086268931525,-68.01900628854409,-1.6693300292802036,23.67275559265341,-6.638823026676327,-11.018691852265654,-10.715680262902055,-37.35732890547999,-17.93543099354409,27.848219489648177,4.970127304486439,-22.659134460485856,20.357495585219098,39.49795000473553,-7.4194782003071715,-25.987089344841202,6.80067668748602,33.287741309276704,23.977204524832498,-25.757840229874148,-57.46789619051801,4.9558398008711,69.97533938170972,6.672399793032632,-75.00469014805921,-49.532920003481124,-38.44897231240047,-80.00050278948999,-36.866639658763944,6.578217340721871,-62.89030399718282,-87.78700793009494,-96.23563793367342,-223.49044577720318,-145.83421369741006,321.12376888174583,716.1068618103668,685.9298820864788,246.17900578682998,-399.3549365281062,-673.4011778120989,-344.8089755898368,-45.76668603278955,-59.67743365702476,3.259644562605331,119.79146909500844,59.93325000972151,-9.273874627000303,-13.785906478322286,-50.27351343564136,-59.435399181224284,-35.48437670927359,-17.059458654152703,39.310955986953914,51.97413058314166,-22.733322582461412,-23.79341522036106,35.99420796451351,-6.059529709537644,-67.23561556407844,-18.620226955039648,45.722438084741064,59.80331425680502,81.68785337256588,100.93544850614357,94.08938844556312,113.50875922702132,139.1116761378591,92.59838575541238,16.11428377179405,-5.780528151706936,-1.1187567599602684,-27.069854852174792,-67.67025638504171,-88.36940481142724,-98.36660696430812,-112.52811929496323,-99.59485560920515,-52.32988136732122,-41.413479012201314,-75.24068921478118,-57.536310071459866,9.360975036363904,16.908373541511562,-21.351824640025388,-9.162545185334103,17.164323723254967,-19.27617573043673,-49.16701580881819,1.4531948163287396,53.212232183264895,34.01415951752908,-0.20684259691836804,2.2084944348019793,11.155617091240043,-6.478601306912365,-28.677209113949964,-15.574127352883277,17.984621900903328,25.30765388351132,6.318244923441083,-10.207617274299437,-0.7567034442901539,32.77807198792117,19.085322142613947,-58.293097547236904,-63.371975825716156,19.597012431032578,12.46249121423358,-67.01219805884358,-53.13561647703216,-32.87196467759031,-103.43663220600162,-98.10313354920999,-12.789017345168427,-29.463975639909073,-16.35096237389736,214.23176465394693,485.66902200293384,568.9097451243063,322.28290223216885,-254.44000779924946,-650.9677842591182,-432.27422751389577,-55.215988459889466,-12.319155197198128,-54.281759304128606,18.95682606765012,36.30030132004014,-3.1439815991629203,-1.7374908416805326,15.58413114341558,42.831987011602166,53.72907397802351,-2.0024933385357393,-61.812703357876345,-52.503959448629026,4.597873798625116,51.08174711410849,38.93146391813475,-10.546497412547165,-31.66940834372981,-16.203133468166836,14.99730704684556,47.91348569260531,56.72264532484846,53.8401633841619,72.76880319245184,99.76828678196964,119.90591008551746,130.73366478332244,101.10767576677998,25.80782445511951,-44.97447400109845,-71.4623963299621,-62.156180167874496,-59.1020945514731,-82.5828372058562,-97.90336908895821,-84.25678797491032,-70.38137967475666,-61.904474217182596,-36.92204576938201,-14.467000859646163,-23.227464173590278,-38.15545990918402,-30.180822311522295,-15.312693140455984,-6.117768814232221,6.202787679423389,20.36841869140975,34.44134779740325,39.11874754335352,14.4350448572841,-11.355856772212913,-0.3859539742251865,7.09771467034191,-16.488774568518075,-23.616294922323092,-8.82562294536513,-6.192557771282793,-0.10540838987303047,8.418703835068857,-9.961663049981007,-17.054355901900813,15.77253478420147,24.494831525249328,-14.3550005840108,-41.842674643909696,-49.211757720717515,-62.63214337208208,-51.46813461797187,-11.501335441782786,-18.869886607740703,-77.45016849670526,-87.03497371956281,-54.555613729941655,-71.2700866431891,-46.187850217217886,169.22043937562574,468.52280675641634,614.97126280694,429.9592181581437,-112.53270579287638,-602.8891099624382,-530.6355288752657,-129.65928482636707,14.353131707202408,-49.603311973245376,-17.95561392377519,26.863717271741027,6.555494467696224,19.254612348773968,26.639241873503586,-4.264098723501705,17.582115212731882,51.75822650686713,-3.8752249600502395,-76.68332940938166,-70.13927187121834,-31.976292560700266,-18.126377041283245,-0.47995506830788237,26.02842015456997,20.479843249519156,3.9907254315430265,26.576214718636415,59.37808724464854,69.97531899796068,89.06582221615915,114.4537789965787,114.00400233266626,102.42492633707568,86.70542391369685,48.5833035127199,5.0262836789467755,-30.31511850282619,-68.71333090146217,-90.830311625005,-80.97320481488791,-73.4954247603452,-85.73808337821536,-84.73548253649588,-62.049209883202366,-54.060372326342964,-59.54086638902125,-43.03374784809845,-21.934286719681126,-19.111050362245273,-4.60942218883946,9.049184337436948,-16.699642415865796,-32.29517451301565,3.500765064867963,36.37006855539892,32.289472662312086,7.214151314141137,-25.778098020803842,-31.67962975714054,5.605630985685229,32.32806309164178,13.257848434903691,-17.482813239683754,-18.05820519871353,8.486128646845865,14.265872964427599,-12.960237912166601,-15.690339057961395,11.806725070257576,14.293020134007621,3.916845766096599,2.38592899198974,-24.283481110479407,-48.51884826546488,-29.6708436495418,-28.581896444859577,-59.75889404758503,-60.81176295962269,-59.876571784543245,-86.26335976569325,-84.17225805740455,-59.51470863408025,-9.521134783844893,174.34209870820013,474.777927861409,662.4522283191318,478.46075831595954,-114.4352538230794,-654.2968807954542,-596.0517569765952,-178.41342394806244,-16.51596157404292,-67.9374719099418,-7.578663571521652,61.45702402271485,18.560741740754754,1.9808734860679138,34.87747026640731,28.19810914535617,4.306648576930539,4.376896527655287,8.778073872145043,0.713909213197848,-13.99767917721118,-21.878842968346135,-21.0551674710025,-18.770001680262304,-11.010849482107227,2.5486996805715307,19.053329469924584,46.23350719203271,72.66986478379694,79.64955251989294,81.93706770531227,89.23190012646083,88.53540304347169,86.61268121139437,82.49681118958996,46.94336853552009,-13.354044995101873,-58.09067915605955,-74.22757444157288,-75.8048810299816,-85.36012336323071,-103.79580131216878,-92.91468795661874,-52.36076779194843,-37.502486794767314,-55.25121517513698,-64.91751041818203,-50.74994632362121,-17.397166810092678,4.122817782463542,-13.738576474579276,-24.474902532312523,1.5317291471373942,9.499364685822684,-3.5756690816305685,6.768641882240978,4.378120894295968,-29.313032290695734,-25.47575448688019,11.37141293890908,6.728962427270741,-14.138832721054072,8.102279917747937,23.95933980688126,-10.420222216302179,-29.257955194212013,-7.866447788493005,-12.638979969012517,-33.68495221262567,-12.62737805637903,9.35401347404861,0.6928802644859431,14.849952189146903,30.958861599672677,-9.157160122438441,-47.991334799655846,-46.29826790911649,-58.44896537554348,-69.9067086942522,-50.301556861425354,-54.097231669967385,-63.75403775016757,-34.238511141438536,-35.51214910694872,-21.12185495346241,162.94161327122424,402.95496812748513,464.8481323752774,292.0263148599025,-108.90024346748362,-523.0985146507427,-518.3933344152576,-156.44541735679394,30.37678944006563,-26.547404128590976,-5.469102337963626,69.74091942105876,28.63683176343889,-28.295067338726632,5.311384611162362,42.36038103868771,12.30033723611842,-25.76466658685879,-9.664997105675877,12.699130199155258,-14.465381116035942,-33.54736054555631,-16.22651631068181,-33.86664844679626,-61.82288915841369,-20.69185535306678,33.14724910887131,53.9578155382666,92.7668627418075,119.58743017678324,89.34822958857848,65.4247896867611,77.24370879068239,88.88222702678492,81.76051842329953,44.20225616703358,9.408866221123022,0.426452795346524,-52.58462226562976,-127.0767426356129,-112.458631352623,-73.4963145799958,-104.18861887820916,-112.85464442276076,-49.148270243640795,-4.916176288836567,-15.152551755594523,-21.58044825926776,3.0466879036771815,2.28380151325306,-49.54300897116593,-57.825042359969906,2.9710378948596325,24.04634375281568,11.669996541643975,35.98802117034384,28.55434923660513,-21.631648655351547,-11.161637826139401,20.42528857673095,-2.5670537510118656,-6.829298275301515,20.035957725054047,-10.058729941864136,-59.8483659105728,-37.441203999785685,15.249307286847497,8.672022991905926,-43.4639598249142,-60.30408328104671,-18.87141757661537,36.0142522626869,58.10893490977493,17.84789598167664,-46.991887617536044,-53.33614582944227,-31.13605596405948,-46.75134162792371,-49.06671212599877,-29.734381149189304,-49.7801054256383,-67.7788318579182,-33.123357567719864,63.88044150129172,242.83694314708436,390.21063285231526,349.3682210265596,107.446221120128,-285.7719580658793,-570.3091977765743,-406.3859563965202,-58.150933384931704,-4.659221991249062,-42.28934692885711,88.78667695724053,110.1634581329328,-13.54105658668995,14.338496872730392,108.03726608326829,60.24194229944723,-17.895415108108587,-30.59237004979257,-41.490982922863495,-50.31012329858731,-19.410545165557302,18.30197691198654,13.094090019686295,-26.054809661333618,-43.16662983980996,-21.525428977944777,1.5892617106440863,19.405125689263013,56.625063804492825,94.86396428737262,98.09332956602154,92.98514413768704,113.97397823804744,109.46852952816589,54.392978272417395,31.599025088328702,37.359845133792355,-32.132029447476214,-126.48040366758083,-124.75096236568501,-79.49961939159263,-79.77987200556183,-84.01896582172361,-44.15456242365367,-14.15821340996812,-46.91578917836791,-56.108091896517685,23.020928721463896,31.035131722073096,-86.74416237922414,-102.3764636148488,-8.291255706508675,-3.9314130531860556,8.505175352605459,98.39212448533212,50.99962600216366,-47.6995752186604,24.253709030395846,21.318410953750096,-154.81852326143354,-104.28516337373084,131.0515749823258,101.10026882566483,-58.93984810086215,-12.01167894227924,42.6518606888871,-48.19041557639808,-76.06672089238997,-24.13524949275487,-14.990583306537573,-2.610635018357307,11.221151846401131,-14.317188921675612,-1.5382630587642225,23.11519826871908,-40.274609865281185,-94.68349101264164,-54.56419166187976,-40.76958621544977,-73.77593865243743,-16.200889609436615,69.4471794026692,34.5734938648477,42.0398821403777,257.1910660710287,424.044990378825,274.5904042031519,-101.34439901001474,-470.94591753575963,-566.0259565580762,-286.61031879039547,24.8822002859753,81.8416804392257,57.12844466158363,73.85129801413953,47.065786712357266,18.149595845806665,24.985877173952577,25.034844738273947,50.1129039702373,55.41540407894212,-28.795098121497453,-77.82517500433431,-28.26103316957629,10.169942406672195,17.78150332303816,8.523185598740874,-39.745181413022294,-41.54355805133565,23.125665987263375,23.672430966525493,-11.303446112134964,35.45888973859627,87.70253289388847,81.90912368494645,92.23382075516501,100.9715361782488,69.75868659623941,65.16438204501154,58.19802679571139,-23.517463938253975,-87.92807691599748,-74.02274343344533,-58.96737747958786,-56.09813294499039,-51.22404660423375,-72.1139416002346,-74.37846296794916,-48.65600125173485,-67.92990678294683,-80.75183543228901,-32.725576298355946,-13.142544547571411,-7.718450512627864,42.58721019959036,31.67920154203334,-38.65654656799944,-41.06708396796412,-33.95668510029059,-44.487271947953005,43.442526099858206,120.23658404233704,30.246806539034957,-58.40641810829534,-8.704075575125712,30.20161752309784,-37.337237455079105,-105.73811669809862,-81.09252431794337,-10.398994719341058,26.93697979469145,71.7614761615134,139.6943012481389,72.93005424379176,-127.48490990728263,-193.0948554289205,-95.12617729401349,-46.91734169732478,-17.999135364501257,51.059895308393905,8.77475601476884,-70.00069249268483,-18.59925547995929,-14.036830369580045,-57.8115912015533,168.699629022323,517.0645557056254,516.5327199862023,125.04248614356098,-350.20337142169984,-553.1768120786069,-354.614695795907,-118.44482319960919,-114.37647199536562,-72.87329517349792,101.42621457430116,147.89144976549076,88.48637376040288,77.35378836847362,41.284400547354586,-29.28514565190747,-40.29075983453614,-15.813875434318803,4.860188459097489,22.86804219826312,34.7387832494681,56.07005513242666,31.09616582528704,-82.40297358149677,-129.39801864513484,-28.34045597423884,65.25935545475112,79.83761581968702,60.10465759930884,19.84392927219844,41.4249822421485,136.95500775327739,146.92094859637442,61.03635344389539,-5.971006549555408,-50.607501182045254,-39.671686971408064,27.286078348710806,7.414560532166043,-70.11439604874278,-82.15984080441436,-103.1154212390831,-130.4436870551438,-72.74148358405131,-36.099948957692575,-51.774781845507746,-16.536910903142136,-13.044107429587271,-60.40729116257689,-13.026485951273045,37.06765013195567,-18.479173952269278,-9.015189870523077,73.00107941602813,29.907869660874844,-84.43330124542949,-101.12929158871907,-30.441796201288774,45.20517395398822,56.99600712808241,29.350955049858435,70.41361933927232,94.79141936042589,-26.27696375976528,-109.0583532775003,-47.098837644870756,-42.67440969322283,-84.68589722786098,-6.4141631332685805,72.44432694896781,42.93350033116042,-9.069327231855873,-77.05326811732333,-120.50174669908314,-54.94124206401832,-16.542557520610814,-86.35872099290982,-90.56871155250745,47.314353457013866,268.89887009709895,500.0684681874901,514.2930111491231,148.65223701767587,-360.3275249595514,-605.8193102722582,-439.3994316296015,-103.90995221477351,61.19052481098294,49.097979980354914,56.402401017180104,79.54523275231342,30.822665743265087,-33.78269574777251,-41.17120139971888,3.160423695096748,38.52798143128355,4.899075223043584,-32.35560653868232,3.4669952641320485,4.0950081445656235,-72.77105337864006,-47.680530837369865,77.97461070256932,75.96632672631722,-26.359622875663355,-18.87748646300323,57.034183141153584,66.40093786804037,61.62840008649606,101.28487745597772,131.84377493102096,108.90619186619332,39.71960100709368,-7.705787575896247,11.156084940095505,-1.0782621240475976,-60.20437156111125,-20.236801341306005,16.29619535358161,-145.8530553522249,-246.30996743786523,-65.58176539558775,53.99235003245271,-49.126415362990116,-77.12457453031774,-8.11742026316152,-27.631955859896408,-55.8069353738369,-42.64645587679645,-55.74471558425324,-9.43843446617611,94.86180725422469,86.37782662239748,-0.3045217387810055,-9.504818021898496,26.040101501606674,9.796615557989629,-42.39763655438152,-55.16620068763422,-5.156599867496293,28.29804679517106,1.1375475904318062,-7.513692397578515,11.711269859935369,-12.960599804635493,-27.852920544191306,9.748419738715983,-4.98959047734121,-62.10760344169371,-42.336872118827294,-3.1759378426287697,-32.12741693145685,-57.29696259347269,-43.43439616436591,-28.79157240035522,-1.8895422651341125,48.89070114067753,147.8788261033027,314.3713920219824,403.8588132024118,224.3199771904841,-187.0270120723352,-526.145703599561,-470.6918607717952,-127.57450799554819,44.63835320571324,-12.614694323114321,13.358730336705282,86.49638839580268,41.05112005535679,9.075934870876933,17.006731889090233,-33.982238808885064,-12.391195183709268,100.18509595130024,78.01136594145495,-59.42121579664337,-113.43441591423557,-68.37332424694372,6.812690799292795,51.100202324281696,25.475709928135498,8.273842866237604,35.65791360450433,21.970119971103813,-8.1416974221472,26.566279449221774,84.0880311411102,122.6808283759444,136.230842353684,107.81399850151845,85.30850567930977,65.53313309360044,-35.809217197127644,-124.56539262369168,-69.03624962764654,-1.4796301770261273,-35.25337921275095,-58.607767953427434,-37.87292230948984,-54.70177820952493,-84.47958798753034,-88.17792421476022,-99.23673279800568,-85.49436732233502,-7.630351534526408,47.110127014215834,27.514051825378942,10.131795654088258,12.914435779741002,-6.377018881588771,-22.406728761753776,-27.91651378521034,-30.144312369205633,27.485158856681284,87.61639789018551,26.33536691198482,-42.54123615669215,6.455585035625817,23.75447469108817,-48.188865104664586,-43.88431623828203,25.9477270709815,27.976112272212188,-1.3218370382830997,-17.981280833104165,-55.07127963241655,-56.958572784614134,-1.983526129251171,3.1691935376125002,-48.57581839397628,-58.969171517916166,-27.395531220191174,-16.792257101446744,-42.89285997501567,-38.745267368255924,117.84971735170512,383.3976445513921,470.7654949180548,204.62683894473474,-239.92736493932566,-521.3083122572729,-414.075166817737,-50.47198523015381,144.71210847748478,13.923644267067509,-112.65801724440595,-22.662284798349646,73.26911433539237,56.81066806368899,59.53769561068357,55.1108323269285,-30.82205979215086,-38.15071480548826,54.02302965185717,12.18310546997629,-120.9344534544591,-101.60026447557152,-14.538273812143334,-40.7970127846268,-59.95671308829348,38.419063983174055,118.46080112301458,95.45712467925013,61.30071808004411,67.12277790116617,65.91723906748996,56.53917771071849,76.68199429897507,87.25255548400811,54.34362034499759,39.53202320743075,40.40232370899584,-25.670304012355793,-99.27734360732957,-67.37897342463775,-16.608502930369433,-74.51350282995863,-152.999661062215,-113.25379472590649,-22.50027119677299,-13.274432680948212,-28.51425634843165,25.465024812047368,49.85233810656978,-21.818570751264176,-50.52567973776199,7.6558653001630645,7.942249281319313,-51.863931280530764,-23.811743149228157,57.49847212228975,35.588329060212715,-46.59322692751473,-54.13232646215647,-25.901028855034113,-30.716294916385316,-22.301444611855118,12.474031973698835,40.76047287331643,55.97571316466633,29.461477257207495,-23.977241576688364,-33.811297685213255,-28.154370038656264,-61.23029280382323,-84.4074428823191,-57.46148570328644,-10.805583854333186,-7.089608621307754,-73.53434515499927,-109.32437417648723,-48.56076689582695,10.448253068375273,88.21782211265095,312.7689162638198,516.2529751933589,391.7399890655536,-23.03584054944693,-398.9663675294613,-487.17186044896675,-308.89290785811943,-81.62531384188217,19.834946471673657,8.514162812174831,8.133387263596425,67.46726248909567,91.37489321085673,35.7767491590459,2.88888979771102,11.095209357012456,-27.311807914756677,-75.76712616327693,-51.31971395149152,-1.0396712901995109,7.938871512652062,-12.28074809182229,-29.043987725523895,-32.78267378638738,-33.83101889637963,-22.702871674820337,24.14697500147206,72.20286850654445,75.56441606369346,65.85897130857434,79.93501302499241,100.78252251847472,113.83294225329183,109.40920828703227,76.0501140930717,40.34450709036274,15.442253673482869,-34.84574542250893,-91.54116551557243,-89.76140380283367,-61.732645505333,-76.96158253621914,-98.92802581778896,-78.60705113584265,-53.952956954087,-47.36779867901811,-31.720458526123487,-15.603286630222513,-19.88123610336354,-23.57071972471278,-13.938240786133456,-11.706696935726924,-22.585183076435662,-25.491287554301245,-11.197795900945025,1.257987076276148,-1.8676534613724591,-4.10061942297054,10.848889196783446,34.4687887625044,43.342934634766856,14.78105840881484,-29.059688505246903,-28.162817715834993,1.708222567421263,-14.792533941309285,-56.10336493497753,-51.169676512660544,-21.42121224319635,-13.572728871389241,-25.424043658288262,-39.898655883165965,-33.44686895278767,-21.417872995836113,-18.600237196407754,81.98476898716063,305.28690301886905,428.2461227668448,304.91945743398975,-11.088908809537074,-408.24014563921634,-586.2638067461899,-331.6013916860106,-7.1693627576143335,28.513533464722126,2.8219835352348177,85.0836016359487,90.54066861372061,28.214300946377737,34.28779539431613,34.99582538201492,-6.874992007929924,-8.777810039233104,2.2720367581320593,-24.060445613035448,-41.32863450080774,-29.072399725113666,-20.110757903888263,-20.037770641372646,-11.084348298794099,7.658135909592797,17.48827495376045,24.045013997779662,57.354807712431516,92.42877705373853,83.29854069154558,67.81752206095362,88.6224030387755,106.8677010228109,96.1318325716174,69.033827307856,20.08992036909531,-36.82539848835638,-70.83118903802702,-89.15375881550955,-98.66166055178468,-94.08354175487673,-88.32841195284793,-66.98226397614103,-14.228939621897766,10.544321115724628,-25.824968963208896,-51.43173329574342,-30.034273968342845,-12.6415569299227,-15.889718403735024,-18.695155851162205,-21.324258648247998,-6.538311547689991,33.87739411101736,46.16864087409827,17.442456100654073,1.1255502247982854,-13.0109664338732,-50.8402016995112,-55.01985030466964,-15.657946500075868,0.2306335535916979,0.5273213057681012,11.130507137934991,0.5116767624899734,3.987972904746003,51.34335938398986,38.2455434422096,-49.644459403009684,-72.28141209952526,-33.4600183879114,-51.404037638861496,-88.66291710014909,-44.35579697676583,36.341247702771895,45.78528808488462,22.54245467148023,117.0381358996172,301.2121001449785,354.94296734854413,181.06967148549035,-154.536382931632,-488.58303983409064,-525.9636616623186,-216.66729017768978,48.97348765628795,69.43221491369948,48.26317951001816,64.10416240926645,46.80042195383959,37.173241307402094,42.21329627766302,24.06165817070297,16.000751515030377,4.4559709101611205,-31.037628940664362,-18.708933808526886,22.882276772345534,-15.551120916853797,-92.12822432236126,-86.12318829317073,-22.91409359262093,2.6339653226290505,-1.3664376221370311,32.75107709146983,104.341067543232,141.43626787548638,105.30452255014345,57.18769005230156,73.72972005980515,121.81829055516059,122.66786081404877,84.42558353691757,46.883481720379294,5.681656152464228,-35.258007832122274,-65.55404479428887,-95.0139085758292,-107.0187114835666,-87.2100978390694,-69.26666662822416,-61.4329631072095,-31.84887682495788,4.65516689783464,1.5782847606562918,-22.28785067414912,-1.6430932828219085,44.03484704693954,25.634838185471153,-32.31309008533019,-24.761015386078164,23.778940184712702,26.4227154535182,3.769859986507828,-1.921977186846732,-3.133896751925155,-1.495388814401272,2.8121920508919427,-9.246411824169126,-32.37125504600469,-39.840166595942264,-15.87598750399678,19.10918533012007,24.4531439581495,11.60270569727014,12.922982046597333,-4.016594283003311,-54.915625361184574,-73.39085730871636,-36.27155790257578,-11.995003095952214,-27.043849066051678,-18.823284604154125,27.048098279337086,43.186188010071135,57.98734468763701,176.71747847505333,339.1106327716222,353.90457683403247,103.8703050978331,-348.81184887447847,-653.7416701126205,-471.2673630634323,-46.82010491340699,121.22896438799074,43.610754917190306,-1.5819864859086792,10.139901795108916,25.703207768057332,58.096115844178534,61.623694403389464,22.463954514501037,11.28737515174509,33.94758305085398,23.809128273896746,-29.59741869825306,-60.03002567313994,-34.93922449510046,-8.417614737319887,-13.389595187950455,-10.534812600989442,9.554265568175126,15.211805902589585,20.63605622378904,55.036021832562,91.47724443256345,99.05113877728827,101.64016785780245,118.18570903095087,120.64916447891801,91.81507240779325,39.63916011670248,-25.751724753288755,-64.44027885629635,-55.16897819570054,-55.80593434345168,-88.40993295412999,-97.97530067421201,-79.68438705320334,-52.192683422904935,-8.282074137285072,-9.080880436313919,-77.21912626954631,-80.7778047442597,7.965820627229483,38.487625198116824,-4.378876839023093,-12.635944503757152,0.6883433459405843,-3.272131653114398,10.377574092166338,17.604172515732685,-18.288721542832285,-31.551717963163803,1.4352994187607422,3.2537064952821275,-23.53397479708047,-11.48780251367239,12.329050540383067,8.779575354918727,13.07167135833635,21.999960903709155,8.782488121027185,4.610979779502019,2.622981139396799,-36.938503784938156,-69.51521869062258,-56.06192602180987,-39.28131491537839,-34.00252206373668,-17.61523360479504,-6.226815169489242,-23.598076459978852,-25.849831058854242,81.01877892343825,273.77649210553693,357.2629640087217,204.51059892886872,-122.3140208080994,-452.52608856334774,-529.1107656152119,-272.6151853598034,-7.080627678390613,33.982408551937475,32.62423301236693,88.08073543690512,75.1177971997532,29.19217370799693,47.073864500060694,64.4474663414971,37.54378759092277,1.9434376474190227,-25.316945144695904,-15.889513921739708,17.775358430543896,-0.9038363471220521,-47.41204287207668,-36.41112123398318,-12.891532786409945,-32.25905330505883,-20.60761984710506,39.677337171665684,64.60929142505516,71.60592987625228,113.11073671515842,123.14302679523612,78.9103235783105,59.683152802378686,63.4617534867117,46.37269325488752,31.81195637313549,14.283681748519827,-28.38818078292229,-54.86743936808609,-62.81832291448485,-92.51781234128671,-109.51749036081866,-83.49495499856545,-60.075869554042534,-51.583177548215595,-28.147346087815542,-1.1636655431240008,5.686070243987025,0.7996316569005089,2.4821325644264736,12.954225114404398,11.516706253183035,-9.907745114370742,-18.91912926509862,2.0639573107766456,19.04196360081926,7.470214830531626,-4.313646737703625,6.233914905565985,3.3435219015230615,-27.81422076465381,-29.49167940035453,-2.2310529579677194,-17.206992971397213,-38.798315462960105,-2.172474807570314,15.214901073255337,-27.251922428760285,-35.06662017477345,-5.8797890118218525,-21.57460624541053,-50.77864199768402,-36.46405641344032,-17.526366660639283,-15.709704999271,6.5492560341197015,36.45536591235861,44.31351272578555,92.48307154108542,209.3491636358801,266.87359350611456,155.66406442329384,-113.94817609362147,-445.51466838720137,-568.8999351237845,-298.5518294317342,50.98849110409949,113.77726179989595,46.0685027653896,76.89432366978097,104.19850719134817,57.624994245713395,25.844374177072144,27.327806931633436,29.780017648759486,20.345006897596896,-10.849563046313135,-34.949020306011924,-27.40117152437579,-17.177187584548378,-13.60195281019925,-3.7876896862414107,-6.5593483870387255,-21.763552293472994,-14.764374257938847,9.737066286971174,29.549973177283142,60.31611285857542,92.28592306295029,90.9436813115648,97.37314276891755,140.51211070866952,131.90710811474293,45.38282718826143,-18.379520552220548,-40.10247764025554,-64.40976681774997,-64.27939334572781,-43.70034256159588,-47.892722080189515,-45.51052682224554,-25.72019124510123,-44.54178271329243,-80.06718312707724,-73.27534661289896,-50.44651220761599,-42.025176749653916,-18.719515457594994,26.26853852787128,47.654769336384504,23.322822351828705,-11.347526129342164,-30.218253217373146,-40.344108902822846,-25.400378276035788,16.70567779628958,28.02179497479397,-0.47992448549990385,-3.6992814221824775,25.58639306484759,33.0914653651107,-3.6569625282515723,-59.23477171045947,-78.32535029752795,-42.074184934119614,-9.505023074332689,-6.092108568301525,9.951119310063813,27.39060957664324,4.80651492411118,-32.67457055701875,-41.75115167420974,-22.301019098362367,-7.140081586734226,-9.245309210299652,6.986323124804013,30.935098679733894,30.522195919890834,96.07429316368903,238.96298558166885,244.94868537984314,36.429469004683796,-241.3694575870249,-471.23396780360986,-475.3397217159893,-162.42654248143975,126.67799579738065,121.08447288613193,56.08980406440203,85.98978920367497,61.49514168349981,6.588257402073339,33.26860748231627,50.11180334394142,4.651166456332362,-11.201646255395964,14.33930199992631,18.16634241230053,-8.222396403282945,-32.75991340341002,-25.456825409030863,5.04960781648434,7.487222423958615,-21.390160256338028,-17.445512370416225,30.378718714827095,59.00965107009143,56.9606064395184,76.00642283896752,108.12264638488982,94.29148043532712,48.55009885443682,30.223444882375986,29.172867901462833,5.6506495074308285,-26.50572917177569,-46.18850937485137,-61.16860552262586,-61.7551544950972,-39.064984151276064,-35.268046717265406,-72.75552854817423,-87.17436161548395,-39.61507418647947,-1.0641554144758594,-15.529501224963283,-23.35449250621992,1.5369770060296801,23.58701167202792,45.79677936135563,59.58785933649902,20.57892829463623,-33.05018417261216,-41.35512949764806,-41.02511281440201,-45.98212018107218,-19.19616168178599,-3.057318278807106,-19.70613145392055,4.239167322306237,42.6994162990633,2.216787180726513,-53.87752729181462,-35.27125216559153,-10.959860713327082,-39.55462387907978,-54.45516657214151,-16.94642246254665,25.10982149772262,36.84992229223647,21.79551495268386,-9.628489032208051,-30.075095491866477,-22.59251685545655,-16.93234652159782,-20.446193484455776,-3.5494577160008443,24.14791514697678,81.66660460761483,221.12050322563397,324.31494756730746,190.52458015718145,-153.81683942308985,-479.8232851761207,-545.2024516582396,-279.83020757377443,40.94463137906321,114.37590473862707,51.404063509087,67.66107046429917,98.86685083839883,69.53744796905036,59.07474456126482,76.3287250623282,44.69111424283895,-22.907044100621896,-40.77694776222452,-10.227886804639478,-20.046948951123976,-60.50035416426864,-42.443682592360446,1.0628386456393937,3.492254226463558,12.340838998954425,34.510966395175984,17.375867406517067,11.762333506869638,50.578800532879924,52.53336825412494,27.217939728454954,58.534941400844076,98.45594478407946,84.2392621209618,72.00325286402719,70.80983577108148,20.28320606919458,-44.88137822619732,-61.55979002076526,-63.140268355503856,-82.22789917803581,-85.56333166596193,-62.29746000822671,-43.45363951197898,-29.769868440467597,2.0985027436945387,23.234709904475693,-8.345049324543542,-41.5978684686263,-23.664929950271365,-16.062573528911237,-43.68252432132131,-32.37802703106258,7.7871577739944,17.41084436894898,23.3409251533408,22.979737814324366,-19.301595047971965,-40.74379314929994,-13.04739784419106,-9.427710170022497,-25.137349720812125,-18.934921597257627,-22.781706956322324,-20.94396316731133,19.231923810079053,25.721512819140266,-16.12997611143911,-15.141845795820391,8.704462315769575,-14.975002455405377,-30.9054454345157,-10.940390197039637,-14.01356334741278,-13.24393203517753,19.00192105106326,14.76604683954152,-6.152600643021488,22.377093657402817,64.7615880299394,142.87967600118856,281.9989823360239,282.88415938941756,1.5185306652423947,-375.93559049350176,-574.750801703992,-459.245897881271,-131.44246129272128,96.00041684892926,97.09211508193704,65.16239118352539,89.54007209336544,78.67445035598703,46.06360130413011,45.44381654246376,41.2190463249703,23.952939848337408,17.58916021457844,9.902926137264497,2.1707962833004406,1.8081509718401434,-19.34152980268849,-50.17817737305494,-36.39092406810865,4.364632007191542,16.776007352501615,20.595708362712138,41.51887590487269,47.95079176186593,48.02989119722227,72.86673442133602,77.4849973070798,42.02518912708951,39.76973928730281,77.47478522716362,71.30695702673934,15.514129021315377,-21.70299443728765,-28.864004379660912,-42.09461218431723,-64.04896966745265,-69.98508566812953,-64.11937373308803,-67.46595785362035,-66.34608351471088,-48.56257565170543,-39.56417923224447,-37.952080690055666,-18.482215198113693,-0.7649282075091648,-4.246469153786887,-6.796695651038503,3.0677953428546516,16.309198037898614,17.321342068790003,-3.56702317869275,-13.513505544741136,6.851457755912932,10.790717019443303,-14.076346370319893,-22.69456282520204,-7.138624990073941,13.760781592404145,19.147055076662323,-12.764056136431435,-43.33699299222634,-30.62904595322216,-17.84120231829583,-23.52026973489368,-9.30978626786803,8.155995791939477,1.4799419767875577,-10.51668566040163,-21.237576768182144,-26.48161038181115,-22.91871783548763,-30.594996620426897,-31.902373266324844,-5.071069631405843,23.315016116167683,89.56742900082332,251.42331646092197,391.59538182251094,290.5616634551675,-113.48225612176401,-571.2557234348598,-667.8744351054117,-325.92263424453176,34.60056888408042,113.02071142053845,75.3612082380954,92.13295824578876,93.45353825608308,53.08520492922921,36.93136561836149,33.86026473215438,12.819430209554358,-0.8991478612496682,4.634480794815863,17.52713301567243,25.75839426652705,2.477624790157252,-39.61551661872423,-38.19599457148177,-2.32093722239782,1.5753691433453785,-11.835698761237124,11.006756854660388,59.15301328826394,98.06336761325045,106.15688402370154,78.4514783079561,51.06462388844908,45.402024218484755,38.211042258108755,35.199137231910605,37.8396834794522,-1.2377612267967066,-58.14140782994035,-51.60051436191797,-15.963582242823968,-37.706393942887395,-88.4546938081966,-95.33473201359763,-62.94465048705,-43.25524572110068,-55.51890727074324,-57.502816128777575,-18.155091255551902,14.896870144063218,11.90658889288233,19.791700616866923,37.873832550839865,14.066066090143005,-23.69105834068791,-25.74487016535027,-19.43978387559645,-19.10947081304123,-0.9301025667783236,8.167055602789784,-13.007433843665872,-13.188077455030358,18.273677925459314,16.45073613863518,-24.06951796731279,-42.36953443074725,-30.54077603248857,-17.546810069334686,-0.5737622974887175,15.65069905766513,9.808877402735892,-5.832620810897879,-9.602056408519978,-2.9295081718677274,0.6540296947016202,-18.898485853341604,-39.4966355162083,-12.870620039136881,9.694441203216511,-20.98879101147405,30.661242192958582,237.77479084480362,375.64557697407673,221.0607743615257,-172.8340141623708,-542.3515337682794,-571.7909277224383,-235.79996231822548,69.44063408931021,101.1482278157765,71.6528227937076,111.7966238956027,102.42802082077647,66.20517179386701,77.3687547513269,43.83334228760121,-34.400489020216085,-33.537162107199684,13.961800724428874,14.985251583911566,0.08127952391323623,-0.7585081377411016,-10.44291236815833,-21.44400356345432,-23.576611337074503,-27.46380877384196,-22.97799734942895,9.128827955024562,54.5796370917073,70.39029784325959,56.47548823679456,67.10908205054744,91.78139247607758,67.62707810579963,31.236317648562263,42.36995218132208,46.260157539395415,6.421257730927116,-21.737771829227512,-30.639914458472422,-51.79567750598241,-62.52333543595991,-58.9747518222905,-81.08877180512489,-108.08645975533096,-87.30788905868576,-42.24171910317726,-21.10750154205104,-11.094391299685682,5.934884988545228,11.429942994711222,6.967883058264896,7.092524800607865,-4.842640558917118,-25.394280487650356,-17.21190374750691,12.123950705757217,20.027981045895295,1.5182912229183607,-13.411353476803328,-0.9429631098913553,17.438603284639164,-1.7012835535811206,-31.53659587011438,-20.72229937749934,-4.066215253842866,-13.982511849395266,-20.38456927679109,-25.662324036854745,-27.07769678228925,2.8140116199681344,11.49531984231509,-17.678966116551447,0.7123209958389873,43.008519358277674,70.17078667202911,198.41794492889093,365.3997783062092,262.7384363232055,-152.03633479318836,-551.5757356283916,-627.2170940816128,-351.1137875696816,-3.678680214991026,136.61817102814896,120.38026055283136,96.18362804662678,62.92301291596221,43.98174301610784,71.54884545121749,61.78413454684422,10.49957595465626,9.75781707017316,26.948992126410236,-0.736879919316983,-26.227172572911847,-22.857207528813596,-21.196172897916977,-18.31522775675048,-3.7740057134838274,9.43436057303905,25.261018435476064,53.337392855165646,68.54433004753771,54.91137935616885,54.965677614892236,80.37519512686343,69.29636274319488,35.13908421204225,53.36227066811502,74.20940896861069,24.907530001751713,-30.3785188964921,-47.42687657436364,-60.9465328670865,-60.6800182255983,-51.604078562711486,-72.47148199544576,-82.10073222610178,-51.602581951843575,-34.90936395680082,-32.6524320967542,-17.548067398020326,-20.167254136345313,-24.21947644864001,10.719594579596604,22.518821456591095,-26.428999579047993,-49.07374281743742,-14.827537276592139,-2.2055896951281255,-20.9986671252096,-13.9013756017835,2.868851803477787,-3.356849064548191,5.4092883747509175,29.336672301116668,10.631603464310846,-20.97149741771879,-2.6041908306678305,12.351987072075044,-23.35015385783745,-41.34582924646372,-18.098889442128435,-10.016333776365403,-10.518106592570412,4.697849041045272,11.781500423137192,21.886577424578167,43.929181245417105,59.42974798470455,134.6755458849197,274.67954633336194,263.4890277586544,-25.849021574016746,-412.6455117907803,-625.837267888013,-502.01529449239456,-135.8361951641142,127.80862822497627,138.26927985502076,96.9809347377107,111.43148329948394,95.3343551859649,58.81699950597702,54.57751022812419,46.30845216353298,22.093992310344465,11.029903130379575,6.880357078470274,0.9215294298513701,3.3287464936215274,5.791157312141259,-14.402071917933764,-47.89476170916871,-52.5287461638176,-22.73321166677706,4.515106382528957,24.00419998050061,49.631105726770976,66.90796413576264,71.39026289521459,77.91653555336431,82.59748802912009,78.3105700164931,68.4710189722952,50.84773152847983,19.44680200796472,-27.876163724837518,-72.74941794005946,-85.01433088357511,-76.04599174454444,-76.07708450570769,-71.7045910713084,-50.05006847982613,-33.41232908004304,-28.15666482125721,-24.1637317854491,-20.23696220657544,-10.388719781498878,3.139737719222584,6.029682481693225,2.867748482454367,4.280311892599226,4.305570101858127,-5.2926419847281,-21.936139734344508,-27.185933845898937,-10.782075674202293,2.6832713552968652,-0.0843370319156076,0.6585222517391127,2.2343436010759206,-6.095345184383454,-4.997757668065228,3.880478280276236,-0.5474515068483363,-6.26456505265501,-8.42061347962091,-20.009430018607304,-25.72437532443812,-24.199950456366736,-28.071391798937903,-12.499826300865353,10.177367845030165,11.767948575985546,62.727512619821454,181.7268955478598,247.4461393124978,176.83312349977115,-80.61146364808465,-456.873788678592,-558.7425015831213,-209.5637455035686,110.91880672237248,92.21910820822576,39.59220629083275,95.71403231983146,81.13419952411616,30.047956353747907,42.86523197982282,42.06393909676491,15.984259839561034,17.185695173127034,4.862086955708609,-30.726305814110795,-36.71309080008898,-20.115757984480812,-14.94946932756701,-19.32198494048427,-20.303596583184607,-7.944246699451382,12.87091509320289,25.457797759093186,37.68121545113459,60.82781615732382,73.60678705882346,68.63045007160719,71.55113371398512,82.11773928668921,74.94619062945112,48.017377157334494,11.779949172176668,-26.993461400814777,-54.127483980078665,-63.79238282786993,-64.1398565932316,-58.36001569625718,-54.725226897225355,-64.56258399335299,-70.78857675784386,-51.563894492257575,-28.938151771511755,-34.058608746170144,-38.27507521715617,15.812066988992388,100.92139104186563,96.5021374906439,-26.95654489200671,-102.46462837520434,-15.70216771756044,74.25784299032941,24.82870224219537,-25.637190547814484,17.049585383250964,17.179618725293516,-43.36108231867527,-50.01654229562851,-49.69603822992449,-76.42327266314985,-22.403032479610566,60.815287516045764,44.902811703145545,7.690484650571097,-3.4302141783897966,-68.59651068184397,-109.25728420060489,-37.40198377369263,18.536641460498924,8.777257478473265,29.895911364878536,52.288538295282876,41.82487883755486,105.20514849138661,251.73805033095107,310.40839813199796,95.49032217977317,-360.1146579873432,-620.0241378782529,-346.86539307176554,38.246096225253936,32.767065606373855,-65.03945451704384,88.02011002559271,168.57636389139924,16.826412899536336,-7.2822924666831526,122.87880308081003,66.15177943618293,-116.90973852024399,-126.75593739907781,-29.42495732235998,-19.920969716990232,-16.977261607255024,65.95153378605336,78.58184042677149,-39.87702333085947,-100.59336354401373,-29.767952314279178,29.506236515063822,49.40500213907656,100.84434105432811,117.07713216051296,65.076049656196,57.43030362259058,97.76377636426486,94.16609630680327,63.461338649602396,29.902161804143425,-32.81151795724876,-78.92974233184215,-69.73933906481713,-51.23714739198525,-36.53820189265934,-21.255750923131412,-47.56919836020069,-88.65283341902612,-64.90623593322799,-24.816799234195166,-57.953834508712916,-87.15522607566177,-18.71215972101606,48.80965820657167,29.14472008452828,11.556098780991409,26.68434818032004,1.125021287373535,-25.74643767057127,-5.510621646781564,-7.947536421709724,-24.749900239228353,7.483835962210616,27.14308152386948,-0.5475103742377527,-10.511244820081984,-10.210304665965715,-26.339891045434374,-21.273299871127442,-9.025079610539112,-22.52055746179404,-31.23723294775038,-25.05191128650901,-10.757282913483337,14.917288459208907,0.03918898628534606,-58.32124123607321,-60.25723718293783,-15.415871347846512,-9.603267842470459,0.8889137195584169,47.13950884878282,87.4718114403966,185.60948515261072,318.50202425125326,231.57639206018604,-145.75423059828861,-527.7047545403375,-620.2377512021981,-369.8204753598218,-15.288619547090214,128.94987019903374,80.59886071659147,65.42646648891846,92.22429786681117,73.60676019083016,50.31572915254996,40.9016750489111,15.748674691151807,2.515715598624489,8.794884700945197,0.2960392750322134,-19.240285212503345,-29.890917174797167,-28.566964238812027,-21.459845903756456,-20.91078554103062,-16.77413509035418,9.147904263682129,36.96787752725422,49.450589346778784,64.35884320093672,84.30045158165545,89.80320714307202,78.4779568704234,65.22591757231581,60.707560570144565,55.14287601867954,30.17985177168805,-7.880347703705818,-39.61537846985112,-63.559397572132376,-83.71642793626975,-92.52278323965554,-78.53251595741683,-46.704886772865635,-28.92329588270873,-40.96238820142102,-51.04979340702572,-37.4900676370728,-20.14243172496429,-12.557413335344961,-9.651502172449547,-6.598276610898779,3.4890518212990713,16.48954301331019,16.432225077237465,5.7954038212585,-0.5735030004099553,-1.603546606245331,-3.867544736832965,-6.300667703156018,-0.0685020433884187,11.809269626017125,9.405045028970406,-6.9529215239762845,-15.712297596095151,-15.977172586077655,-16.016726137593736,-15.359685311325372,-22.892366771277302,-36.12674915705306,-32.70433566581001,-15.718290569750216,-8.585977029921594,-9.66104533008485,3.1659205101334447,27.479240977746905,41.3370830563435,88.92948131211338,225.79866374339167,311.1719168277857,128.5438260839626,-251.1969069447466,-525.4143884468689,-502.7735870378571,-238.4096655847779,25.059359109599963,101.49763870958678,75.80674147649677,84.85203833579135,90.82389517853466,62.61730556148423,52.060803160577755,49.45989348610817,27.93161005969351,11.465996894281236,1.6679927587344343,-14.388654521041532,-26.114339470232867,-30.315624225612748,-26.61808664549597,-15.423540250991058,-13.303719351841373,-15.804614368969167,-1.1584367398684137,22.271791165939685,42.98876318732101,68.38875241073589,88.95910643045379,91.5397714179555,88.13945870678641,86.46032307743164,75.39958468889279,49.33922071153094,15.196421690975914,-18.26654405429157,-47.27877093245479,-67.37896299927475,-68.90590848063272,-55.788169845230364,-49.1931823481293,-55.3582831139695,-59.561068395438376,-52.78106382788728,-38.839643529521865,-26.198466966253594,-19.45416035003781,-13.664024139010756,-8.134669871935376,-10.648817023329997,-13.948839840738472,-3.270197854772464,11.300391443463836,11.944627170253778,7.213151970225394,13.51236211468255,24.357446657031623,23.004847079208858,8.964145599219474,-7.249430487785901,-22.01716631277114,-29.493132812489474,-16.979932484263223,5.496011187920303,9.511695316151153,-1.610953459990622,-2.3990595765967093,0.18549898418738575,-11.688776692489437,-21.756854584166618,-18.720839974452915,-21.26374823174189,-28.54588469462896,-23.583768808968003,-13.071029855738441,-2.949688916410029,8.461606437177963,23.180069116029443,86.05718919452072,230.64367751342016,360.5600406468112,291.7279329543656,-69.73041431392375,-523.7279453454177,-638.9721116301238,-312.17029787477395,18.788174476742093,69.98971186056414,46.51557211094935,80.25633148126009,68.62083229966815,30.85153553113183,37.1382732179643,39.83730197339267,20.86133406392711,8.143980862993095,-6.88027365478695,-14.85745451902344,-6.249802168862915,-10.919488213428648,-27.040964486465583,-26.692303442873097,-15.906186068973831,-6.147131557261256,7.783122803735161,26.902541087466915,46.01360103995174,58.50702729641983,64.8408014473523,73.0792783983313,83.99931436333185,93.71086574398556,90.21129491808962,54.69216070129268,4.10709911876138,-22.5537564715792,-31.766286598402807,-51.883019916247676,-78.14643165090487,-92.36441958300028,-87.27753798079424,-70.25703866255306,-57.39029596803484,-45.657917519117596,-28.764807373397765,-27.5580882366189,-43.117490440882506,-37.9080533107573,-5.757133057005344,14.75470953699303,6.33809794175454,-7.56976186224302,-6.407957947605951,4.778742311604082,16.712074363615997,22.735887688975293,10.520259289341514,-13.152546319557004,-19.812929563271105,-7.1825278931007865,-0.8890489509184647,-11.908052651060487,-27.36031184827292,-26.56880000755349,-11.421186240368606,-11.783558607341092,-26.418793385521745,-21.95171649590265,-9.206658185403285,-14.375509218021051,-10.029978317625533,21.83397633140104,41.39902723169527,20.241110042147902,-21.621203776529132,-46.752394317678046,-42.54579507125665,-41.943580252828305,-61.23655950725493,-65.55722178605679,-56.03170398577059,-61.99330897233489,-56.22439300000299,-32.58809857619387,-16.847520961858898,80.10395981250646,332.3863636870486,547.0176557328892,431.6922773990284,-36.114943170372285,-518.6301948117114,-619.0434184924641,-344.88271607554475,-74.4846311088523,11.089866117205105,44.568067653581195,76.32212233111544,55.401174755914056,27.82442914223773,30.667989235883454,26.20801403714345,15.582663924702365,21.329790844725174,22.404722380220257,0.572660564444849,-22.21929673536209,-23.74098688020583,-21.07035607383797,-30.1977263372564,-26.730271286677617,-6.5984608588466465,1.2769854487386052,9.679340317026675,41.88318467544089,71.81175282536822,82.82774628103493,89.72635783366047,90.10981489119162,82.49552980773538,82.23931228991388,78.18774272737826,46.67222401396066,6.401146023551102,-13.26453458555532,-26.900258710721687,-44.7379413743755,-43.70638998412071,-44.410414407902216,-82.4307310591104,-106.07185422293205,-75.13217384074049,-50.089718717139675,-52.86187030904934,-43.775851033330596,-39.938250623802716,-49.992350686213726,-28.966652333112506,5.266016668919885,10.630436472108059,15.86128263569811,30.23616191020518,22.9355993785629,13.816852127355343,21.104346060566883,11.82737564595622,-13.272334134302413,-20.048132576693995,-14.286425946285291,-14.883560813735084,-14.462993140235632,-5.232063949815224,3.9183763882123177,-0.2319488594721406,-11.945773641630293,-9.529448692223806,4.936827231770645,13.734173016133509,17.20176104707798,9.119757076025866,-17.40553570034948,-35.2513120014993,-35.77481711676043,-45.58349099925576,-57.283922649533416,-53.4699742361808,-48.30452154193532,-40.88312520231439,-26.907215413822737,-6.240159781339596,80.41957193421466,268.4998878602801,435.34002782139834,376.16472430529177,7.601230600089593,-444.68337550242353,-568.0474338616157,-301.36017355148863,-36.81795519641261,14.561665872974771,15.518351874905026,43.8685137717899,39.82550750481863,37.67245698838684,58.67254307898293,52.12653967321442,29.855152306924126,20.311707771231745,5.440646395479423,-7.366689537048907,-6.6385874078164955,-15.826393323430594,-26.964187910840096,-13.498414826476164,-0.8072045687423621,-12.898150405212718,-14.653543951856975,15.496709822651258,42.96905218335253,53.77194205057005,77.38670309437276,108.17251754325405,109.08785823006771,95.25158924210174,97.26008827997967,79.32196955851276,23.41454463771894,-4.328651131805339,6.21611967937538,-22.738343189700753,-84.30240847711428,-106.36926593279227,-93.31919050929908,-63.86337598159892,-20.710118348125174,-20.99340949153241,-67.93707041379734,-75.62920864383523,-42.2241499520149,-20.666287552695195,-4.4171019911466445,-2.9431030347715748,-20.929563832082074,-1.3494314096298758,39.177145785801,24.517954753301453,-17.698787651739885,-24.607724057690675,-7.43623441486181,4.098554019936147,0.7278964913278259,-1.0675469596957097,19.434147286128216,30.581545009406486,7.57660511887528,-12.095025396687276,-15.950349565912685,-17.622038323368628,-2.971888049800577,9.105473069870488,-8.604764891496881,-16.890246814164634,1.235090209706041,7.668308130761634,0.6918425972821884,-2.9765191518920826,-6.721029535307196,-3.1856684021931425,7.545138855068749,10.005847010842931,-1.5044978994284035,-31.204556766543973,-55.51651954111732,-40.80266123257971,-32.420790724974275,-64.80174952282772,-60.5823879508371,-11.860899471223295,-9.030427100975873,17.509280214160242,204.40477909078612,445.3857245376835,492.8292057787961,209.63318843329404,-290.0893763349392,-582.1107507976917,-390.48437394518896,-64.85044942595071,0.9772722185725087,-27.643438866114977,36.51923626407003,52.52633311706789,5.445714502972367,21.966630661897838,50.43679455768596,18.35492964832029,-20.83656250742406,-28.081215129217576,-6.0741724217491875,23.536842209037513,19.850235532920163,-6.731998819925304,-14.531634575574369,-1.4577627522296748,23.354360494086517,40.22223463734356,15.98209705538811,-17.98128352850514,3.5437121138350527,56.65704358094938,68.41771323798307,45.36030182352104,45.93442121044367,67.04632678580481,64.462111478651,44.37128782013667,27.59303625387639,-7.234506601005741,-55.15506252205105,-76.31589677519386,-79.99860960336878,-81.98020963134181,-59.0720141445462,-37.725882382184864,-61.058253945750494,-82.06690873311857,-61.822033795263515,-39.78208834722872,-23.66060268350362,-1.1360825658361051,-4.765425530048255,-23.013130478263314,-10.266460696209894,5.1031083666428145,-3.6543485761584833,-1.5651673692748176,10.077125063013016,6.625750007153258,3.87541199535028,1.9536613940019087,-6.207277562105649,6.708865369238911,23.644521804749797,0.6029793762264006,-23.790057095592754,-12.732279178882361,-15.44167811459408,-34.62947752916479,-10.11013671684011,27.01213490167713,8.894537979009844,-26.386240513861146,-29.1885619540001,-32.74421916165173,-54.04448738908016,-58.00593243968193,-41.204006541480354,-37.58599286161781,-50.17539086691999,-47.20075761005341,-34.14265905551432,-27.87758229154142,54.65461777965187,275.4105200201495,475.8417229307556,431.5597009624949,91.44690063991271,-372.42292395360585,-594.8570040837593,-381.81766618535744,-61.62192516842594,15.590318551059323,-7.606767747925531,52.72726537809707,89.21245989110233,54.820904788029836,32.37266954716837,23.737789301743923,11.713762014771596,12.44105076040671,15.836626394109718,11.339795719835848,-5.72828856766008,-32.78660580028364,-43.851534172592565,-47.03708442236,-62.79905630835668,-56.85817941072321,-18.364123177656882,11.177479710315758,23.661167371151798,37.80102446739838,66.38802140615304,108.43795621078922,120.16307236548987,85.12828555664082,62.14310067903541,64.90019618085178,46.848744015234644,7.710736369532689,-29.393101035251146,-51.614175107158594,-47.65755120544789,-52.64969666876662,-86.52379890213061,-88.98909832981366,-58.63472921716247,-63.105060943431354,-76.3392521627912,-48.74246022072051,-12.662148374634391,14.671111714984129,22.97106099696618,-16.685030070235776,-36.434546590748425,12.841232878006817,16.72321400739441,-50.385388855660345,-50.83958071302324,6.687617838060448,14.452266152546159,16.988494968068252,58.346623673034756,54.60007926922708,-12.268740667743508,-57.02664265460949,-44.36743064160301,-7.575455673244321,18.59192349217651,22.385238046823517,14.58303373726907,16.939686039578216,28.793888606782545,14.743170418994126,-27.628813712214907,-50.39704384709141,-46.833117671464834,-31.28434868113908,8.974975644335732,19.66090813970871,-56.84289891925176,-125.64825160952769,-94.0778574240954,-29.144083387624818,-6.20425804177674,40.446497700621364,251.41544081577013,555.3208940497474,539.2490365838919,1.1929569368726334,-573.0336302503747,-632.6059991005641,-310.6513933483904,-40.93177591183392,102.10518531799929,199.24079983988167,138.18277394858097,-56.244667493444304,-106.08316581894974,-10.297297571843647,6.914815719445533,21.186749913206825,115.43910168343663,74.36478840198846,-86.67018747540295,-103.95201534509644,-31.671158985748203,-38.91768608486929,-42.44373632020191,14.319342063617094,53.642050656368,43.48223846804807,-22.664700885010006,-74.47552704777402,14.350251103484176,142.8773451045568,116.64232403335569,23.117741600238936,31.342236655636196,100.18698029889751,134.0056770122392,99.14349046936834,5.6421910239933695,-61.5633573442583,-56.253493312346905,-50.430997256655886,-81.69531894666709,-108.71785841119971,-113.91191083759841,-95.54971770600442,-39.1135209136437,20.177973973728808,6.583053438151822,-55.176351426147846,-60.6355388206955,-34.6178671825782,-44.88746880857612,-6.939406895810855,88.33983171834655,89.34915327595654,3.897813557065284,-52.50388199011303,-78.07971827294503,-52.02020835382535,41.89473566821083,89.57779529681227,50.924468289098726,14.174077208328283,-5.075178482193984,-43.99869114360098,-75.6633067997169,-51.1658945715765,3.7967960103353118,25.35729902889915,30.92730183414881,28.475345301555603,-38.81211579332909,-76.12738335997219,10.975833642836289,27.37465236210332,-86.0617564992051,-61.80986475507176,54.84269580895439,-42.24368326763776,-199.8886463351255,-112.52441422356773,24.841081227742333,13.66426202483018,117.54448428521815,431.8042831925735,606.7799410811349,428.2221139291916,-26.06818961164997,-522.489921160063,-647.9132209491288,-322.5803828990945,-51.81811233976107,-48.47964603654398,-3.667443039836577,94.72758416670278,53.555853884799866,19.887329307520062,89.9586904952779,75.85951146992284,-29.771296739180293,-60.03532897725508,-29.204556082032468,-9.487677705002548,39.45638303752074,83.88894979365368,10.097433518726412,-105.91265998975771,-82.5733488668196,19.134900847420628,12.01850627817953,-44.112492955819306,22.05783655137011,134.99020750869462,118.98931914329802,32.31438443404018,32.654915370868295,87.2725801493101,95.76489892998795,97.40917235861005,110.62910977194606,33.135536426115465,-98.28216067223401,-111.51018708061343,-49.930706096479376,-63.320675095249086,-74.78647156341582,-18.847978573837423,-25.170813761265926,-83.43152445739872,-75.42332902720646,-68.6635801861115,-93.08214687146723,-39.03238051555528,32.210242567013964,7.467325109305641,-18.092362044198463,16.344832741145794,17.828104634114993,-14.656667210846123,-6.307485514729562,13.951670435652401,7.233989865788074,17.52786344863118,38.08804644300306,6.7035656585884436,-32.48572160351995,-5.275646609203099,29.479251816312242,9.886120253503776,-18.22681328972476,-30.186725071736724,-31.630684264956145,8.720759917463775,55.84425083171139,33.29937708449538,-5.92620500979293,8.46424258047282,9.974726955121067,-37.259619965435924,-70.74398648148512,-73.8505145710423,-58.107267277844116,-50.68381074718795,-92.41591310398115,-85.6341687887632,1.8461421169451633,-34.31657093910289,-88.37944073122631,193.09837288027143,576.0043545590449,593.9701472041716,286.7261751205167,-188.63379108173538,-614.1234655544696,-548.6101049835778,-141.64538394121297,-9.022064588454768,-71.84603547465073,28.93497143288331,101.16753370439449,20.334574444870718,3.300160325585214,49.06918048339636,42.61175747503385,27.29451870934202,8.075773924946148,-29.37549454286103,-14.05544742922691,28.971041135963823,-0.8001446522376914,-48.62535722325596,-13.828833809636112,23.83116922310832,-19.65893993658787,-47.35614970118333,-1.5240077837148576,43.63504769892948,68.29512983104848,75.76897044735178,51.10823115305032,65.04485521024547,117.09584491195078,89.62304205737217,36.03607987597583,55.782342511343835,34.64299127484416,-56.9899339555035,-74.53841098034601,-52.26673188768915,-90.93219156385221,-105.09048929289776,-59.28370235367309,-42.247917850085294,-40.31035700922928,-19.91649224622605,-37.58058034522003,-65.91905747653047,-23.261938687790614,24.90149799217771,-4.600398140875608,-33.140010733554824,-0.3759137826941341,21.077857500551776,14.323114799272195,24.57004772773429,12.484597062091272,-23.97664025848281,-4.441248730868158,34.48612582263362,24.40632709393436,14.248852215270617,5.954705389260587,-22.899051019890983,-11.081698034068948,-4.413478425371125,-59.62093543570817,-42.69678731857306,30.547316805941215,-14.3489183680357,-58.57800127900773,28.039304906209907,50.237908254760875,-29.94734345060416,-30.331100213578992,-8.294012503184389,-52.29450476386471,-51.33972644873655,-32.510070095623774,-82.97017412446327,-76.82649692523918,-18.570844037284033,-83.2326272602354,-96.78973704551026,204.36377330379503,573.8283348110192,643.8686550940267,367.03505563720694,-171.91219936710993,-639.3351394502245,-578.1847131490007,-183.37917503800406,-14.674480474958266,-39.34555171395735,10.008731196865064,43.63677626521043,13.111875313077338,23.29056392923156,36.77638775613063,25.367421497037736,34.547984793197216,20.827657504568116,-26.449776214850317,-33.20165472898658,-4.711853956889963,2.8532908131035457,-13.401113813002475,-25.521807017026205,-13.530197338934112,4.892774403331378,-0.04292432817850411,5.109416059914253,56.36622871869356,92.21217504342509,63.54563405411879,38.22274503367437,62.13763453814039,84.88212611998968,87.1878785235596,81.67059790359878,38.18926835854448,-28.782410800758523,-54.59063123387558,-50.49496211087431,-54.79886025653324,-56.566824834201235,-67.60177232959433,-93.27794467422775,-78.21051554420242,-28.99299333257121,-15.860844781602264,-20.239783690879754,-2.8922202259235803,-14.943646775240886,-60.69370526698631,-55.010103995597674,-2.165848805257717,8.564872409081772,-23.317668129038246,-29.054763692147827,-3.0673883177355314,17.573648109584052,28.895729981383763,32.18857741841191,17.543011979187998,3.3089312724279054,2.2971052666698544,-8.055855024977124,-24.943398610227376,-22.90162526318968,-4.034888354149256,13.52544220062863,1.851322653512593,-32.05385239157859,-18.00681542904066,36.3784171291912,39.4822753203124,5.218469404132431,-13.332214576225633,-47.38101290491481,-78.71855388795336,-55.99059814420996,-39.24187247397724,-78.64503562929372,-103.45571097490341,-61.34966786694979,-13.44539902158671,-5.037348895626295,71.12270732618609,306.71846834865994,540.7824747009149,506.6120135060775,110.70326691737904,-438.4832627566182,-675.1517695457171,-396.3819877238643,-43.40055375902445,1.956829271342464,-12.50049757546872,98.93276401375813,89.28227335264087,-46.09619910555729,-28.12468135336602,68.0989901016234,30.751675122783382,-5.668056205670975,47.677244392607975,13.629635100569644,-79.33307450235777,-51.02258413353568,22.163617737854615,27.350458272182664,12.70848078227346,-24.284380889936436,-69.95295176424794,-27.016135090337137,46.62049363281201,44.15682365223868,41.16774056132259,83.6803482230377,109.47738517517425,138.80276839145293,155.98172855232903,68.82438409949874,-29.59416526065023,-15.845632935183163,9.255595066794687,-4.855572153704625,-5.423343782956465,-72.91866723416553,-176.31758684054302,-134.67155158175086,-49.422441105506685,-74.79655710554833,-67.57790624778744,-9.49822964686792,-40.61600479871774,-47.189782567408045,24.63019686200122,-5.809738809062999,-67.36151354286065,0.6431155570883522,41.85117472705576,-15.157035859572936,-6.655771333213238,38.74301167232907,5.767286773997995,-36.19560545867636,-29.8087506312961,1.3823550049888862,36.660205902141065,15.620165251177317,-38.08174012226991,-14.978567287011298,19.06749212517524,-23.00590100395661,-15.098541263120936,53.08269705370051,6.348965304555691,-81.76884638547132,-19.98299581314831,71.0213518597578,25.877122651823154,-43.67183915816398,-39.437351567024706,-30.750055802693637,-40.128924813905336,-32.75579837043321,-14.952184065510618,-17.657024798602443,-69.00795233215084,-111.36492396851772,-72.64879528546442,-34.342609109975456,26.768725044454342,296.83874029708215,578.0931957382511,474.68080171774363,88.01917956358943,-298.8116699985151,-578.422767184426,-516.7821851024814,-125.00637793205742,81.37183106556029,-4.095400766713908,19.47395906295385,114.75356763140917,34.07582441064175,-34.31681579506958,40.20146552101289,61.890121030443325,16.359306503893844,24.235697227085666,27.100615072168956,-6.7462410384800435,-20.398641479052948,-44.05413797372279,-71.89220401131195,-41.3683478699665,-9.46296409136421,-22.08456638020623,-5.0351864951034635,53.91890137577228,89.16455344118083,84.0592015816749,68.34731443297778,80.63743683288249,109.36290539147294,98.68335214211734,65.3671729398799,45.48058009702288,6.087298032999701,-39.56475602298145,-50.175293261524814,-65.41713126470549,-93.761523109688,-91.05520296686673,-75.64932714139765,-61.96079416374302,-41.17374341056078,-49.999658632296686,-66.39282323227066,-30.61459285252659,-5.2845255809998335,-34.58899072534126,-30.177100732694985,15.697767281554523,18.30030426927661,-0.10237487464029371,11.436980765667244,10.581492574663319,-16.935031107186067,-18.064646996380574,7.700605310869262,15.347405066154886,5.0755044217715,0.7108375967814453,-0.534758855517369,1.5101559399299713,15.16646893980986,14.89861284325271,-16.163349440876143,-33.96868926519116,-13.918108696384536,0.7368601858151571,-10.370568234806205,-17.52053839147189,-13.184229954255139,-11.196972889099067,-4.034237696196372,14.242992636172456,23.05913098740127,6.1824073717834525,-18.48239028163991,-22.61880676602631,-18.124875137092836,-35.8376975941136,-50.86508577266643,-36.44208795427882,-42.601322390298456,-73.6281542506177,-63.5647384577301,-40.61565990265193,-10.934957933493031,149.65216248545505,398.88245059143185,509.1973815569024,356.4895281480202,-68.10737928844446,-518.5066186005056,-524.7211402303627,-151.53180658451384,34.26826333511371,-14.84447240874998,19.559712813475194,55.54880902811168,-14.34549912712884,-22.693923617981792,24.69164664065963,9.609349604455534,-15.874809304673498,-17.7193001444268,-24.627890835406795,-14.65554603129837,-4.57917140306704,-24.047428587611,-28.236429485876585,-2.8868973756196867,5.584469945447297,-10.851703578459972,-18.04862690704166,4.039129359657789,36.18372913042799,47.469773255022204,50.320098404845176,72.03733851316653,93.64134007075083,91.13106958414349,81.28070263499546,74.80503507763137,48.24798443865233,-4.217665728527148,-41.80031964903905,-41.38458444838301,-42.22437958616912,-68.0813801388246,-81.1762205053515,-67.90995519578328,-58.85274337224368,-49.286648366190036,-20.851299808470102,-3.08101758016182,-20.819433275594633,-44.000949446425075,-34.93277595130962,-3.4912835681930474,5.6562484801054005,-12.803653053430235,-8.263890223807955,27.03918539197853,38.222194898996435,16.15836803416229,1.150769744441873,0.39875047986718215,1.3364251276762769,1.7568345046252771,-3.3948029365096923,-7.858154544663444,-4.639759568329632,-11.111877623265766,-25.477356119117204,-19.84199658516815,-2.696694986088202,-2.832092100523017,-11.6964125966308,-8.803604305909264,-1.3795620471696353,-1.2555247191499497,-0.32981425660168817,7.33140331779037,9.233548042249204,0.6071002888888835,-6.482819072299323,-5.507173429873847,4.09890940262898,16.028786711738466,11.684006412810803,-8.302261474640463,-22.444742222311433,-30.93964678858015,-40.171873800891795,-37.57010893787678,-32.026253019134046,-46.004313027985305,-56.16302482986207,-44.23401358809774,-47.76726619323497,-35.126461475123136,106.62443000825795,345.2984515562716,494.5422166190977,406.69451754734655,24.040278865539918,-457.3612231741999,-574.9581769600803,-254.48941931905503,4.653740491348707,-10.003014345137501,-21.92270603663698,36.08991855299877,27.338140259940253,5.127142903451212,24.664121750999588,24.928831404081677,12.408691796000921,9.839616072708706,-5.420556577400264,-15.226612084196745,-7.634351024240437,-12.724024329870634,-26.0403331327345,-25.76129316923202,-18.298360858224733,-10.404600331919035,-2.0026229419161385,8.615292200759255,30.038009207402865,55.88707402840838,68.77042856081357,72.41654493365779,77.40561862382046,80.97828634083154,81.69154411025178,75.0679790003644,49.795456220167345,15.421203815538734,-9.995332022877076,-34.54532962121285,-63.348998316861525,-77.0789500732572,-71.43182357893775,-60.014903448087,-48.260161174946475,-43.044139490915924,-42.92740693771851,-31.431316567216918,-18.936102697804024,-23.77694342395987,-25.56566331412597,-16.573551047414764,-16.293865375197022,-9.500500789139743,14.207336927543409,23.33263954737027,18.591853314814458,19.21157110427063,7.885091342530316,-6.695522305132711,4.28520573667374,15.563400696617506,6.637873302639452,-5.076936438131469,-24.770452772733236,-44.89255665854062,-34.019186002390555,-15.842889729629817,-20.8200941339663,-24.114981500770675,-20.022710841675426,-23.100825507882217,-15.55918290766986,0.35026694794067126,-2.012198753758618,-10.295168759769133,-4.774000872841732,1.8716853367111952,-1.5837330626182187,-10.432848053928387,-20.333898493143135,-32.37866063807331,-43.66659429239556,-49.01887600822836,-56.78174373269266,-60.70318107828086,-43.10126317814475,-37.28133124520536,-31.396564200372097,106.01117836664896,376.19889613063884,542.5911187546657,398.313865147523,-51.270709881980025,-516.4310127034984,-578.4220461388103,-264.166321531917,-40.30657986744677,-30.23163537599168,3.9298194438062666,57.46393171339197,31.071499428955757,20.029362938990403,45.99717067782677,28.728031601669258,1.273803258715735,3.738974946704569,1.285498067594962,-8.341694825534002,-8.36696390311318,-9.41640294209658,-14.554610416836296,-16.135078931128447,-13.181155729044601,-9.73381252597611,-6.874679198153163,4.445315279443999,26.600375588304246,47.98698757219823,64.98540982488666,79.20188558047813,85.90811798886291,85.66416507487108,81.86994785725467,69.89979885076082,45.54893839867658,12.209307308962602,-22.930903605398193,-52.169309582007415,-69.32545216777388,-74.00098269362834,-70.04064489896058,-56.54247168526896,-39.52488527488768,-41.709452842075194,-60.75026751345581,-60.113779996446155,-37.71621711960795,-26.11558038443131,-25.05253618623471,-18.15302965080931,-12.02430048335302,-9.635018649087968,-3.6286784782547983,5.380572554746209,14.062931274942612,15.689392621968409,8.374350288602924,5.955275601138739,9.238238397590237,6.222222904578986,5.332680870073299,9.319485241273446,-0.17218506491390784,-14.618146743266845,-9.636438836887182,1.805519114415013,-3.689116642291161,-16.681978887344002,-19.886369234757375,-15.162793172497448,-10.054675351884166,-5.196323425138502,1.3818573082798782,6.255958291720586,1.0883961943915477,-11.067941390517499,-18.625688013374923,-27.653914452884848,-41.29775362153994,-42.70335435076586,-42.63731135840022,-54.37880578390535,-50.80364860492382,-43.39693789738443,-34.899721694858,80.8777873869351,312.76336630239507,476.3633550606698,418.2915773407506,68.776108459702,-434.8446459663209,-614.1978667808726,-297.6482163453217,2.0184334410522027,-5.996650898388928,-24.23953456613407,45.85066684141054,38.173952136843866,9.00225234999647,31.092569667939404,22.53408873135592,-5.297037330945262,-0.8499025173607686,-3.414547098975383,-20.348057551430735,-21.14100606004647,-17.408755859668553,-20.277269509383096,-20.344335045657914,-15.424708395304894,-7.534305938823525,4.423977743819467,24.50714075676983,45.213398403144645,50.888349664622304,53.290121762965725,69.69231832606107,83.44304830545559,83.74656320970558,82.81266933104948,74.82213231974144,47.44893015473877,10.571157043599662,-22.92877510545597,-49.561807777926866,-68.20529327474344,-78.27169771831272,-78.46168453066134,-70.60287645654617,-59.01446850575462,-45.509807828328015,-35.91809823406789,-34.32144033368979,-32.347820563939756,-25.056098361390887,-17.38237493271793,-10.75243309655163,-5.262665084853424,-1.7457545556799765,2.3975432156343714,7.157292692649314,10.563089710912891,11.423019279422343,7.834717398539863,5.084237279370923,8.154745229821872,8.766946555769895,3.897298496887103,0.9320900042552474,-1.1382759874194974,-3.7959152759033365,-3.7420515085292863,-5.082612434621279,-7.965115393934873,-6.046268958242397,-5.309612933694597,-12.051005792638808,-16.255967383847942,-10.14918872469718,-0.22353276711176662,6.549484214287899,8.52432282137001,2.1249876547007602,-14.370423398151432,-33.84774442186337,-46.1233054126239,-46.33349885303788,-46.873195894024896,-61.28368662189708,-65.82386334972263,-52.56133859554179,-57.02352597774282,-19.392387498543982,168.31142162728162,413.45584571276476,500.346528265243,302.8815838349377,-161.6966753017323,-568.0837481439763,-498.3617431849786,-127.58674229554646,26.799598085493898,-22.040461367284138,8.36570898012706,53.59870106277502,23.36260521644636,21.24143360640886,41.79267342859247,25.92546600661622,15.142264247717105,7.964241242601313,-23.08647263369854,-35.49149534592147,-22.151160040331014,-23.527879544885778,-32.390513519442095,-30.302074595361674,-25.612708000031578,-15.29738847187674,4.6240621933442725,22.03804021441106,36.570045437797724,56.14729817466406,73.79109641471135,81.89050037362763,85.65480956628895,88.11232675794895,83.84339784064255,67.62835011880432,37.76693191999058,0.5196151938553619,-30.595277810526806,-51.92206242043312,-69.47630839353644,-78.38989441515126,-71.6941117197858,-58.731067217792386,-47.68490367654793,-35.56760097242416,-26.566777803099612,-27.71261417853103,-31.889630805859706,-27.888234553551733,-15.118772350539615,-4.049723615853264,-5.375291243004206,-11.405788591635435,-4.485404213976954,10.872557687399887,15.134835519016942,6.935726243893903,-0.1511819807770678,-0.2511227534979632,1.9054859597053255,2.0054907963679023,2.088241312484538,1.4167599548680165,-5.827484695021974,-14.430310727723752,-13.395247496642602,-7.001429843438871,-5.201222731498801,-8.009865485989854,-12.531969880873348,-15.929388536284407,-13.715372695923767,-7.039115931771686,-3.432502281243007,-5.658146923659141,-4.787316764055046,7.604466511418361,21.03386539119165,17.16208713965018,-1.4210032414147644,-17.631802920112577,-28.201033094940858,-36.136561307063005,-36.22412736040699,-34.81458628273903,-43.67591475858359,-59.11987393210393,-82.05799580612022,-81.92136602584685,33.29449239941616,272.3212652809828,484.20364044611784,481.17191299056236,142.23499605004304,-381.94844720404564,-605.7566182843478,-339.06022064186925,-36.387841286937494,-12.009784204882408,-33.80317280669701,27.20966553649968,35.11151218628198,10.354424738570994,27.633489606022614,25.962412064337492,0.38988025905228696,3.8718729516233275,9.869068291446295,-3.359170297199828,-9.177982290157505,-7.021988411059075,-11.62103996905819,-22.464997904614975,-30.08693077546061,-21.106509263752493,-3.494913060761035,4.268055437691361,13.585610379333078,32.917414916419816,45.902866638852885,57.17470861778929,75.08694387472889,78.47978186170265,68.14475160872172,67.04599351764594,60.30612985421412,28.82662981702076,-7.8426334682486285,-37.28484189827498,-64.60189298737322,-77.45670341696645,-69.87589727775824,-63.745508091078264,-66.68387762197129,-60.44223875677055,-45.44110605081376,-39.436062078816754,-35.76847743588901,-21.324757632472398,-8.971874103950825,-5.007577920297251,1.7503886035534357,5.6514357987190955,2.889157252736881,7.878247459443054,12.854014314166601,3.7174189801265314,1.0033628423056618,14.274328078521608,17.530009456163416,3.128493415683316,-10.615159849018884,-14.452003753288173,-10.135397919009762,-6.659722191612884,-13.175808840824848,-20.99749409174308,-16.554844147630696,-3.6613973025090907,4.823710221362461,4.337672955969827,3.228810762842297,4.483786115177864,-7.42163087778232,-34.35136187513339,-48.73936463257942,-37.48876741473473,-22.289072347245245,-23.552181801101987,-35.560125584228324,-47.210423685912474,-57.58384567814342,-53.49009416613823,-30.40862821966055,-18.777270785409353,20.204026233777753,201.21830618201903,467.2458074251784,537.963750122078,232.07760819115651,-283.22442992792793,-598.7796009244686,-485.2269705588156,-183.52493985794177,-32.56638334011275,-10.527396500163363,25.21274677497295,41.79189050011441,21.39027946122936,24.52413326955798,34.16525840158576,19.466264048725936,9.655525501928059,8.860895392578708,-1.1973208811896559,-10.277305960031569,-11.640078548597483,-13.974472276003779,-14.925590866121409,-10.116031661135693,-9.28802332454406,-15.334899511707002,-8.420863838266106,20.344346775113173,48.32233172661814,59.58698245921128,64.06917157928123,71.51240468561708,79.07808973645035,79.28018876066164,72.72230661790655,65.60609802268478,46.5318783122016,3.720331761552437,-39.673598144405354,-60.09580252534565,-68.59225179114009,-77.14306437814957,-80.51047170232894,-75.87361696986108,-66.41391019059563,-54.450880928599744,-39.88780429610922,-26.727627578310504,-23.307418260126006,-22.442479436125197,-11.933425631767971,-2.927998348344719,-1.0880813140464873,8.114091790057149,19.103848185538872,20.089561495282837,18.979529584745286,9.599409545666756,-12.056668471447654,-18.273878786511187,-7.154225335411702,-6.388609584162012,-11.031057818483877,-8.534357784099367,-4.758097209739985,4.619003496359813,10.93503266531554,-3.9766133259785725,-17.135279864889057,-9.49480382366227,-6.646353396733403,-19.682327547294392,-33.638171781210815,-42.5249241043208,-44.879513308091866,-44.33290837435416,-48.58533710703266,-54.29858576507601,-51.093842031699445,-37.26505044830853,-34.27915679071529,-26.380038131121356,93.09437378762674,341.81825910411055,513.6172899277535,396.82457334084836,-15.089482620473035,-478.88744320756444,-601.527854504106,-308.9350157689562,-20.77621863089837,16.39958760077466,9.066111275231151,54.64797490174428,45.292307372467434,17.981769391988237,32.6925809790696,28.205598302660597,3.1305662370378973,5.5336683554240045,12.532973478740546,-1.8855372786124747,-20.823802171557766,-29.35194791290669,-28.61050706901542,-27.8868508211577,-27.48277433524815,-18.168716478864397,-2.693770239824147,14.852011659058427,36.64740138302119,54.879546790256114,65.7624459127154,76.61148843425313,83.31800214978539,79.59898686028313,73.02208699531263,66.4872553885363,50.447650393120696,19.691531093063997,-17.369894393656722,-47.882659006887934,-68.00855092736259,-76.48845737322202,-67.82214600273251,-50.00793100553638,-43.3839175229745,-51.20553183112243,-56.51076670208451,-47.2010698074896,-30.937570838303188,-20.144624205113097,-10.868923727235991,-2.1883951903097625,-8.973528774712712,-21.489466001242704,-13.10337562803429,2.945387986172232,2.560127421292954,-0.9036291197854869,3.5268960717073057,4.730812422087489,2.6572062224634028,1.107030212925789,-3.776751631721112,-7.424812707674656,-8.370764736524471,-12.725201914917918,-12.269440772272073,-2.993762003401013,-1.0647101371098469,-7.191382208056947,-7.582159649050286,-3.6620545171310646,4.634208758466008,12.38662521466841,-6.589398336302452,-40.103289536483466,-44.271662773242795,-33.25023659966338,-35.764776570823365,-35.223918032428706,-35.7234030380994,-45.99504463519268,-42.02264197164237,-29.54316145892393,23.590219343072775,211.34439011877936,454.5207944745239,494.30677689052044,198.46033522942287,-285.1660881312562,-586.8348968419563,-453.8149910910637,-128.2787405933864,11.74477703632784,10.854170883558304,43.89021918308816,56.603915994655935,25.808064141758116,24.75194623066745,28.73661440554856,10.264844720139951,4.152049453858417,3.726504512573091,-7.382102892711469,-19.227397097750824,-30.130124450068834,-28.724428517393736,-15.345874563626158,-15.703201729302961,-18.361846715711017,-3.3862140515907146,8.224864515878131,17.081168262375023,45.05567140174195,73.11545885514877,81.9067887838192,83.6005091603936,78.1045168238275,63.104233733557265,58.682568930281015,64.91723593116168,48.26022839068944,-3.6486351573761517,-56.641804986944244,-77.09107985382515,-74.60014289867794,-73.73907668407469,-77.24562484785403,-80.21537242060933,-77.31157481775178,-57.42249208645076,-28.74332463072532,-14.238384280165263,-13.21681414415563,-14.6065403573214,-18.711562773019303,-16.899404731829357,-0.4408255807177568,15.1513775201181,15.500020423571286,9.094182548917093,7.76497171423131,10.070879378797795,7.207328007499765,2.2168231721752294,7.793463350197606,14.102051033814066,1.4901263877814621,-15.403566206867172,-15.951128719433274,-12.414128561122137,-13.21960109910334,-10.238294641423597,-8.871262713525285,-9.319147055241974,-0.8594343131218469,3.6985008196797047,-5.220079602242352,-10.653698151308431,-14.36159873437014,-27.38111613710813,-35.106815770284825,-36.43994202364107,-46.749983865763525,-56.50844642196909,-54.47523379142637,-47.76247960902069,-41.356297534914106,-16.826525965736195,92.84591085727999,319.68807493352483,508.9895740805807,411.03211931207125,-13.332132630403166,-461.491029984255,-557.138381003584,-299.4815082623493,-47.905702375913805,16.58533357442647,32.682503655543954,69.68370634826626,66.71721787943578,40.85938215875461,30.496185561793148,22.67713177899183,13.71768105566164,-1.2745016743384516,-21.730957329712034,-26.001335294195876,-26.287260083956646,-33.77795987398882,-22.183997784371446,-6.740435386069878,-17.946570938629364,-24.86729870884586,-4.746056557877609,21.19650549409172,41.4299632485689,46.667965874126,35.21534025007257,39.782535316074714,68.10129942567477,79.39685808430252,63.57425745035951,54.976243998125454,55.00488668779078,25.621157831098678,-25.273585011436175,-43.47300618889282,-35.12606333499255,-52.9621927907741,-80.79781296465819,-72.93115113565676,-52.53767240356521,-54.91239375598656,-62.3797846829746,-52.51694227982183,-34.3132538867498,-22.253744845147196,-12.027511459606362,1.3787620597940204,2.687255992940745,-6.954396210850547,-1.043234575121291,12.03397887452952,8.409651159975713,7.008933478336495,17.298101589243075,12.054917254475585,-5.301618477155564,-8.765081480716336,-4.650689777658762,-8.035403567772555,-12.774468129408255,-10.362686830083838,-7.02042790282807,-12.144815859456301,-15.138975540331199,-3.8204187934747367,2.849198907632738,-4.976372802116337,-3.2823249452893375,3.438639668765898,-10.60314660944565,-27.51592378589399,-31.0016419718565,-38.18371135432524,-39.9050102032336,-32.403286293776794,-46.7842761611818,-65.11972390608379,-58.940897072395344,-45.95926457995764,39.23666606630687,278.9099104426866,512.5853440285688,453.70771812558144,48.800150326510305,-420.8160168263832,-570.6251639480369,-340.2088269717622,-73.38803410373833,6.804649363000365,25.613494333852874,61.97593443034732,54.54497499979499,38.62574027161745,58.366792520295945,53.92940340836907,12.976630473445866,-9.334993408365397,-7.301933231629462,-6.04625547548916,-10.93135290358518,-18.398384964658593,-20.696527935047477,-19.79268372656063,-24.907429320073987,-18.10948980834413,8.901563094625594,19.217234030152632,10.94424343183665,24.755007912216296,49.54320995728882,62.23896909571583,79.02871226943688,83.83129562772903,62.905178179281044,55.170057034676965,48.34572564026225,6.030199971959123,-26.07189187851801,-25.951930165228887,-37.69484265882812,-54.65484725994548,-58.65675217161744,-72.53553955402965,-82.76672360694802,-66.16988897430174,-40.28207269577731,-11.367376792298607,11.359970661487834,1.0728370941427698,-16.459293975914267,0.37755103795146994,17.21262000894899,-9.356870935646198,-34.710114793140654,-6.65966828312973,27.4107816820532,18.07564066130498,15.5734781740635,39.41604352484174,25.224397069877597,-12.056867886446481,-1.434117523372369,22.590007064159693,0.7738664170242817,-32.94536095500406,-32.71638360670371,-6.428321847804847,7.731843192438015,-16.98703978713808,-39.602041759696974,-7.968971915500156,26.628135419227267,2.3440040988111672,-25.894947612531016,-9.381242572752477,4.593780893349573,0.0784519702515647,6.391540232994642,1.906015861140438,-18.480657172080505,-15.13694049510327,-10.412079988244054,-30.21950906574756,-30.789211730522,-14.874831992805213,-29.61505152281151,-74.57385161304332,-119.26191470579388,-66.08909197051304,157.16197979529665,392.90188458456424,463.22301175772384,335.9607800081396,-57.457122505069464,-523.8296614220031,-523.6608599621923,-108.31810877114144,71.05479519755013,-33.47797555132929,-11.492237982413943,67.4672597396155,20.910823823712622,-4.301646271813269,28.104923528426813,19.587508968348054,12.127496716877356,9.648981955351344,-35.69208403817634,-51.39306488540067,-13.442832442031545,-2.0413224291300516,-5.459207195498353,11.125356384057994,-3.49383866784253,-42.21406261478259,-33.85757291857176,11.940131559588366,45.70045844107087,56.41570908434344,51.45426967124581,56.63702725575405,83.1729557381746,102.13759096350574,103.59134224349114,82.47342012995755,31.0781755786741,3.1671237221060577,5.492003785734095,-42.78352540379733,-96.1838386502519,-67.18879807717411,-54.235520105814885,-104.14752721466994,-91.80727081308095,-34.86863621788791,-42.32604638912026,-51.5685456136099,-11.780966734817646,0.19142469946254792,-13.824063063627072,-7.775273931816811,-8.687552243847,-2.2786812274675228,38.3846629108467,43.84409908489137,0.8540265037124151,-5.7870740060589725,8.80265269179776,-16.174649336277312,-26.05240326301365,10.650078637195978,20.10718762006516,-9.313324328427687,-17.820258971314626,1.6354349092452445,24.708666033048942,27.238374477593595,-14.573535194025453,-55.49346027550602,-29.575943589006485,12.41279664818562,-7.505037294210071,-36.18855111363435,-2.275494183410551,34.05046202359574,-1.3921009465017775,-55.25748138682376,-44.48051518755415,-4.844553447833118,-26.56616734916262,-77.0823771970067,-53.68922324062689,-1.431260694166383,-22.099657466102155,-58.52912338213492,-57.25980856029318,-56.07267778986346,37.63265665684297,291.14906445940227,500.7833168625625,463.88094069715464,142.16825623154358,-345.1957626506896,-581.3768312967413,-324.4335601713119,-11.682336181788394,0.08156245599097645,-26.1027892471437,49.019679624329044,43.885053777527425,7.063308571601771,42.02214185943572,36.644001689843684,-12.623021516294312,-6.909292223499092,-6.577334328509243,-55.369021394329046,-65.28556015518117,-29.832620431781,-11.880201783570591,13.020758948677425,46.92697487224645,2.1327141637541835,-89.16648585482004,-74.39697858020878,26.47721127916049,60.958264073067255,49.37566797210529,87.8418120005567,108.84935399570342,69.05083646366049,79.80509959048484,126.91324074995842,62.687886783663686,-55.17310981729641,-63.78749086585895,-26.238335781275275,-55.71128917033166,-71.41727019740605,-23.42309596319581,-18.472862553014423,-82.83633277362266,-117.17384449873695,-85.03637998062202,-35.03239689785216,-9.65927647402939,-14.032742093579124,-12.0235445775818,24.97149114100749,50.08134296178784,10.013985999107875,-32.54194357523748,7.529469002054538,49.11173655991358,-15.390674104083619,-70.32811935287084,-2.316510690310004,44.0796311938261,-6.045167885298998,-3.0092159230397106,39.7923851113253,-12.806028582852427,-63.73167200247768,-13.636864260440468,20.550522192389675,0.16189676668674124,7.509474388312984,30.87330704641303,24.434958655329662,-14.749605855095393,-64.22834193174648,-59.349027081432695,-6.423154120405139,-2.86016920474723,-37.693528363044805,-32.5622148594036,-19.966309807558915,-50.501454156556804,-88.61218702552996,-84.26919355799488,-21.531058629240874,91.16020835351192,257.1825292714045,455.4889977253903,495.2768027573568,156.97769680134815,-381.23821579442136,-624.888753006625,-403.0842895737519,-53.55851114321082,91.6422560390989,54.688713146741655,7.506466703569899,4.850660110344641,9.124717943084244,15.247663029680904,29.171798820528938,11.286890496241652,-33.303017049395706,-21.116548338396257,34.58031255374337,12.354651266624344,-71.22805548937957,-83.04317783546742,-34.38238832518459,-16.13586262650771,-11.442760257793768,-5.102109202952742,-23.427597654443606,-6.555639593990648,74.27424145508866,117.0450704811098,89.84087054971755,74.36005711945192,96.42814672765624,115.77047961073353,91.80212547996585,25.59483213700199,-16.503960032131083,-15.277114098649669,-32.24935881265483,-64.12196826387294,-73.88611255193618,-88.03008771507484,-98.75207238325119,-73.28119250294617,-57.3949109531446,-72.92264321588154,-63.88324652926756,-18.24065172286272,24.389990231160287,33.46846582438776,-2.5367556159998657,-41.102962690979666,-29.78817687210254,-1.1080320062064501,0.12788778482047292,0.011820337118269464,12.019220185685818,7.210032000570671,-3.7610287247093854,10.250763801855381,24.72733444266973,8.025977528550175,-8.614689268961499,1.5474920442409115,4.599326946887604,-12.809553253278903,-18.979818338138077,-18.717856273349263,-34.75764073098371,-47.86924306610945,-43.853637295296465,-40.39130837391235,-45.40318569489595,-46.78863090195776,-33.74866870214224,-24.15432298455319,-19.74726215050037,77.44303045947345,323.9224344804131,525.2992827043286,404.197048413071,-48.43478176311589,-502.6226455785098,-585.8177584747659,-310.6146320651841,-50.54241322972772,7.753634244388621,15.824588954501849,56.62393775186479,62.9112036043955,47.327695259654284,57.290360805318144,61.25397666797319,32.608646351372926,-0.7698005457634487,-15.777687585150328,-18.73385610045035,-20.268672583994295,-25.960389530585843,-37.94086621601861,-42.6100807192291,-28.061899798421166,-9.285238835354695,4.238994805463211,21.81908677706994,41.24215711301865,58.72046787957365,78.44011457566005,97.88471721663042,112.4278148791654,108.96291910398135,81.82625122867108,60.63313200924011,51.227304910899,19.950327127679394,-25.593765610498746,-63.62077859579131,-103.17680440849107,-120.8212222709871,-95.60181547855686,-74.03798434620566,-75.79577583965533,-64.74458284990214,-40.95468960230713,-28.65562551297353,-27.186784400455682,-25.101755955976788,-10.603496564078405,6.319525078201128,0.08326831827470116,-14.869345672158225,-11.755589485832644,-3.0185268074550997,-1.820838293789329,-7.115743457625673,-16.146201300734674,-6.772695310187378,22.19712953479342,31.80104848760355,19.199407748405044,10.497626187925293,0.9433407040298691,-8.366032922555329,-5.09342179919649,-6.970942418791834,-23.38639678068596,-36.06166745053462,-38.198375338486876,-38.525370510916744,-47.28250162313154,-49.3185167279933,-21.602374763617792,6.278117509831976,62.980714484330605,269.91116964717594,502.4776386570996,394.3321282461219,-76.91424071942569,-506.7903510570951,-606.4575355624286,-409.17839045177016,-117.35603926370257,53.238040488839374,70.32897807818334,64.44359333044089,77.591365129237,63.347626297663204,40.4227938773528,44.62045110536599,51.81023682516309,30.527338136848318,-4.952207466748088,-15.936650417224998,0.4428756851796951,7.496634537650339,-7.619731579367737,-22.95552790296713,-26.25404991756822,-23.631297620402343,-15.828738919899013,9.210457916998443,47.15123317613901,66.17317374263897,61.17334072913438,64.88828756539597,80.9237612408631,86.58088575913305,83.36871422761396,72.60859142760704,41.802687795691284,5.027383660267323,-15.31484054850517,-31.09252712431168,-60.02652400275073,-90.68061418337831,-103.37436588442812,-98.56780193742597,-87.91692170780641,-72.7876909748335,-53.433313368559425,-41.443616880233265,-39.78414234388055,-37.9726932603977,-30.777069883849414,-17.51658280769302,-4.944943979849789,-5.826175634662263,-9.622202098521566,3.0687904668966244,19.836191754293157,21.35818253484444,12.362981240265334,6.1552850336664315,10.758476689907894,18.061928071388103,11.469606054792862,-3.0834593303680347,-9.7952535541844,-13.52901761101826,-26.402365284869294,-40.995644393305554,-35.791561894707385,-22.150779630270428,-31.369257079637865,-34.95593464296103,-4.501672692639554,39.59101108328499,171.29845777204758,421.41299104111613,483.9429728758364,99.81825654584216,-434.26229847629406,-650.241747696153,-482.206152476832,-182.2896559630242,11.717995291671876,57.8884257105415,71.0327713933507,97.78279268138016,88.19074150833842,63.0699234038064,63.671623082970925,54.49374362087361,24.531112550305732,7.438930460393234,-3.5293723095112277,-20.364403680329833,-27.55699867595878,-30.938927305188727,-39.2693285867887,-33.60898475743191,-13.603534688365873,0.11946369084285813,11.877438486574494,33.61506946639298,59.24663367723447,