ECG,10.06135146192311,49.83030982066858,79.86446921684623,102.31344489433661,105.29039519179385,90.70643059581863,93.80534030898586,114.39178731468091,113.2363860002234,88.10461211110291,50.656746551857964,-12.418912823523705,-76.38085987294801,-93.98490801282257,-86.75502732293998,-89.74653759194811,-82.83665515359112,-69.14924998132048,-77.38088889459826,-77.71014595397895,-44.43861858468763,-19.656853918380662,-22.08976500895738,-20.246331735119064,-8.002961023505364,1.1968710262529534,11.077787765570562,20.96966516561076,21.32566701837662,15.79288885689301,13.097386633822767,10.03615138281539,1.455020936340997,-5.367268362565341,-4.78626437890577,-7.639267548775955,-19.2015395320819,-25.769600249387516,-22.923616969291437,-22.690520448501303,-24.3577527011915,-17.300629107096473,-8.852141189018003,-12.214013401615208,-18.6949394557398,-14.289036237669317,-6.350163327565321,-5.318118107171724,-2.980321946011408,5.139644996153898,5.656149699501782,-3.107580851458355,-4.086512220442884,6.4360976876935565,16.550814646273572,16.85940441864741,-0.9001713599163423,-28.795137238459407,-36.398424228587736,-19.917522770962975,-8.655278041106758,-5.798039514429016,1.6485116271009765,0.6766082781011296,-9.282205440894334,-3.2000469380102556,11.488026361360026,8.791800321382762,-2.3012811125551957,-8.070491613898756,-14.036400345983179,-11.586061878314425,5.885186526903364,18.66967246998267,20.795241700546942,18.724741283373806,-0.22725291950409598,-25.88325580996321,-23.118807751974206,-2.5856994568853615,7.746971396425143,15.187598434995454,9.12119177055391,-27.20054756370472,-48.42675684217787,-25.001489575702475,1.1319514537777433,13.93318639985826,25.648429435178326,16.37420973833978,-6.573024910918271,-13.781091592196415,-20.305074929544716,-33.5548424295915,-46.169280716659216,-65.62101850375731,-72.50701301675403,-78.07785848467165,-106.84908842481732,-105.42300475244343,-111.88318590014197,-163.62713889873592,-48.324197618744975,240.56849406283598,460.9029859740735,715.2604746022932,825.6166117069495,175.57028747797068,-668.1035257265681,-569.6486966656163,-63.33967104847633,-107.64047962800312,-228.9260786097946,-32.21357149568323,22.267752645301528,-61.39181603053514,4.250946725904107,50.73174852619672,6.095484776986067,17.483402404957122,37.73937034938344,14.544040875251538,-0.04427793291302873,-12.641882052585057,-20.420272245129013,-8.219374824555938,-9.46362507413696,-18.121151827141333,-13.110124473340333,-15.19035408009109,-13.230115239109491,9.822248571524849,25.14185181184305,34.80483426989713,61.1083619742918,77.88928375317529,74.84733167636556,83.12364727754834,98.07841421871024,94.9622631270462,77.14206560161966,45.19713710922426,-0.8232903973718018,-38.22382928918102,-59.50191193406074,-75.9869363247971,-83.0473887045433,-80.74609557468321,-80.30609174366084,-71.3570727902059,-46.372116412442494,-23.119501874200573,-5.759222468627268,6.676313311720712,-6.2757174941733425,-32.488005938828145,-27.25174711331539,-0.4189255404508607,10.766721815325093,16.522155163605763,19.549389253143218,-2.5416166331908876,-21.756392216214707,-9.810328295390999,-4.215071198193812,-16.023075991597544,-12.02113526131795,-8.184638837573669,-24.18164351253272,-25.16021537630878,-8.034191692551882,-7.482108533653207,-12.785543361175788,-6.13430269159989,-6.294721845684087,-11.695767162085279,-5.079685891544501,0.5701246308817076,-2.3277361633488454,0.187005616529758,4.339522926393009,1.6660498760313969,1.07896215219,3.686805244692967,4.624149197216363,10.788087682042697,20.06933766353758,15.697825296326744,-5.670452667487096,-25.565792171204556,-24.425430407044736,-8.139041607611775,-0.9333008583941176,-3.3205719937227087,1.0207221573688798,1.3415640380364167,-14.038781939487064,-21.784510971479943,-9.99241435454163,-1.7438462834344,-6.662554861838986,-10.512644897001707,-7.463376383501114,-1.543361697727919,4.8919823658961885,8.345714104706433,4.530033255612511,-3.7468391231896225,-5.637652415562906,1.1398743774496845,3.846954634736231,0.11093748893464461,-0.48733815385145984,-0.9976461527418153,3.2344484962905304,26.376618782023954,43.311762699060026,30.40157922465906,15.016743849810219,0.5296089064992642,-25.03853059495164,-29.328132125214236,-25.82529422885699,-46.604462677812194,-53.12355798638308,-71.16377386535584,-132.18317018701933,-147.22765197951028,-148.85358814976894,-167.4400283471703,3.5819802533789726,314.6130412350569,539.9732758923641,764.6070401774775,690.9671567982306,-111.01611945637707,-777.6907045943389,-452.3082789896377,-18.623874318359157,-168.5842349717094,-221.63773239435523,-6.3320784727510215,-10.444854720849108,-78.79292965060156,8.516726363224098,25.53670969972248,-20.804901622579425,11.29538013007993,28.468204864624113,5.002001134114538,11.728210420871957,15.194059665338143,1.970713148455852,4.677342664554715,-1.6601619314453713,-26.659590974533018,-31.125378829643566,-10.179159593141781,9.441480315971491,20.25635982915626,29.011996642969457,40.70213998997838,59.99512920320125,83.6627431489795,98.1441436922579,99.41671755769994,96.38193304182346,88.99126086477379,69.32593360232768,39.145217113781605,4.007438498833807,-34.148631312016946,-68.01583862050688,-88.6385447711078,-95.66215344115197,-90.34226908870872,-73.95379150277,-57.18865340425276,-49.496033098467564,-44.09985351867374,-32.026918382199895,-17.395298638570132,-5.914988108023319,3.124531057551888,6.417281498073262,1.0141033650357532,-1.5768750845229214,6.749279017633857,13.799237353192963,15.338777229001826,21.680878229572976,23.248459445147397,8.777218679702903,-1.6229063096041567,4.39110099748086,14.135067069453045,21.033801275356005,11.542896898413494,-21.96764683844126,-38.95121698225057,-17.624189656549845,1.4240800820555606,4.444525175478052,6.041335914202035,-13.091297122048648,-43.21855101513675,-37.51521265494978,-12.318420845985592,-8.412422842466976,-10.746076244825913,-7.288121228178518,-11.861720967248013,-12.32267077208813,1.3695689227931656,9.17967640687818,7.432330293997923,9.158552858649465,9.468659737218024,8.619122782948935,17.872613582931187,19.48136138136017,-2.9631195424175054,-16.66180401146182,-4.500065614595156,-3.6979687083827084,-19.80174068900257,-17.192382804994775,-2.2483247846250602,1.9513723755713777,6.600076327628207,10.039731696372439,-2.908080537435943,-14.833616061440557,-16.05445071326595,-22.11110261316503,-20.04403721686533,2.3374607260901232,16.222159449404568,9.81635342417573,-6.479876271298572,-31.820638444926843,-44.344360881133525,-43.44237902266247,-65.04541365490832,-82.20301921082691,-80.38871905258586,-106.38931215421869,-109.91018443837473,-79.08132180529242,-107.41345928471392,-49.602254167674246,234.73006763521033,523.5326651357547,710.1002840207311,695.0470971295824,91.49986790818272,-691.6479537772203,-647.7339442727148,-108.44526831005076,-52.48444838012499,-193.75803440076476,-33.85113640280796,52.97964845704781,-45.264840948389136,-19.584373643675903,41.53690582520149,7.926812782578072,9.53810980874133,35.81586038560639,10.378281327626743,-7.841161545171192,-0.5079739864184969,-4.181076941166952,-4.968381615288263,4.72308357290235,1.601611447828482,-14.109490900305726,-14.689222154947,10.449178164700417,40.58244056114036,66.18189427438996,90.70089035404445,94.99971351863093,79.93398175094785,86.60756861416505,113.31223594947939,114.6245215092413,86.63292740224455,48.35533539144267,-2.9451766880474524,-52.042676074920536,-73.21435597039397,-82.1234376223182,-97.75897029776831,-105.57441975794048,-101.51526773893104,-94.95261889803511,-77.73396598645704,-52.17783713043166,-37.333658143131295,-28.832907105856854,-15.566553614617291,-6.3350863021051715,-0.8214085398614266,8.71411037902145,12.74635933865353,9.86100128206256,11.0696368430563,10.630746028672469,6.170889237063035,8.747290317422786,10.783964991336255,4.745878203630117,4.202114659078208,7.1152185147262665,2.010376198406634,-0.9725242605625972,1.837762707308649,2.0395707547985786,3.6260275984241703,0.46857441265710875,-17.552199610011076,-27.7524527371268,-16.72847064155492,-9.711165254108499,-12.19500131289891,-5.705323078262159,1.8802601055801853,-2.885115092528915,-8.838735505101862,-7.997070278832446,-5.236009196513961,-0.7176368570659779,4.5488697580609045,3.100825604501553,-4.3947287643132675,-7.233019749090617,-2.958865224862487,2.431031594560616,9.129313726833372,11.579724565827803,-0.2507720600026513,-9.967780137549672,-1.9600203526901392,9.988713717181717,29.18632726253356,57.011766070159624,51.510805174335495,10.498340365226843,-16.57876588647952,-21.77781597542794,-22.968532931057776,-35.543582641017025,-72.09387616266389,-105.57624512687931,-121.59624529359915,-125.25924592490779,-96.7665782329527,-89.27534165232404,-99.96286655345125,64.96078530370066,393.52859877043284,641.5713497587295,692.3016498535355,323.5954075249248,-465.45217958617195,-829.4032584279379,-372.9529894500621,-2.7983599565591177,-123.07168523033042,-113.60723687240592,61.24064280126497,24.395563959972677,-31.013402193506916,38.43858824270484,39.00416463271463,4.733942417664907,27.280807160476023,23.230147138583252,-1.1856869790157445,2.0907373379768828,-3.068297352577349,-10.640932593150108,-0.9602398553411406,-4.348465130961653,-18.30913911243082,-17.097051002623022,-4.870812811172952,12.055974328703023,32.03833561351154,50.142385135105606,69.88355869167637,89.07074417534392,96.03643225804173,93.00616858008965,89.56003389099197,84.6608487890972,73.56099003222381,51.94265006657516,15.89317777059423,-28.17171279146284,-67.08390718516976,-92.98854304775197,-101.14911131261377,-92.42249448828879,-79.85768968363831,-72.79673842532254,-63.74223525975527,-45.888052371066905,-25.532386204583904,-7.572191172283006,8.9581991463104,17.78696765539194,15.284527050657879,15.29645875847703,23.819713277486244,26.232599247649137,19.037985038418025,8.322258222069546,-9.662260382743952,-22.38257052350685,-11.744118578315526,3.2356384012761126,7.913534583913686,14.921438517151724,6.684146208382328,-27.81772427986939,-39.092558549423345,-12.628546742616946,4.248105108229835,6.679335277953294,8.750357805087717,-12.837775889868055,-42.362824502919295,-34.525640774057536,-9.765994214944481,-3.158956830964689,-1.8526513076389133,-3.506115507125344,-17.74307855161371,-20.27441998777904,-0.8316379707691723,8.040615338427553,-3.067700330357802,-9.150652934738506,-7.073342869761369,-3.1019878358567556,14.201024222785215,30.951079909831982,19.066165069069747,-7.079553815781722,-27.62455076424925,-42.556231054320534,-47.166272250397576,-57.07452931790307,-75.58951529167243,-75.86968511219146,-84.31304884523749,-102.953832986872,-81.09359791049187,-74.88150225309344,-58.59001124718884,164.77913280367514,519.4951234051551,730.4694482737436,657.5199507680533,123.61083070427725,-640.348065645658,-774.1123229822997,-238.34290695223848,8.990394157331444,-134.0369083141676,-63.79300044640139,79.93627032371656,14.677945478112726,-3.476193554301272,71.12047706900115,50.709517649186985,18.033131719477637,42.506992001012776,34.31775075276879,3.10156604597415,-2.21369779214447,-1.871178068522834,-12.415123219343457,-26.80857839728317,-25.97860997325261,-7.021970514009464,4.43659399448749,11.733915063048286,27.821408932979963,33.29260999287537,36.63554520894341,63.18336059636507,90.55272558215158,100.44697808137668,101.46205081774255,80.8043623184161,43.73196505179859,26.444869819730663,20.10427508642383,-3.474672553198282,-34.3615490829138,-71.079449417538,-115.98496189655654,-131.9640264115345,-108.288054761509,-83.0870525256449,-65.33638265008678,-46.0205163968607,-37.000866124915945,-30.336743181203197,-12.802097481581868,-5.261146431236533,-9.45798687848334,-0.41708399476980773,9.206168194312333,0.36579133298420174,-3.147397216183162,9.3124063363778,13.144419075325734,5.357829857569939,1.3637673680132671,-2.2416458302111693,-7.360982641701112,-4.901165365639507,-1.1298655546507952,-4.699614448930792,-7.7822306693596985,-8.277308672147196,-9.897634860292262,-6.419232116929592,-1.9198881289146303,-7.219856350540207,-10.361694179572517,-3.300359889636173,-3.2472765170035505,-10.65321935345127,-6.883772149450389,3.8644440549204333,7.946788877636649,10.467469521725015,15.820503149489962,14.301359941612944,1.7170804404592843,-12.402913463481378,-17.795255570875753,-5.993563580792719,23.15652564633888,39.16276703333658,13.318923713891884,-28.006564099361555,-47.93179770028101,-51.1829352033335,-56.31023445806245,-73.48716399188422,-89.51794035776946,-89.07542159121797,-99.27698318949382,-110.6920339901898,-83.97498021691142,-68.91827034639634,-28.54091396680812,210.38637614389643,591.3412180362209,850.9270059510535,739.204245361205,67.21040462825137,-747.1485045368722,-813.8527914146212,-256.668600857713,-35.2683830614247,-154.70675727907764,-46.97167319053088,100.57775767512418,23.7695359151939,-22.591646361991764,21.857561653589723,5.96604632221622,-5.783564937699122,23.440483983635815,12.996180607083621,-16.058273962031443,-21.327469503182083,-18.931100953611356,-8.46624163564556,5.273335717521281,2.9366929052519364,-4.677132386363663,0.9861270793011059,18.910930744311063,39.21619402213279,55.88729268132897,71.73907182161497,82.71403994774778,79.02657751345313,72.80021550986703,77.61423996959935,78.40035748673458,66.46869998815762,52.09098497850354,27.20890408092616,-14.510885545797427,-46.2263302436411,-56.87776485217476,-69.81286679971356,-82.80154205184745,-73.51470988428949,-58.09547205049985,-58.64107024378918,-54.36223888591864,-31.53734407349885,-10.145231705353034,7.9861833695787645,28.54050967098337,24.704335677005197,-6.968220195591677,-21.473488853020477,-10.11994687160741,-9.309992270906584,-18.70232070957057,-13.909465463275001,-5.358637271366931,-9.030665281708096,-14.279118513693401,-12.70917442585964,-8.100841513433384,-3.8721928410215547,-6.0366543388953815,-14.07998342683862,-16.83207136034714,-14.187142447209268,-12.269975425431717,-8.198052733479177,-6.170270128170312,-10.351601394063486,-9.373702609832065,-4.328488949980201,-2.22757231909379,8.01564420316797,13.273209068321387,-8.441819745304247,-22.457010007135917,-4.599596396262453,14.139774421631444,31.17313201794249,45.210463262644765,16.92041633454852,-29.944489058500178,-42.97629090112612,-41.47173998195725,-42.71850379552521,-47.74653822840388,-78.87971016386757,-115.56622674636955,-129.43169806344216,-120.1829921555478,-82.590850218733,-67.30168876349634,-49.35206116977041,157.28978936123062,529.2099584588441,800.2142483861687,741.5351920922899,141.9837004876019,-706.5041476879363,-876.650377902899,-309.05373554016785,-15.732553047492942,-151.98133015129628,-77.7624999808076,96.04852377403616,40.33723553235279,-4.175774329666702,50.99724077540682,37.164155050878264,16.43984632017591,37.63677140809735,23.903465384786294,8.938469772321533,21.156534383438423,13.490598361849024,-7.7159354104811655,-21.160015317049755,-26.770692478579942,-15.901344377825408,-1.1140675621071807,8.766395467115704,28.905168385651113,49.82409913252964,62.73679842642568,80.19881462388528,87.20206043479499,76.84708512220124,81.8109117963883,94.16318639663616,77.42371139796782,51.175872916232265,34.51522330552745,-1.5946459619792277,-51.920844852079846,-80.29448090246586,-93.15045988119259,-99.64541831505402,-83.89819004905706,-62.95474495122275,-62.373700877615974,-59.14597016199319,-33.56751639938762,-5.643450070263459,12.842953277177571,20.556744402167556,5.7950318336530025,-14.958218831706878,-7.5306496699511065,14.07424747038527,22.550688921162216,29.40455766528089,26.147155993645335,-11.48797584758708,-40.954480090771995,-22.1164176051632,-0.7424233766336013,-4.426176545455258,-2.305885848616411,-1.0018543378410083,-14.293757499357149,-9.300446989811444,9.304398904009387,3.0545308402234834,-9.386638839889736,-3.780307779743861,-1.8820537867021834,-3.051953585643144,8.191015740199095,12.603857971047,4.288461144778207,-3.7161908970344975,-18.79802952259446,-26.201795377023743,-4.865682604547494,9.206815140937854,-3.8046568348062664,-16.637748323657085,-33.82134216986424,-56.210453372889866,-58.779943582219694,-59.92487714995275,-83.50533122839103,-120.21908961885096,-141.3037522776773,-112.92450596899943,-91.75475600826763,-96.93417335982289,61.9788590649533,414.3600824241999,711.9997607720366,796.3667003437588,435.49859678430283,-415.0363183950144,-902.4886565419849,-476.35213561333023,-24.247544897921145,-121.52822544061044,-142.75310771123608,61.220235839781736,54.78970166790684,-17.224072488485604,51.2037081396005,50.80486837518784,-13.379116431640547,5.141991143221141,20.750435754582803,-9.79310688478462,-13.597786348977689,0.009718232541109373,2.4701892887269654,-0.12068507838012188,-6.5474761035708795,-1.4372744510475393,17.13168975719605,29.24344899682873,43.79238531527933,62.90896046107193,60.92302740996409,54.21812315512777,75.69485333696859,101.33725045404825,107.12523685219239,107.92181037903192,93.31148833725699,48.127029649152334,5.632112278697557,-18.075109575122415,-47.57067671784647,-78.02840043037777,-92.76979692624741,-105.03652079622029,-112.67632084237798,-96.34560690428714,-68.43493426360075,-51.80322340517805,-47.13418680904148,-45.25177599848165,-34.442446082197186,-13.74107854126391,0.3982249895246426,7.143574299659868,19.49919927145168,27.955791547448964,22.202323276939822,18.338579613657743,27.501184581217913,36.3830721658039,25.826534942345038,-4.518948895155495,-27.587136760557037,-26.34308196501003,-18.703772277140697,-15.385622083990647,-9.073555743087175,-7.557303685584687,-14.431240024154388,-15.036261378568364,-9.305409105331254,-4.349846553704218,3.1564214117366776,7.679421660735651,3.08413979795397,-2.3263058182432967,-3.347127787945972,0.6693086775662822,10.160850347469633,17.335006208832198,15.051334349134526,7.196986798534641,5.186568239408605,5.186668819014163,-16.890438156942643,-48.51104115338461,-55.68309839378176,-59.80046407730278,-75.91590837502157,-85.29257792634965,-102.83246159830286,-107.69016499994913,-87.22664335872854,-109.24487870339132,-66.18388522353627,211.29441490602616,564.9504541845738,795.3183383670703,741.673571736051,107.20596286440899,-703.6186174710708,-722.1980970871118,-188.1490344919065,-78.44127252188068,-209.58094854618952,-52.887284736584895,70.3322788806708,-13.25645375316003,-18.61223867428015,19.833450005863714,-9.870458965070533,-4.906168465467621,14.065755128786051,-8.570999439012489,-16.07626420844887,-19.569974666361894,-39.08774377944115,-29.991982406365864,-7.2232706153536235,-2.7596042657904682,2.6082194650164876,10.70643511971074,17.07517985754362,41.50377164577084,78.51496362198817,97.52912786610025,87.67332494928552,68.79169147483157,69.14788963433615,84.28034663444471,85.96531633123101,74.7440981350787,59.756769582162796,22.27544662377855,-35.48227956926215,-75.1264943811262,-85.34572233753754,-85.27494007719378,-82.64156501136254,-80.01649482388189,-78.6320554332749,-66.14630191793057,-42.1208980447393,-28.317958027412537,-29.623788425436693,-26.857541482310893,-14.35379522043619,-4.483634602294462,1.092454529355205,9.366817363907213,14.905316889074996,12.718163587152688,12.143165799668587,14.034016074213138,9.477326164497457,5.268695161808612,7.899896768074729,6.631177675353558,1.1111255423753272,-0.2167033391072506,-3.519970063676924,-8.667456633921521,-6.114917445881726,-4.745850436580424,-9.856506941022664,-7.825234081292464,-2.084124250689083,-3.7276964447785375,-3.5805233334852535,-0.19848537128359434,-0.4669792171613558,4.807263243265518,12.721001903486755,10.731671407795968,10.239155445507159,9.527848063827811,-7.023909845050356,-10.98198038640636,13.498711508225306,20.11814472465781,-0.20165593389598513,-5.621844419823885,2.8889337298875857,4.46553103268108,2.7503452796989327,-7.340339092690195,-39.81244250771358,-85.50524995459345,-100.62596478811562,-74.03018069292881,-74.0388270891861,-97.2360695931045,-84.99178848024346,-116.45795273323444,-146.74769397993543,55.71090469204131,379.7830479150407,608.087523633579,766.9279330497292,502.7176476184074,-363.9324675702495,-828.2487599627007,-364.7361242049818,-1.25729378877908,-161.9395383661301,-146.08381634527655,40.43800697829148,-8.953802579160296,-58.448762787183135,22.230280656549485,19.456069695137025,-12.966906678645797,10.456408591361761,1.1159828798300913,-14.618421309786697,5.496690657073844,4.347273029869887,-12.116462261324248,-12.819729867905387,-14.8693401893153,-13.214805485808904,1.2191636808631081,13.820517948613055,26.995923959202145,44.74798300350941,57.339253690831534,69.90588139641943,88.65049541454422,99.79574286610415,97.26561923420856,92.2462422693595,85.41878626726036,67.48734699225889,39.78259276728723,6.839419178249054,-30.361628914190373,-62.078651064944864,-78.20365023979808,-83.24781056687871,-84.2015046666121,-82.45209820118302,-78.13299412788393,-65.52463215654778,-43.047112962637875,-25.241982620028296,-16.478418885465473,-3.625319435210141,8.633880833988318,11.140062775477249,19.916407078951444,30.207316775796556,9.938635175205494,-20.973734150518972,-16.29674069052212,2.7216991709179332,2.3226049128423556,8.200703875240695,25.224658096008145,12.991059081695969,-16.91184416267223,-18.89509226372645,-1.5314413786064458,9.141697404874076,11.693567754768589,-4.374456739100527,-33.214239184154025,-34.45906351945301,-9.571120428638917,3.7060921603234434,8.439848875168995,10.34429738015479,-12.920855643368867,-41.57304249855448,-37.100972857128056,-18.263379011131157,-10.914715559807115,-6.312044874582799,-7.1381269456859915,-16.969244938851528,-15.408024389393246,-1.1415147881403502,7.384810455754402,9.77896690447344,8.149111217965984,1.828963579913669,4.195824435838212,13.674203819488536,11.16971794533265,3.5376026211977942,4.331705761776353,2.636585386337758,-0.15797827675253373,10.209877321772083,17.590601991133422,4.568238611709775,-11.391082610211795,-20.594435807830855,-31.647072258036037,-28.997685299601695,-3.1336510026927513,14.688985263212071,12.540948716672492,4.860546527476972,-16.852394788317064,-44.037357428416286,-55.84686595139047,-70.43793684174535,-81.5314214494606,-81.97809680862656,-109.56807279898429,-122.02869478701288,-101.11235796881644,-130.92698145867433,-83.15983701141747,176.20861656526444,439.22991430232315,658.1026430073489,796.10225749862,325.87313893984924,-549.1034703179155,-675.7798758475628,-132.65138393566818,-14.039865943504232,-202.28412935857313,-89.24830712567271,21.46333271113707,-57.82146701518165,-21.324237548058246,53.570477696821634,-2.7932525902872385,-34.280362155005136,-3.736055590728763,-7.943806495942818,-13.154768438780206,3.9761614491821398,5.773291940807719,-4.048661435621286,-11.741902166017171,-12.449143780086487,0.5908144111490827,19.903049222493365,34.543083825774374,32.79659984117147,16.76373012213803,20.669130405238576,52.456242447510036,76.02611087021114,83.05550616020992,85.82449486160871,74.64624572219527,54.77844887000091,44.74069372235519,32.59157467322663,6.784668056206833,-22.714921584308772,-54.68143115368878,-82.64196708262006,-87.96766469535974,-76.77426716387575,-64.6967753693999,-50.05212017548261,-38.756874582093516,-37.45579563736743,-30.46229690139336,-12.452328126768244,1.4585327256644955,8.690167130738416,10.871506436798146,1.3489611502004184,-10.102066788994732,-6.588398825274687,4.001515605957322,6.304159369925357,2.978523764251138,0.3693134650885037,-2.2978192401405533,-2.7504528938135806,1.413227629415425,4.866290800600315,5.508641241009418,6.9819049384011596,5.881031043147919,2.426353607934395,7.147866744281492,12.572999029238842,4.573022037394655,2.1574700028605083,18.10673397021066,23.00999131977714,7.0221173909289405,-3.442430683534843,-3.2343074693792317,-1.9788703993498054,-3.721950976546953,-21.91297684569883,-46.555940449472274,-43.82602247842085,-24.206781036176256,-15.97092964844142,-9.59609271969206,-6.931585151010008,-22.162051702767975,-28.409708834646786,-12.104608389050178,-2.0945098374753357,2.8839716644892732,14.022286530796979,2.114629760833367,-30.698639209504034,-37.37510659621459,-19.80260221649082,-12.204249569631529,-7.547033878596697,2.4554044686148266,-4.568641816298463,-23.66963843570299,-25.531087720753142,-14.094997363981474,-0.9323790917885155,20.702493852518074,33.33935075972923,19.485079255318333,0.7425409101484899,-15.267884167887209,-30.214266854529626,-31.12735520702975,-43.80650375052327,-73.1555524346797,-78.09292702587237,-88.89548962702811,-106.81353006442822,-80.10781958524427,-95.99349668044623,-120.11486507600833,78.21591064634963,395.627444836491,625.8556324633787,768.3169961089717,452.6334603123757,-411.03768506684787,-787.3882051683062,-293.8524002089021,7.756751384711439,-169.23370850639498,-120.29621964313544,56.313752932423185,-13.552243219845465,-49.351790974103636,39.91579750350716,31.70312452432069,4.495189809177942,36.78559048637349,28.704272592798596,5.362419927542858,5.052715998695076,-16.658876282157536,-31.3070463521632,-13.35425752900403,-5.636319181076818,-8.611259100880087,2.4492521942728267,20.627447001300446,41.46667603255905,63.58468407235128,77.75477085579024,79.3293652381353,66.23778224119113,54.74227900258987,66.55763022987645,81.9852153105039,80.04287463249165,74.18415133994633,51.11802588529784,-6.247681900223327,-54.0904114712764,-66.79851792615682,-74.18279250100159,-79.14697830149723,-76.33485736809718,-86.12790494444984,-91.08400261550527,-65.71320894619183,-38.57452485403286,-24.288222009067155,-5.652875754121915,4.405279151384473,-3.878144305582211,-8.850019658254038,-7.989711155646479,-9.414516183545203,-2.8303470834510804,7.7993469234614885,5.372733718147021,-2.3359035855013417,0.39109405078614046,5.255906658202338,-1.0408993387721424,-11.382894752582352,-15.883261611505617,-19.82299341850122,-24.347155793768955,-21.00849070020333,-12.255321313744384,-5.712576580222008,-3.524150047329087,-9.084314888095186,-16.77968890733815,-13.704044535870956,-4.362945116853611,0.8610646199495857,3.0967403398538575,0.3839121556876499,-6.72300447778354,-6.162271092938975,3.1319572257043027,10.995693212455524,14.94930864301126,15.064799091075981,9.037538069106983,-4.202709093586289,-20.8343308438413,-25.956490719392786,-13.19181346657276,-2.999992701873575,-8.649030482758342,-13.652968333126221,-4.211863507471375,8.864876353143504,7.3593726195013875,-6.880242689915334,-13.366778269790672,-8.403090342295002,-3.331235978875648,5.687648901313155,16.665602252568974,15.48877872706088,8.956471762701797,-1.382315908025312,-22.441616661674505,-19.992281674186422,17.18691559866118,34.67939556477822,22.73040620626819,6.319474935330566,-31.81415458772138,-71.21012784554607,-75.7175189643943,-79.27954640360059,-86.57922335744563,-85.34509687185567,-104.96396985146225,-105.93190816338671,-87.73520695209658,-108.643964729573,-7.652873067489921,312.41086773753887,614.7134288678076,765.4404442302268,604.6683856467278,-115.12979759420554,-781.7970615591308,-567.4405760193938,-60.6225198092054,-81.69732019309653,-181.3621076333357,-5.644899528639215,37.94566317823668,-42.5076042298566,17.58987196541086,60.014269241508536,11.25506308738455,17.456574641828176,35.79453353973224,6.426853395683947,-1.4040431494513852,11.75954526092675,5.7823763420543965,-1.6642425456963803,2.1531651835181496,7.046035590356578,11.373931913786294,20.02081246236035,30.001211660783124,33.58118446971096,38.38462817866851,49.60011777552327,53.42305346907202,56.00293957519257,71.11970853915847,76.54588866421513,62.95783475141417,55.322666889920576,45.46983640023467,9.368054605544433,-31.788804124764756,-57.21564736484364,-80.2984039258586,-98.48446464514556,-95.79831967151672,-83.1478346984034,-74.13915100340147,-63.372675439731346,-51.407229370772825,-43.237016134516935,-30.532289045557068,-10.450084166605027,3.9427167680052193,9.063476674734876,12.907854107112232,13.729881213846435,12.004221380991517,18.79622297525838,27.9954328340801,27.977921002077135,28.587746681027735,23.60712271106578,-4.772996519148169,-25.12179628481998,-9.88740562248806,4.689436991479068,2.775632594005023,5.547509660740857,-3.7517930985606363,-29.40030954227657,-33.567986619410874,-26.21124542671154,-34.28141938505967,-31.118286873556727,-13.14035737135955,-12.827712595260465,-18.266687525563782,-11.02372991842655,-7.327563741464942,-5.789872277108124,2.3594517564827306,2.1001603093280714,-5.602861880160827,-5.122120981081386,-1.993809368725735,-1.4470150710733138,3.0613199231676482,6.2183563066983,1.763806391178397,-1.684602254505052,1.202467714592495,6.32363697829426,12.175378208666357,17.591948100249617,19.927686892187744,18.649489732632432,7.582030381928817,-15.675526002304522,-30.548695822459948,-21.397157507092523,-4.714961536456718,3.8649665656621277,9.474789549611163,10.009441644937688,-7.996152883590085,-33.594106623855,-40.67637105372687,-48.820293969711734,-79.0334322195286,-84.22658575932422,-69.35774851781235,-92.74033661636074,-96.02132434761613,-68.36804750723412,-97.40151374496224,-22.763703340382207,302.892463322336,633.9692144040989,777.4384053100937,601.6258470237173,-110.3161705841838,-803.8723685189038,-621.4419841881411,-67.51910828644992,-35.429293263070974,-151.78103792923213,7.591714449280431,59.70272425757186,-34.82930385283053,7.857897593914224,52.313546358067924,2.687915147931748,5.492229975298967,24.855778680172527,-7.453628010575205,-20.865555630138815,-15.009700148958892,-24.780003606152633,-22.39398578372335,-11.915486339427808,-14.744133086038975,-9.179045316004437,11.860702845391765,27.856005085468684,43.94480688968727,69.26426386415092,77.7946131682155,62.572085135320066,61.62230870374939,78.76300462102876,83.17678588146997,82.20892367026752,78.47538763789112,40.86300241265015,-13.283606849428256,-42.41895121706205,-60.25269398659688,-78.34029346192472,-78.57859732915168,-73.80609422786439,-76.67112523681163,-69.84804103592515,-63.53323597070563,-71.55513188531114,-61.30141197851154,-24.58024534259173,-6.431805573465432,-17.24708031099222,-20.550788502440163,-5.539222387699699,9.424072747650566,16.768172051677233,16.38317365890553,7.881354685423573,1.618183063229111,5.541658605395909,11.251932361852408,12.280307661558453,8.717895568298736,-2.176263497251263,-12.626032457396454,-10.718100951572522,-4.387224923411228,-2.307578517874446,-0.49927882474029683,-3.934856344499556,-13.514656973156928,-13.60000412536732,-4.805518646502119,0.03036799806121593,3.3259756081413494,2.768685315930549,-8.467141063186913,-13.629064658381616,-2.1626107062746054,6.506287652678236,6.15097970040458,10.059931595187226,11.217244965953654,0.7161598684520669,-3.413178145970816,6.2590485572237835,14.335007005374978,19.579823843034646,18.488355688819233,-6.429226537438547,-31.93967483924827,-20.381367285327517,3.5056930630567367,8.235867814116231,7.758266107509684,-2.582177528616942,-32.699355902988955,-43.683079134922444,-18.06063606262879,7.392156303456292,17.81695415639156,21.537605695104503,4.232773240477826,-31.31989255331502,-44.80700885430614,-40.19320197440577,-58.984400510159674,-73.32345939056938,-62.928129852486165,-83.99971431322332,-99.94784395706868,-69.06491071549009,-98.49904443912216,-92.78193512043204,187.11426176714113,572.5404296330071,775.4514119574653,686.2634324457013,91.2076342936341,-698.4276717084525,-748.1015641683226,-179.67045183599717,-12.390509426237792,-178.2006265614205,-65.04242173691904,72.07509369986693,-4.825769429965934,1.924261505217391,70.82708751521318,21.95894573717182,-8.20146335926336,23.847387484128664,7.693230281098742,-15.829745777321696,-7.021608686667559,-16.670034796889745,-30.75070087290287,-19.632907083304783,-6.693249542591952,2.0978314983740898,13.314202964784464,16.358588651907475,18.82430291761328,35.373875901709454,57.1332227947264,77.97910882718202,95.01561447457323,89.24448872841137,66.14069221839466,58.67596039625749,62.05657025977885,50.193326021764285,29.845336728451578,4.00288744370197,-40.26261622741998,-77.25489589767668,-77.07183766444396,-65.53690153585728,-64.00092220752012,-56.20843678996663,-54.61456220206245,-75.04102071723827,-74.47085161102004,-35.175742550961736,-6.916442512710724,-0.9322614779451968,7.053364913195431,-0.5117539567657055,-20.62082872818852,-10.947099789790844,11.99597341664197,11.26476461018623,10.387049411130404,20.363498550721165,17.06521272578665,14.82990874377947,26.674649049803662,19.582135929961524,-10.835722787495666,-31.78176916242174,-40.15572751224503,-44.311905984290945,-35.193922419080394,-19.195783180062087,-13.359181745482502,-14.41737191289063,-13.352759739931603,-9.515644183018548,-4.129334856241059,-3.106114084348853,-7.795000831710787,-5.4745990387585035,4.934500728409241,4.994408094241856,-6.560544841298691,-9.767268633523038,-1.4838455061332443,3.479376003148036,2.4995036892012497,2.814926281488698,1.9508424814840009,-4.706002827948703,-9.150233171665194,-2.6267860561791294,7.985626673525916,10.667868260027328,3.100969614889122,-7.098577660119231,-2.54375575952888,23.820578507993744,44.35615807507065,31.668550768996322,-6.10870562161935,-45.30595089810288,-61.46081610856171,-60.34604059852819,-78.51855873545851,-94.17164903397664,-81.18874642269023,-100.8597685815014,-135.91028807698103,-112.22922340154038,-95.852822226072,-43.82157682730683,241.9753897466986,663.4084600434227,921.4412528521948,768.1014529704764,27.748773637858662,-789.8851883104574,-760.8636429269195,-174.9421247172206,-51.38158547595283,-221.56395239527265,-77.80911383696657,76.9926845445895,3.581963090607296,11.440414782243948,77.20361279290113,16.702741035313853,-17.716549822192658,37.91074579605954,46.739866371693026,9.00797696388145,-17.159609121137684,-41.20286245761576,-45.9843368534994,-20.01731985524995,-3.9746555667615144,-7.023002627558235,1.000929615842363,15.669127013320619,15.220375883127886,19.214351566234633,49.831536865736076,79.47073510544256,83.35235976952458,81.98344275565806,89.84215044420742,91.24470160220473,76.41680786818732,51.811020124389174,25.124809780199314,-6.131454241556012,-50.530927846893235,-92.76480928166488,-104.55172599202596,-98.29122451900088,-99.49963283977911,-91.15110930034211,-63.80311279661874,-47.446878149121616,-44.68515504788774,-30.196900879945087,-12.007888116613838,-8.044057448756824,-6.614630896398953,2.8068391926290595,9.579947474538155,7.405145190467961,7.641332872872589,16.637301030363346,22.246159506576944,21.324425098879335,19.958659309933708,4.758412805977871,-18.89891139896749,-14.431646386911684,4.701537207530526,-1.6873939519111403,-12.02058418816682,-7.503902984338929,-16.68796801069756,-28.97128030573369,-14.247818125297474,4.937001191474852,7.4254121176662204,3.9200142804378952,-0.6403281782877182,-0.4943324478351543,9.052936802156712,20.741174155732267,31.25138100877123,25.809723095932462,-4.464294626708385,-19.93222409164568,1.9541133362437622,27.428125207250346,36.962131393769376,24.309437504885082,-20.582624014418574,-67.6771926252897,-84.55321087428558,-78.15419137370607,-65.35217757401546,-69.98545953129484,-90.38993149416868,-100.96545681840519,-113.90357221892776,-112.60482619032345,-76.27581418109287,-67.68762061449848,-6.91582362041602,285.11088832924565,673.8728124273637,858.7561087169347,615.0057567858535,-158.07736193031954,-891.3989447544891,-760.859458150783,-166.01225704638716,-40.695374976827566,-154.72909844043338,-7.00039129449776,94.9060406292222,17.02396773145837,36.549616011419275,83.34617862655409,36.258272963696236,21.571072278590425,28.27767523594835,-6.282003090069675,-11.98977660902948,1.5478914368660917,-16.285438896657055,-22.125708652391666,-6.156284348776973,-5.470929577092166,-8.262520281356327,3.7227336933006505,22.62748979953236,42.074171219280956,56.401167922643715,70.61770845901259,98.0886225396545,123.56486076490808,121.53000728304563,106.46089511016612,105.21882013397166,103.10948471769115,76.17197632030809,37.35110402806238,-6.755330960475549,-71.44971650179725,-125.40681688098007,-123.4778003456731,-97.50160872775379,-86.52762960685023,-70.40514747072689,-51.61851409045966,-51.17728352168517,-45.43759909012708,-29.47630251243806,-24.26153434412158,-13.075926882578361,-2.1254410641293404,-20.687490365417375,-26.250331219786883,9.615370021058709,29.979177538436225,23.856941951235463,25.663855787412686,10.733988646048168,-23.31509201412108,-24.174822792117517,-1.8026687195152782,5.067408391806154,4.991723468044075,-8.551678847047683,-40.177370209829334,-42.731517510989896,-16.252920301848825,-12.251668621948976,-15.883676714670568,-4.516677577063639,-16.733996478834328,-40.817449615940646,-25.8015199116521,-3.688329424298786,-9.802182004343418,-5.885507056287615,10.022226925498499,6.509797404856853,8.303423669898262,21.881103006176325,7.834502683930875,-21.088587942286512,-34.89408543471107,-46.25925658565982,-59.0737108448439,-68.6482770628235,-76.15971434842261,-80.24958523681696,-95.47665833714126,-98.47030781239394,-68.12502974894733,-69.42018255893936,-30.32018478893184,233.91781442613433,607.5301832051013,808.9259760098777,637.0910388811451,-59.53492699954157,-822.2180856581175,-774.0083450687695,-171.2089623350043,-10.711805969592362,-163.2788216807132,-35.70243554107505,98.9844253512916,13.47353112515161,10.597631090506027,81.74758732044175,52.59453774530639,28.605789665126206,37.251720058506464,2.4909377750429673,-15.549244724683996,3.2034677629635855,4.264828039673848,-0.7096545059007546,-11.125984844764787,-41.40220903156643,-47.40558398277479,-16.18538291482305,13.294865423890528,36.4939862695599,60.146637161111656,76.75963150749307,96.59748873851197,122.32261847234848,143.0708647387528,159.5680709586925,149.7885045952789,94.84457626308156,40.99441883152231,15.417118131139508,-20.68713372931781,-66.38958481954599,-95.35500628511025,-130.26135364720116,-157.16702404894104,-124.68181833664038,-72.8626453635901,-61.31791314130156,-54.94737601594425,-34.906526154889626,-43.73456848774988,-64.4026198100863,-45.37525654047285,-8.32860319967854,4.005210541497835,2.155568065600672,8.020966854657523,18.29051707358674,27.925603456046392,37.93112334154785,37.64189749254085,17.943792580741725,-1.6142040814312564,0.175660946582596,10.726670078922584,11.923023895540766,5.9407163742742926,-2.0529370453656455,-9.903100241761926,-17.23236511696693,-25.166161717204808,-25.50007922003441,-19.131176565171863,-24.65547850353385,-31.685488161240876,-15.502367532396907,-0.9128058911296151,-9.52814247827897,-6.002275114688837,14.887063295174547,13.974021002081294,-0.5742501321867746,-8.167944227988517,-25.55758168049968,-49.5697504352624,-66.6969031948832,-74.97325791785525,-67.57864245706728,-74.45880125255252,-95.40107294206967,-77.50238460275236,-81.56019644545201,-99.1927339165505,101.01967602566484,489.590420419821,743.6784574620523,695.7906875151821,194.28294410278727,-605.3448555902797,-848.5310139514737,-321.4483448301253,6.228832363332806,-143.2741049998741,-107.20147734292578,81.74955349158772,41.810707506805905,-5.079487820515716,64.77768959694347,45.33157839251316,-1.2361278696769613,26.801383388239387,20.168752488419855,-11.358150598458703,9.833516265700894,17.65818532770308,-21.005801269699006,-36.476843326811924,-17.200138004623923,-2.459409709136633,11.664546361964025,32.900065904160705,39.28944682880159,38.02376789860179,58.89006046089171,92.91288501163476,121.43387646696124,146.85298000303706,151.96589032578888,121.43513392123435,86.99351922075468,66.31204191224609,27.89255405715996,-32.70998180033557,-80.43706021921913,-109.74578263629962,-130.7793738352076,-130.63099664497972,-113.11384873163821,-97.81194240149797,-78.16841270906401,-58.6170889614196,-56.506132825377506,-44.630165957058665,-12.131810596382198,-4.523254135252753,-13.760969976619691,5.5485605328702015,22.410023356430422,9.375925287013523,10.197811367814978,29.562195561299312,31.511895910759883,26.216345439391098,27.508565045400545,25.107840469637235,23.370423751558715,15.323281467377274,-12.075456976899343,-31.104467834796495,-24.3819831705758,-18.877095668648355,-23.964029771351665,-25.21108593685086,-20.84517462430018,-11.44916517183725,-0.20611298307744086,0.4386850930827322,-8.357958063275822,-12.972733096352389,-8.343925148711884,3.2732268423790902,18.966827142529837,33.131879048653246,36.87964629118948,25.299629287391184,1.314320889471003,-21.558141695509192,-23.753002158786728,-24.0158555989877,-57.42484784056094,-83.85520438305305,-78.56649733314886,-99.23409156552896,-109.48391550291018,-69.0412205946086,-79.34211795223052,-52.75259637502658,209.15544486252313,553.114392077521,748.5525410300809,636.6118708986482,-17.831729352585967,-772.0717714568481,-718.5687705480547,-165.00333464368435,-61.737432215227656,-186.16640606896988,-28.82611589675527,77.87517570873163,-16.245920637993187,-15.543170524380518,31.990249144345622,2.3612540729981006,6.260123967277593,28.52752712754696,-0.3557501260605811,-16.301124000797582,-7.3542864421678065,-12.748932095608561,-13.088782304872906,-5.978914519198447,-15.430663154652416,-30.35929112196772,-25.39080692741993,4.927078857596488,40.302029230729524,62.35566713130841,83.52037102868613,112.25548839422925,133.5055355104561,146.1033213180442,156.11393712351395,149.0292687540499,112.05207975906534,50.568907751116924,-17.44927374559079,-67.01584856332143,-95.01055286196457,-119.43724391720373,-132.1159703470388,-117.03180711786484,-95.34449004505117,-83.0762991588065,-67.37114544694222,-52.553811764448916,-46.577906746869445,-32.00511651448671,-9.528478111746281,-1.3909360142301068,-3.6118830068301264,1.8697552050777375,16.84444235125144,29.98731534713214,26.27233536639004,10.635595921054087,5.867865796076117,9.163503956034665,4.76706201871284,2.843536136525682,10.933091940265822,14.979504547456767,8.528749416888127,-2.2086646943282915,-8.053016777526642,-3.220893471156708,6.251412022238096,14.901889108996537,15.39688229075026,-8.051129226193154,-36.24396524161946,-28.928450541763297,-2.367502434341091,8.188340537195021,9.926000479377597,-0.4033896155800889,-31.216907607765222,-42.13601150777579,-16.868737596855485,0.9067943864138588,-0.16533340323493384,1.3792777108386645,-2.176245901583769,-12.933738910163964,-9.311329430339686,3.8993941268052694,3.0481724210328327,-10.38628504365888,-18.16255135631862,-14.833566251756055,-7.9586523751382785,-0.9422176004018121,7.862426361132734,15.75743821980566,19.899990040631266,18.78513604640171,11.454129590582713,7.547359389726341,12.99003169171976,11.210701328016551,-5.044027511672713,-13.747523672922602,-4.970439080970348,3.039573535066877,2.5577997519636195,-3.147911090127998,-25.494003825403873,-54.13113879119721,-60.26323807727818,-66.09024243811714,-84.48673988323208,-83.09858787501462,-95.14017573075955,-125.40551591518675,-104.58406773130355,-111.18931575335829,-145.64451196309585,29.098397631220635,324.20754205742776,522.3202709262677,772.5857169008593,749.516082479129,-60.73622085635188,-777.9997841128499,-473.1592484262957,-27.172120903686107,-164.85932042669526,-210.87053711086946,3.789270417790263,-10.386906494459808,-81.72942662504892,14.713387896363358,40.123300904778525,-4.958143389111514,18.606228257607242,22.157311018828896,-4.94444499255002,7.639395623190676,17.323467078429214,10.358107831770841,6.613970651909945,-21.164105972443394,-46.17639277840834,-25.31949181434798,3.383241120628476,20.294890058477396,48.38193047063267,62.56418808490427,52.11777029893753,65.74558330734371,98.55405330907747,104.26163738660541,99.74204065934387,100.90854411478747,74.7066741026211,30.58671420798835,4.174754725234307,-19.776453686721812,-54.79467582832375,-81.36836399932609,-95.46302095092284,-98.01378693614508,-81.53072630741684,-57.4613557246457,-38.993418666511324,-28.586519346667124,-35.59967262478235,-49.86829624436122,-41.64893727524577,-18.834715914756515,-9.960062350017449,-9.243536219351338,-4.644936192045201,-4.045252913561406,-3.3043071761958913,7.044458504029733,15.09444443640767,14.944228896848806,17.340111053093686,17.47378358696561,9.094388731107207,7.415836131439304,9.908895965514267,-3.9924268370186002,-19.194894942826465,-14.026197137977723,-7.899914523056694,-11.527180089647198,-8.097415562099226,-2.5046688042266574,-3.8854518546966386,0.8841425518778281,9.855881377287954,9.934850303781566,5.2482397607863644,-2.4979860601375554,-11.343296443557566,-6.881462419884932,5.674471170125974,8.116736484781212,5.058875025358437,2.9658201088815677,-3.3614915614543026,-8.24156082718277,-7.884435122511016,-12.076042239744151,-19.518879297462803,-19.939061646547355,-14.925269540265269,-9.264169278456048,-1.218691206518221,7.510173364338998,9.967213714939957,5.721157940204349,0.12452179285478593,-5.681195343382354,-5.734704139601455,6.699589526398716,8.471611433805327,-20.524497140606456,-42.17417175432669,-25.350285408345112,-3.614493167374782,3.9250368341569235,10.548090372567446,-1.9427436653276935,-32.39939722149698,-32.88693516228997,-8.299563035186285,0.7475257952507413,5.394511114303196,9.915718533052445,-11.219543203400224,-31.452368938078806,-16.933643040444252,2.90908605805235,6.595780806621356,3.765426661405261,-13.859580007826555,-34.26745974680084,-19.699488993906467,16.826951320733926,36.069566560108726,35.63329772500762,24.781293862523814,11.774044326279512,1.2428874947471602,-21.826588952000417,-45.589982211374874,-49.84902250891749,-65.21846573962618,-86.38351151487942,-86.07483891871054,-105.76414204273313,-120.5565709469463,-98.22351880036831,-132.57767389419143,-122.31237704271629,97.54780397529606,327.17497877474625,548.0307284968503,872.4717037544801,658.1090441619616,-300.3887431930026,-750.6128837025999,-266.65461258452046,-10.665709579554743,-217.33978468619776,-152.99737326593709,24.05622608961579,-44.207189433280995,-59.44052495935368,30.69387602474395,11.284242791668962,-11.283331642961683,30.851716611225434,28.12798371494211,8.85954127893029,11.775678864905418,-10.829885597927074,-34.66712133049525,-24.982386743641726,-14.16653209673384,-13.296369170218282,-7.786172747748175,-0.28045990188017456,11.951502795507555,36.65575743186608,66.63684669022325,89.77973848428016,97.63019254810419,92.9616912302555,94.45375120326062,108.88889541451792,120.46101598444396,119.82103216110062,98.89221271307524,40.990416046522995,-36.012996874830115,-86.60849113501394,-104.5463093867536,-110.51708682745266,-107.10133032633513,-99.67375249707209,-96.8448599749592,-83.4351094018343,-53.802748515101136,-30.488139650598765,-19.610044209103886,-9.355532498041221,-4.82129582091315,-11.51272875376705,-15.187013258846452,-7.07709188410989,2.8581327827607623,3.579838793924445,-5.12884472613289,-12.559376654691974,-8.251419493503853,2.214463364048722,7.035507301039537,6.663279347038577,2.9938523136952373,-6.3693447926511,-11.918756715388739,-5.324324235799331,0.4811418132419494,-2.6927010970241696,-4.979659472395538,-6.432915619331741,-11.869955098112243,-10.709129815830874,-2.3229504750845624,-1.3546006425938977,-4.224186036529927,-2.9013101320722647,-7.154609149859093,-12.854829176616207,-5.6627372866181105,0.6522515345602589,-3.8218986484728026,-0.036470365348304945,9.01986127746972,1.6069358764283006,-9.851323839282305,-7.653502895238416,-3.4005212466727714,-2.041328603070819,1.3202661531212279,-1.9052400637150821,-10.09489105485724,-9.093210959316853,-2.7403186106310082,1.005507756208345,5.940565762475725,7.133693882024018,-2.163789520640808,-9.444376676418068,-4.693188773862577,2.609336130532027,8.495484487204013,16.92635542826811,13.259211257370445,-11.16385435504844,-27.940779692040394,-21.92060298050675,-14.911392907417527,-9.048968107144308,6.548848809943038,17.42335710751687,18.465621078673486,18.4317930232029,14.870628911068113,10.693877991568955,-1.3029778809138035,-31.145869087459396,-54.42079681838894,-65.48296211915805,-75.54904355686142,-72.3037148811793,-83.8248152103406,-113.49934090755607,-116.1891838446452,-146.0012994137668,-149.54585595906744,70.69981269370885,394.06081699618505,657.5468668090122,901.265036144981,667.5763474853155,-279.7798023520653,-829.5391029824559,-380.691795410649,-24.00864165485315,-213.95000269327647,-203.2900236026627,2.286025379246695,-33.922607610095895,-70.59802280375669,22.676142201488553,16.14868299249204,-24.80716972884209,5.188182914436614,7.89420436628311,-7.565031880651173,4.573749155394813,-1.8606872040070774,-22.037244727019896,-27.196947529249332,-26.8253872648205,-18.86404288839061,-8.056295649419743,-1.178418519715656,16.689225577557025,37.10661088653947,49.98626264872901,76.1604049848971,107.62778995929118,120.48751856602138,129.9445202010834,135.7487341433785,111.83486084174712,77.69431330911652,56.74421766041463,21.927993650423286,-28.763458605974865,-58.37374202207481,-73.88638824626523,-101.55112597589692,-122.27638950601,-113.40866282493228,-83.74241210845265,-51.04433403392161,-39.170029713918744,-53.67145597888168,-56.86620640542496,-30.559916091750193,-4.365542146531965,9.519300729834669,12.255902728088639,-12.865365149422026,-43.46979903153808,-33.772628584660026,-5.4463411637341075,3.2893366071252643,9.226201054409877,13.926728125381267,-5.455595748533714,-21.946578750403546,-10.026179423738032,0.35780411987119365,-1.4015360935749968,1.6912924102405498,-3.2986951994529043,-17.354536431922153,-13.174403076694075,-1.1466731449019392,-3.4863030179554,-4.8628345043597,-2.2173250714983457,-10.522944508724386,-15.307250140717482,-5.366330264899928,2.365365906076687,3.5457134326143054,3.762102354493133,-1.2135985215319671,-5.552876985192757,0.4879887308639905,10.456320197305265,15.082683064575434,9.2312309541494,-6.474388953304135,-14.556404165745723,-4.094985284802462,4.664832905458878,-2.7106783815374538,-8.387700906022289,-3.371733704304919,-1.9398795246466776,-0.9616133146587984,10.409861231945017,14.413155551263973,1.7059371885204335,-5.900921523800328,-7.390658197129392,-17.82267552073868,-21.986603522899866,-10.364186008730758,-3.9086867533003087,-4.34428997689327,1.068771907015833,0.04826675043466366,-14.79603535384273,-24.59941632130046,-15.344610208741612,8.995924251540155,26.352779303144487,17.096893421624085,1.6098515993483353,-1.4757837077691125,-11.751879839247486,-27.245946399139594,-38.40753994189578,-63.86882737765079,-91.5694992216071,-117.07146633032777,-150.76561313561695,-137.00777919290994,-108.38666235844269,-136.45118213554474,-37.898136877687854,269.25609637505374,556.941435066415,782.2840239250921,762.7152340525832,56.41999436352367,-753.7123819987074,-630.6906274422863,-99.34914963938976,-109.14166650072474,-225.5656365436626,-30.62313924413074,35.172086889328476,-53.47153057574153,-5.401629352481201,32.90363529636045,-9.148099897086894,12.593129531688621,36.53542824165925,8.576507251026916,4.254279933319989,6.333164714967498,-7.716282064328319,-2.9083820753413354,-1.127709772260813,-17.86887014775109,-21.738770234509385,-13.365486527969985,-1.955204508558868,21.22165267049068,47.41509085981725,69.36979330345488,91.27615237577263,103.11402710727502,102.79064277346212,106.89517903846522,115.54956823879073,112.85792940083581,90.0763622601701,46.963716302487704,-5.685666495049927,-49.355413999180186,-74.37384247651767,-83.68645311457337,-85.82975564798586,-83.45169674998058,-72.38077404305784,-62.31697018859744,-66.17891980121904,-67.95454683329991,-50.73536905653265,-29.673184224880725,-18.73915207322996,-10.477839856514624,1.6842319329718975,13.209429212607674,13.802262615480034,5.5100315572727565,6.192215495669679,14.244088886562086,14.027101836284178,13.744844672289508,18.458354879585993,16.684467686872818,17.816546386835064,21.163878216994895,-0.9921816074152225,-29.817811649308048,-24.228939316928596,-5.823807070150684,-2.022034508805106,1.1792439676496542,-4.779928859893161,-30.81148377778452,-41.70991858548663,-26.83462328195663,-17.664008583008034,-13.632715218098072,-2.276756509988731,-1.0567931604173975,-9.949032191044019,-7.0162200854563945,5.135241089647348,16.282333636717773,23.75754246667721,15.381834674899077,-1.646513699838824,-0.6413955692415856,7.033419086553615,-1.2719578571163108,-7.34847231434853,-3.265165911476231,-10.097708820746643,-22.205560476696775,-24.60548952901184,-24.731571473524163,-20.373956127126036,-8.409194851201628,-6.4840654810058,-15.294093489442318,-17.468319261048908,-13.333050367763438,-8.009209937355758,-0.7111659188208943,0.49901703046879575,-8.219069970639655,-14.021952316850893,-6.938737888986935,4.965125910933342,12.09498986818867,22.818241740098586,38.659135126731,37.237433975050045,11.875278019937692,-21.959021250020264,-49.08150470852152,-54.294535555362536,-57.50553163251392,-82.86340344518759,-90.8024876692531,-90.83975063521584,-131.8656705837971,-139.69021564877715,-109.6481580410765,-130.46992633877278,-27.950937274892723,329.5891642552257,692.6882972678283,872.3770162850969,667.9042799043216,-135.27493924785637,-838.8145601329159,-596.4930743098907,-71.7107953782627,-111.64620460389439,-207.81143167928138,3.0581657612429893,56.39296468745982,-41.721400669425165,14.21225999202365,61.38991781271812,12.520534169233954,27.20064743771118,51.226262694293595,4.329504897616409,-21.98735146573803,-8.903037112652486,-9.560018999574039,-7.726855463579761,10.099394670017867,9.882194252999852,-15.917831774918184,-30.93046115019306,-15.090665738483121,12.565033311798508,37.85672741262941,63.24732112137293,79.59847471614931,82.29992646861362,87.36673806770852,99.43506546074036,107.13180849990175,105.40583442476806,86.32838430924154,41.51149259676452,-14.049932538412897,-58.74039851122691,-86.30375701446152,-94.53605351704923,-91.68229241936197,-95.68428525784606,-98.37511445882532,-81.60578960428073,-57.27156861658385,-36.37706646138714,-14.621615230513228,-3.522429279099981,-4.0922451416521355,3.52041652133013,9.482376279134792,1.3296742660530576,4.106975525933169,19.467481892778235,18.717198660491785,6.959897465124571,0.7381581134157873,-2.885095990705363,0.143800285932711,5.119288821474907,-5.25796669159608,-16.383365934973668,-9.292801381497014,-2.508574741074325,-6.998427105782234,-8.205729874106424,-6.774586511772926,-11.755602478546699,-14.5482888490966,-7.191943650740935,0.6797740687396487,-1.782056609646844,-8.881307018695914,-8.645699146186073,-2.965667563691091,-0.2805533328231622,-1.231628908902274,-4.271166865980037,-4.571619310159488,3.7030060263284095,9.91184158853148,6.314330474134506,8.8803540882361,18.450625026753578,18.72467789650132,20.599989277218118,24.438131063191335,-2.7225639454821913,-41.09643438995613,-35.538146487728014,-8.029580852548918,-0.47310500149123413,9.897474559648057,23.009908080415283,6.46185830751358,-13.166789263936963,-16.795474087452128,-33.79789851940721,-48.63307700365664,-51.74406892332481,-76.22151503022256,-90.47761781628334,-84.51091320900018,-109.49926912833683,-110.90243541528011,-78.49238065168497,-93.60658407167577,9.945101747846735,366.6852619009678,708.2209948500707,805.7109127828476,510.9383087411263,-283.0724666824294,-899.0397955628935,-596.1267281585485,-58.08375020560746,-98.21946364669073,-197.04055008230995,16.132664826348922,72.31106578808004,-38.9871381794264,1.3758060200484064,50.8808125868443,7.074236907703414,13.002960264715053,30.48274800887775,-5.9983968345349865,-20.70507611708718,-5.961259142400309,-4.556552331191614,-8.597281621312355,-14.143848914668343,-20.17898258455307,-14.300474722500471,-1.7715630320267586,12.549895401938201,35.481995347345524,63.4466387347892,83.78660942244395,92.36654241021415,101.23063964083798,119.85120517795843,133.56502539756383,126.95704406857087,107.3729052776847,79.78969854296622,35.7769430691475,-20.504359148500164,-72.17628960960195,-105.8943787923045,-110.66310550526691,-95.71851854620418,-92.68891546311676,-98.53012265419838,-81.46053882665507,-51.82325800358092,-31.412821281774967,-13.064790769555529,-12.291870821148692,-33.99324922531309,-27.164579350262404,7.620544048068014,15.910948054674492,14.965649164476577,30.558942953711032,22.114731693292274,-6.109532395876613,-7.447126505053589,4.9689303341830175,10.38735452200952,15.941781976453083,3.5812147814705853,-25.46760874555694,-30.001218172259286,-14.65406784340701,-11.749152887171014,-8.552904363195559,6.149572048741141,10.383681075697256,3.75811804406902,0.8857743116357462,-7.28847686533749,-19.530768410001357,-17.569755548162224,-14.956525510302951,-28.213088572893458,-32.104404422907805,-16.389526201246348,-6.033456476756925,-2.2576867435398604,0.1692440107446611,-11.193761263433682,-17.1324529145268,-0.32007753220894664,6.8441084096909695,4.092521881979323,22.62173249352876,32.008757917553666,6.298288250556231,-16.015087257099022,-20.99833375231118,-28.13954012815971,-46.224344656331674,-72.92511228280352,-78.28091301158881,-74.35023673568482,-106.42800448456607,-105.88787169996176,-56.81815933307896,-69.00326302803826,-1.4827130028967446,332.8505077971222,697.7315023319459,811.7084082720487,529.4217362021359,-233.96814435333494,-877.8891684607495,-651.8479785274191,-101.7052774848066,-64.1970788403922,-157.42460641070477,24.269094449831353,101.09344738745116,6.7784321000681835,19.898262186453955,64.5681312885682,42.445101248358576,38.56409525121578,43.39911003472521,27.079128862007895,7.387096597961159,-19.500706708218225,-31.532650289606206,-29.07098510812783,-39.68651005264441,-31.979336506428353,-12.5585285605102,-29.65265577997569,-34.65090716845757,10.265016147348732,46.584581947500254,68.00503294878878,106.5819996648855,129.93028439130373,129.43022507014555,141.0279480085825,145.79702485901348,112.37803154838525,59.73043745784848,1.2605607494543847,-63.13378686001122,-111.80328341210483,-131.80513566375856,-132.1122928014976,-119.0798754765452,-104.13145056946561,-98.61186121982806,-90.11974565840995,-67.2773277185415,-43.57881099260615,-28.938904612194058,-16.218161820945102,-4.761888218527012,-1.908441833586867,-3.3477477304978187,1.7557761057134869,13.380806360511253,23.694247526464096,26.018606985125558,19.493781208496475,13.62260597701583,14.417364710068785,14.04570534101923,11.620348427327704,12.103722014329463,6.376673693797188,-5.8171363046390905,-7.997181104726087,-2.2396719409043984,-0.144098240200341,-1.317913545907821,-11.152126147686529,-26.559524002188677,-25.519073657533923,-12.494159997799185,-8.351330623608636,-5.289378730197379,0.13817642460639412,-5.859618027350852,-11.91630107859128,-7.620045272741867,-9.011288915929125,-11.409460273477725,0.2125503756480569,10.443516902350297,12.784161888241933,24.001230827354593,38.76493885678228,33.318687592573134,4.180434206988222,-20.53492065243333,-30.3030029482441,-62.814337206768684,-100.95949807621977,-86.05178744518503,-76.3851886187065,-101.30000071585471,-73.7012716190841,-68.04686458806789,-112.58126236479079,65.41309654833131,450.8638162212382,707.6991301012869,749.756639518225,388.83187384050274,-452.4669259512989,-894.639018382386,-430.64131772281587,-22.737954921117968,-154.90127494034968,-146.71758188135954,56.43015670034447,22.29592701753638,-38.099143876536345,44.245372126823845,44.97197036642493,3.5119739953539,33.49905188080464,28.545023820286346,-10.1842738151446,-8.535451770993138,-6.750445983949755,-14.607099553427464,-6.72712914007744,-10.671668904866177,-24.27998493873921,-13.956870080216348,7.0701531143541025,19.444866717219934,40.977251350239065,76.26453644888409,99.47484352606753,108.51452713093573,124.50891358862738,139.0278626351251,134.75519778916282,122.01137067826897,102.82872468170838,63.15551854351755,7.442602810625031,-48.37543440734009,-87.34474557309984,-99.84827569007211,-104.51140463151067,-110.38217374870995,-95.3682903102028,-69.8339459564385,-63.49225038617325,-60.00709183051634,-48.7121126835594,-52.46414578832943,-55.629033907985715,-30.65197013515848,-4.282891867395104,0.5660409284206978,2.0221963022402214,6.776372005342296,8.947241149534882,15.270646470439988,22.742660609315053,21.369561201750884,19.03178124589148,18.34630250262527,7.156384730839336,-2.9947878264143046,5.26397607982234,7.218434076129585,-11.802338532423219,-16.945583221404107,-8.747775838209172,-24.654935235370168,-38.05380970967724,-15.297970622229332,1.8084609874225368,-1.8935724504465057,5.401126433524075,0.34465494901122185,-29.18235500314332,-28.460443687986885,-2.137163500149782,0.4827759635868105,0.06678110747607491,7.763565136202375,-13.473642248627232,-37.53653673620253,-23.20961808860841,-7.9837043097414515,-13.510843915216938,-10.460162686769031,-6.649022823372242,-14.26790403439997,-4.12506420056577,17.86005499237055,19.946488928685866,16.93399754185103,12.009594334783763,-15.740134605010352,-37.426152073774176,-48.109266347139396,-81.18492917655098,-94.5514226975128,-85.24957104126759,-116.35906793963231,-124.39950051247001,-100.43631136674375,-129.59698547206452,-32.367271895339144,282.5708481972348,540.3250538414532,711.0031205676461,716.3470321466295,92.34155695694265,-700.9321118968237,-606.8612481818525,-69.42103563883099,-73.58834071892362,-215.90389869487908,-32.33815338786696,39.234345542687336,-51.73754747524092,1.8407079658787318,46.8163041681346,-11.466992908637486,-1.541989216125451,32.93088428534179,9.522728920966747,3.4584591136870935,12.991547115868801,-2.9937807227879913,-11.14980263980984,-7.631253829402945,-13.843624538042622,-14.985634268057149,-1.7765399302546854,17.783889893785954,36.73463483937746,48.55582029665578,61.74201662425833,88.25832443938059,117.04108002717743,130.03650688652334,119.51872320565525,94.95226401901272,80.2686866253249,70.03694896782665,35.65502364233944,-11.297251878917375,-52.85138550939545,-102.24579162991668,-136.13924506983875,-121.75510467298389,-96.80129768795307,-88.07773920493021,-68.88480744739336,-49.4232700499244,-49.39689234558932,-40.279796211909776,-18.830319252025348,-10.641954724111429,-3.080465985034696,13.830691348811692,19.987843489515384,15.406369704372697,11.047167899947315,3.6448811028828203,-0.5733820185612721,5.094204818147491,8.566381579563458,6.191162016292195,7.860233850010693,10.103680531741599,5.245192653638355,-0.5521257103761883,-5.38149674275116,-17.247244980097424,-30.128662406415053,-30.35519732079144,-22.342084993157982,-15.391962814867352,-8.6064948376396,-7.544734484948865,-16.95077904045067,-21.583250438764512,-12.869301520128904,-4.272680269374387,-0.8527221899385466,1.1749119921397035,-4.175343109919197,-12.814667414316805,-9.187094627930229,2.5388767130531384,8.742204460396046,10.45333428516977,9.342854159016152,0.7295962521234198,-11.684976284652912,-15.86054366500522,-6.667481962138659,4.764783081151956,6.347174997810445,2.35074636349394,-4.353695292524145,-17.89086672252283,-24.58811057188514,-13.059276624235977,-3.8163606264606234,-9.822186197417812,-11.675605024652738,1.4347959137146544,16.396699666207013,22.816923205257144,20.41661765069223,7.238942950917437,-17.73507438893936,-34.917581267355516,-19.33645575268428,11.283423889568525,25.642975626363476,29.66458239122644,11.968749719260716,-42.41470857700273,-70.88771773006604,-55.07161429859317,-68.4862534384936,-88.85544853311185,-78.2830851854438,-99.43433663719404,-116.99953642195891,-103.83147435071204,-139.62762383746337,-70.02123971512714,211.603524695415,446.7072720162278,642.5188544425692,793.7760753428302,309.25168569098753,-576.8466906029978,-662.9817827073305,-117.04463111901153,-45.30046879131294,-224.854697671972,-73.24381093061481,31.424161340732624,-59.99646041311865,-22.899334332984584,41.98833135550652,-3.9091269036299714,-4.43131643216365,25.547740731903552,1.83143480296664,-3.289790818539026,13.323041635994262,-1.6339693448920984,-17.70590923352217,-14.791883018892294,-12.054985043289289,-6.817045467913193,7.833143184660003,21.74950691876334,24.551966373026296,27.616711079112658,50.31901056587832,81.93540783349096,102.18327480452741,113.59335502498327,118.90617127950338,114.96480667194413,100.74292087348537,69.28835503157575,28.8866278393294,-1.846898757408943,-35.23777295093005,-77.92980085665647,-96.31584911221935,-84.74240311871056,-78.20778510269155,-78.92088254366769,-67.65103647519707,-51.541327978636424,-34.533850547534655,-9.046846113641728,9.936832335726047,11.779609330807613,9.937373266404496,-2.045503267795482,-31.84011062884178,-43.33816284933155,-21.7142845183578,-7.227602210732645,-10.164529096073196,-7.213011634340766,-7.222505800230756,-13.629181529715108,-3.242729328219646,12.139939434899151,11.671805332956254,10.698133180130178,3.7505472235582324,-26.31125655207431,-43.37155584652143,-25.754026964120033,-13.601303414967646,-17.928585755781732,-14.538404307478906,-13.109182740656959,-18.71833839648373,-11.37437100012287,-2.820358074843691,-8.130769061174794,-7.202168846054878,0.5291695403376568,-3.5365111503495914,-7.877293330014037,-3.16129533282756,-2.718237900552321,-3.243390753193072,2.9868782977589996,4.248584294214561,-0.9056615531426147,-1.591341627053107,1.0476019937655598,4.998165050810455,9.171700971191633,1.805456296443987,-14.402835172856582,-17.32306093580925,-7.462738940123256,-3.0147616726720035,0.7782291678592195,11.000257719040146,12.803982221881842,6.448296392590434,5.8967581440673555,-1.2824140926760137,-19.776950749101626,-22.076638349761538,-10.01056237748833,-11.943274100753147,-19.50379432853068,-16.63060564938937,-14.472286568280172,-11.591574516171642,2.764525243962584,17.878666619656777,23.08945684492058,21.873840446318425,17.538303418284876,5.942635506250373,-12.765224620546547,-24.93327527915141,-37.551003880583565,-60.80459728783519,-60.2953453383744,-49.997936252421475,-76.7464516620012,-87.58535675313021,-98.97135165183043,-167.71768447234683,-82.38654017731443,233.25972728179374,495.1964599143753,697.4106274994522,759.745756478347,151.39298213284334,-702.6930970498753,-658.7505685741963,-92.62778507345632,-60.889692947058904,-215.48773731360998,-47.448096397289255,24.091370612043562,-70.20229554746821,-12.499158838654667,48.14118832626773,-0.11336733845457658,8.063059322731235,34.74387686148874,10.030967324519306,7.544859024819106,8.986192478850526,-14.38879039818931,-11.589123237197356,2.0386759321611176,-2.9033131106022108,2.0936748126971807,13.700995168899583,13.928794450831932,17.125838175265002,23.802155362813767,31.021182979921655,52.55191727171894,77.76255897655062,88.34028556200836,95.8762518183899,106.19940372647537,102.28786124731235,79.8923348973725,49.60587600350235,10.99445829862918,-41.21051826160919,-91.87649191621469,-115.85064048504476,-115.62108495448612,-112.16040483452755,-104.30470316479428,-82.435609753754,-57.2744621433439,-39.807294206235426,-29.34130692341028,-25.207302176317043,-20.436683935046574,-7.691305955136475,5.468228142689586,13.624123486793835,18.39189766939847,13.900428397291371,5.723415512190643,11.179743514197781,20.05208113101644,12.354028979866474,-0.7147175312088212,-6.190212709862621,-9.4569417777215,-6.7934162977677435,4.3575484363744055,13.64392281441081,19.62257947240321,13.33290377958062,-17.90678735873778,-40.05785293654898,-21.77276926094195,0.769331177480991,3.2783376207391157,5.446041643011478,-5.011301931705894,-34.35056793772276,-36.56415925028053,-9.192732618936756,1.2926181835680346,-2.208442573324046,-1.5309772515836002,-13.031323207927983,-27.39426625814239,-18.17021741227414,-3.7070092987622623,-4.74109117266136,-5.17085343848559,0.2592620785801465,0.13510513422446913,2.20163337903893,9.448833426857368,3.5840017024195223,-11.827306897954257,-14.416979172879506,-8.667702695693851,-7.948220281130995,-5.918461133755654,-1.1324128832695752,0.6093238966427892,4.264530725754462,8.487051196692889,6.386959122210701,7.057049025888974,14.420218398368391,12.177325431396364,-3.9497833792659414,-18.266152628398107,-24.029377852601634,-26.58280327726372,-26.112390490231235,-16.084034811024367,7.990663985041399,33.62979458304558,36.30615136138277,20.015013149760676,7.425738297036997,-6.017808164854856,-19.977914877987473,-25.549031127786456,-46.648311188248,-70.44991202899773,-66.15942688134756,-80.44291863764917,-102.22543608342386,-84.15820753122516,-108.34898644442353,-101.69924053969218,137.6016001548528,445.9781567383541,631.1029270844842,699.0092490541082,307.0055031391823,-515.1801518603323,-764.861349655415,-250.61323602599924,-8.335609420894087,-174.59544031417047,-93.76208083413101,66.01274742899349,-11.404634807615466,-40.407805261778826,37.433053297318544,25.891549642001614,8.621290643778421,45.61137377256108,34.56333265019889,-10.338033972812672,-27.405265036728693,-23.957577671575443,-11.566189503611824,0.1136078594876766,3.3747953788351324,-3.3459697789910443,-21.222111226395313,-22.824796644061607,4.138794354042549,22.261994836909302,28.82027775433389,53.17670264486178,76.3468124778468,80.9102166195954,92.23298803059001,108.38150119484592,104.12303304648209,85.60957219100528,60.47412131597032,21.149529641903538,-19.356143703745193,-43.85806693615561,-62.46018571568698,-87.93120351564104,-111.64095156105218,-115.76439267756474,-95.97147914397898,-71.27322305667896,-58.289034465945846,-46.32143105823475,-26.73222370512348,-13.354394593296377,-7.718572523493048,3.1305359068237664,12.647711506152557,14.143308499503261,20.053486440247966,27.80354361043168,24.969798184712957,19.98719904560747,14.437501609003402,-2.6353833774503936,-15.437772543603877,-8.010904081009606,-1.0036988042775423,-8.122669772139039,-13.950370315050478,-11.412153978863376,-7.198164767584334,-3.3542860285013667,-1.2935944244614639,-3.953966029869928,-9.36785101960873,-11.75087979566701,-7.539397685974546,-0.11283474564163942,4.100805823033111,1.8220713891888192,-5.933684293949885,-10.795004216635958,-5.846107143421154,1.2234979841171998,4.294684518441265,7.210841299719103,5.536347923422681,-0.566361904069409,3.794435744876396,16.5620359408388,26.08640870940356,33.17825244360597,24.196124992541677,-7.917347287562576,-26.27138489447625,-16.223882185563255,-7.411615601792719,1.5244759222944442,15.507702820702246,-1.7322594082984608,-39.60106653113765,-38.46324321609228,-6.519857429412214,7.969218778800391,9.008203771319144,11.282443081793105,2.612582461075835,-10.58072257963509,-9.334360974906872,-5.309741571059174,-16.976402208878362,-28.29200018921158,-18.658273197369358,-5.181028065741536,-7.600590410307145,-18.76177367659092,-34.09955677667945,-46.05937151298534,-50.04740987133828,-67.86926074801843,-81.78828453288381,-69.33269227640908,-86.08768307008351,-110.67088334876628,-80.98530704465361,-89.27361410275391,-82.23975443936389,158.68189664577955,496.9649967718715,697.2183146207663,702.6094215913894,227.30194378627033,-587.2804894134679,-767.2683585457848,-232.53273427051028,-12.019321342975317,-172.8740189049542,-79.30644367068771,67.11777854724981,-13.346893746131983,-25.910770058991297,49.13893644487234,22.98385040123974,3.901354993918698,33.70449288010406,13.2519105145,-11.611902490022354,-2.717074390411245,-6.699004099765711,-11.417474258052708,-1.4655274360356376,-0.9497405635772491,-7.049121285736849,-6.25773701073263,3.957107818811391,25.650354150950847,50.78915870625304,70.51969357554962,82.40549140941589,84.62398770369931,85.22445237159238,92.45197928706595,100.67247456176457,99.41334752384785,78.03423504060015,41.35483005684747,10.721493929977747,-14.914568206658007,-42.863881287665336,-57.04520414493515,-68.56224927405212,-98.48456909005178,-108.35505130820438,-75.31795407558224,-41.9452712773227,-22.663397596209492,-13.305060950749521,-39.79886520474129,-74.01822891074957,-56.228267968592114,-17.325271450567197,-7.8704851731165135,-4.339550209915803,7.9924082078999525,7.050629066191554,2.4890362200720926,12.180178146612594,20.274883356479833,17.417570436329104,15.50866583988191,11.982447897877188,-2.0457829109623216,-12.619370270595144,-9.124939372535788,-7.3979464669316535,-12.48148410486348,-10.167029588614298,-5.537514541317613,-9.837786545559968,-12.78845536403503,-9.32932560758832,-7.405083351477195,-5.8783156505668845,-3.4685584348945557,-3.346075207244435,-2.212603587490687,-0.0036794907189818815,0.3164764051606115,1.2336604871658992,0.04058431817790975,-4.838950304603124,-4.972096743417607,-1.9579836243270492,-3.3455201900997347,-2.796206511214323,2.3695571008417744,3.1048497885460713,-0.3069733776317993,-0.8691640525693158,1.8245756445238914,7.327659041687467,16.02194939867097,20.2411630707297,9.916165659611268,-6.850063985082999,-11.830104931221024,-8.423420785241744,-6.876820047345788,0.6991325256439556,11.867624549979421,14.159982227178038,15.595448189406266,18.35197917213824,8.53384903536444,-13.254797153096247,-38.279473791722275,-56.675970841768404,-66.58612120880193,-80.4483829002978,-85.31485683288435,-79.25920763528353,-95.20592260186525,-105.51144409983583,-102.52510883490973,-128.77201505241186,-36.30191271928693,308.04750440610997,692.0096364635411,874.8117869580549,648.4500565459768,-146.6565410200454,-874.0415897580802,-687.8026283129713,-118.11912242685302,-76.7219733142846,-203.21128293909132,-34.6764088577743,61.27712472409523,-8.96900955953701,27.733715357821595,75.12810967126839,26.36815733965585,3.5296726607680267,1.0811253674348476,-20.46772984341453,-10.946049320164217,4.805451841502355,-9.110905437968675,-20.84614274069392,-24.07607030125636,-24.946218496520128,-13.00482312854375,1.367834806342156,11.5256564683629,26.672574247659114,44.419960937095105,64.33750014380597,87.55106096089985,102.01775439528814,107.07685124863562,110.99310677273564,106.47436578945147,93.73939753848131,81.10568342927226,51.64591807165231,-2.1138970204891585,-50.30949640261921,-82.53234821548693,-110.79635869752701,-120.70841646602437,-107.20927656699642,-95.224907972122,-82.85112193093326,-58.0295912431222,-41.90483634734942,-39.35365993408817,-26.850324309364293,-9.01039887825883,-1.7024277438294817,6.2021346188362125,20.889979091418322,27.75820662474414,22.66285041969857,17.34750139730836,18.423392986819554,25.1280854171528,36.818271618635805,42.31900554700243,24.148243948879177,-6.790802772895955,-20.095968305794177,-10.706023081454681,4.92636488368643,7.425225266837612,-14.55748330740588,-35.28339452471673,-25.448446114283133,-5.225529342694858,7.552383591953343,15.31771079406707,-6.8697555797217476,-48.056019270751555,-46.47325353045443,-16.696697782005295,-13.465884499020788,-14.369595027971323,-3.506269496513628,-14.39241583802508,-30.716829304330382,-20.701442515145757,-6.284730120520479,-1.126438157387227,1.295384144272731,-8.56289698859507,-19.598150846443374,-8.616777027104433,5.4549655527793455,0.48108999535436325,-6.096867385473342,-4.149535279435174,-4.281312138766647,4.181707502058229,26.91126877046724,34.12204755418302,17.609742613086585,-2.0429203666324103,-22.642475604420618,-39.44593211527811,-48.5935797938119,-59.478562561777636,-59.463002955197894,-70.15436451345576,-118.18230930415038,-126.1950781620468,-95.45353107221833,-97.00444403271936,37.664719772785645,405.4095968571493,739.8414910384016,828.392098120294,489.2480492688168,-345.3894077674613,-916.7586596880986,-565.6547284981708,-59.40452460249578,-109.87449954213585,-170.44500006705633,27.515319132289882,51.69865340526991,-31.85988636596305,32.63417642694292,68.40950504385259,20.542218668296783,28.74805339702075,34.72480584757144,-12.155736721950397,-32.1384570779871,-19.718774768219987,-13.424618573437634,-12.11244926365315,-13.78586952372938,-9.739375117764734,5.618182688881271,16.112164057528293,23.190468629434278,34.08120622970229,35.46153355086567,39.56651304880683,71.74246814317979,108.85983070292478,123.60364165487555,124.26917555580476,105.18431046655552,64.87835800388802,36.88449360419091,19.05561711211348,-20.375991075126443,-65.80905584950978,-97.39177593800304,-124.19908874688313,-129.93887757293695,-104.02854145668337,-79.58740072179101,-68.84166569725144,-56.47547621209422,-46.05440844424288,-37.43509846915935,-20.54643298272582,-4.2924205262353965,4.871092935207287,14.419749302377,20.096871461812583,17.91374429199189,20.613539224186262,29.715831897953144,27.085045322838305,10.00872512398006,-2.759263637206822,-5.558343824193102,-7.232594930468058,-6.018296158326587,-1.2072736826876067,-2.2676467559468776,-6.523254990186995,-7.505701886812615,-10.444085678749826,-11.729692585899791,-5.643430838363162,-3.5338208057735168,-6.823701530035898,-3.719059912821738,0.5300477520408258,-1.408528543884656,-2.5699701597704587,-0.49408416584202897,4.496096330517508,12.599298671268752,15.327173091420534,12.522050443025877,9.70382869465303,-4.482644712319841,-26.1386036213482,-24.591502703830546,-3.4686582946816724,2.778570564357363,-4.149970560064046,-2.4061684570920665,-0.17357381319090948,-9.277120659967164,-14.247448605774085,-6.6774223143821665,-2.882967539758442,-1.5876456545267765,14.919175341425378,33.0887838429638,37.44529274234837,33.71346003088479,0.9615722950531165,-54.63268455443725,-72.56244340374906,-66.8782486612306,-75.14913566402953,-65.53412754944615,-77.73958514581187,-137.37260997914584,-142.8569984705786,-125.80351175465218,-111.40057000036114,103.24922797747192,460.8997324680893,690.3560765778093,749.1050075139542,400.8453235122299,-419.067447199927,-796.1344283094311,-318.6012972276363,14.148116134841835,-156.1520950884572,-125.34175525722365,68.45236069645404,4.401721376506728,-56.61071699233153,30.881075915500876,27.176484867910812,-14.075081090303549,22.76969504236729,29.409944629834,-0.5367618230684172,-1.4767358457194293,-10.116411406571618,-33.55893501038162,-35.49734964440693,-26.66134312132383,-22.979720856473527,-17.774909992363416,-6.527403695430655,9.283697255863313,27.726784532531166,52.52596180797618,80.89743520005928,99.65318913261187,111.1276946063676,121.69172659569519,123.11554840252285,118.46562945519014,106.15972965363758,60.110275353929985,-7.914938297021458,-50.9334738562423,-70.98857080877788,-93.52541085356575,-109.533851607581,-113.57684982449516,-111.06744708670422,-94.1423174375734,-72.80027197228526,-63.30328272070171,-51.316011405099815,-32.678529503664805,-23.581776588585857,-15.538379820529265,0.4872587454976163,7.739878130594658,4.852933684117593,7.677962154720798,14.069703505618143,16.890162775127962,20.754984627328483,23.99343045144913,18.45378200515865,9.697527168475368,8.42806971117281,12.564720601567823,19.990570652926287,27.077883293436006,11.075801575926972,-26.788395223681395,-38.60293616689812,-14.095893628473581,3.8088867019706054,8.914091018881326,13.608230328580271,-4.5184382689309,-37.47942074533249,-42.959477756276996,-27.286818619564873,-15.984071667805955,-7.173479780153919,-9.991879130753688,-26.499040541245456,-26.60622151634811,-9.996969518481176,-2.7442401472743416,0.3890073490419663,3.3821850495824073,-7.17597258934987,-15.043780634026596,-3.2229463164868104,6.7998983762999625,4.0835155271409125,2.4338730561134794,-0.02354368382069527,-7.335538358227396,-6.066940808862829,4.870752020007096,10.017497004009662,8.037928307688055,8.555873894418514,9.245249879936177,7.709389721758207,15.228034253201532,26.3569972980787,15.76522260240942,-8.321522689317266,-16.011328921360736,-16.754830356208053,-28.146576769203303,-33.042189411121896,-21.439980280080903,-5.21618318899316,9.289105019105268,18.049847206513125,14.181737672200754,-6.03667010600676,-29.041008913336043,-36.41849016174509,-49.18549769770485,-73.57832694589963,-75.43050716219503,-87.13818462006668,-118.59433574741786,-99.45041571192536,-95.84530267770779,-117.5045916466507,60.21841596694301,373.872156622201,581.2872083086604,736.908975039903,577.2903652999771,-203.3905637389997,-756.2523075065196,-393.1509477826261,-0.07603353350661379,-137.6931631350176,-155.67618376020664,37.54648675313771,12.676439197718402,-45.171375658250795,29.563849318030677,29.469793591446944,-1.142821781074952,40.886278413027256,45.0350593583303,3.5120523911623405,-21.195631377152218,-42.899201285287006,-44.04470470183243,-21.86256493156572,-15.544149110657642,-16.270834675849766,-20.84600540876383,-36.577062999711686,-24.57878298955886,16.110318724176917,45.70890570812864,70.0052640155478,87.67466957515516,77.78387713611949,71.55943953028726,90.40024120927042,99.6265913477302,88.42715993153739,67.77215195021942,28.792460127778824,-16.69792605165767,-43.32949489396492,-56.3405902927984,-67.17142983346571,-80.25642089404397,-101.45521994390191,-114.56148347750037,-99.02817583423032,-70.41997312677674,-51.01833414399359,-37.61762937623372,-24.82566984106071,-16.852836905890747,-11.538743417088988,-1.861069521101129,8.354112031374434,9.98763472156071,6.858900206313136,6.900308804726892,7.611653930427408,8.618307603380822,11.32276055315178,8.69593793046886,3.7288600605095166,5.08475575598977,2.3016289429645607,-6.923141317189602,-4.903001300149401,2.0461888217403814,-2.78237782402158,-6.289034760653542,-1.604972589223336,-3.9607631178476357,-8.841662133796401,-4.813285909050929,-0.31172843773002157,2.839636202933927,7.531265993400409,3.349430464507419,-5.1643963097475405,-2.505038909636627,3.168142177919562,6.411133589427207,16.909889760296522,16.66925507132864,-11.19852589085037,-31.159745558961948,-18.802230641752637,-3.2091159774979188,3.949070730719228,12.295998603115777,-0.2707873221842796,-33.64890889329288,-40.00127007571013,-17.845144753860787,-8.20352045149972,-7.451400796550384,-1.0685529660778208,-5.317022462960539,-14.288550173706744,-7.875145271359852,2.525426004279614,7.241166227680763,11.300454235629385,7.152583493619076,-2.0125772793031516,1.6050545221092163,13.708916502715486,21.238925699549856,17.18341340729111,-9.13659184708477,-40.64551459526694,-35.755411491946454,2.2194981327622862,27.720540257858687,24.47860622062479,13.079017949527936,-1.9428201095585322,-29.552864407903233,-45.42710123460637,-40.34215211755726,-54.3143866236576,-74.85029020625991,-75.4055281441432,-99.85243702741965,-113.76835184934473,-79.41335487405253,-97.95077273461276,-70.17703799339523,194.14321831921916,488.48914034725806,659.3310140229883,731.0436709082205,308.6084904653471,-526.0489763941607,-716.8412113475163,-188.99235683607566,-11.053959895959103,-193.8068725766698,-94.05669875141639,40.928913544459434,-43.25380175551476,-42.488820026174416,23.101312405181936,-17.19147316586711,-25.801695961487397,13.928517725678539,-3.129753614191122,-12.418446716216952,7.8073746064423695,-4.695800524705804,-16.53776645852933,-2.6488708601581488,-0.4799114845407253,-0.32313588435535046,15.155949610107122,15.899278144257192,1.0254394647905052,10.528681802000339,45.03247103486348,73.46725560948781,94.83010714302648,109.9216987758252,96.8180979202289,71.20659862641685,70.51941304579603,75.82950314669037,55.90079992622452,23.737955633002073,-16.283427920008307,-68.58796739591098,-98.99194613165189,-89.51386581657815,-74.8144426308739,-76.71346291938038,-86.94587071048647,-96.05385146326046,-87.9593230880296,-60.061396356415884,-36.3710845328901,-21.835876952763936,-6.927583115783349,-3.600975694769218,-9.632939265544248,-2.299236045105012,11.022808494602128,14.497416988194699,16.4347366721005,15.02023387474601,3.7210190253564814,-0.5108452121550249,7.749042784680793,11.805474539428188,9.2340367838558,4.6673995665065435,-4.0673136465902395,-9.606621367611474,-5.782551674770417,-1.5858313594747093,-0.9557568134557339,1.3555605089880522,2.9116269461581874,-1.6670636300752424,-6.10337952147909,-0.4105587203986856,7.623717086332097,0.7546124802977907,-15.650882510653176,-22.51058429673903,-18.744817731956662,-12.271201784028754,-6.187955197312833,-4.4140949130056795,-3.7615482418240127,0.10987219857654651,-1.57585442699438,-6.687140214389799,-1.3991018350850888,4.860929020666715,0.9275641092982561,0.15740334330045092,4.086257355758008,1.6069918623322306,1.5620812227888805,8.049283239207185,9.705910406251503,11.475351806721232,14.317710576923146,1.1047738908450082,-15.36553518394146,-8.986798077758372,3.9016017263454628,7.967558201205762,17.497993715534488,16.8818928951581,-11.097724095481068,-23.813903378908613,-5.053541250194497,-2.428285315348239,-12.294372671767011,2.9547071787247132,14.756400167249971,4.300135937782789,5.9793168334985785,14.875165069540602,12.305548633356686,6.967135503353738,-18.09058069100781,-58.36328251391777,-78.29158983373345,-93.56506573394606,-107.31110230016678,-106.02683887866735,-125.55670120358486,-140.80494136423258,-134.05148711379985,-161.556333316312,-81.34554211174368,241.53969116014096,600.3353931294604,847.9879659579735,813.0125566743616,120.30487819278724,-730.1451808694799,-683.3596905558521,-118.51340181677381,-66.28698205232033,-220.89261375520604,-55.36044774613665,41.96133580196959,-51.462581483009124,-23.37415401214416,32.216526537598476,-9.968989502868197,-10.23388987991051,17.190652438721262,-0.9909771832316654,-5.570812367669187,4.769679748958631,-7.566124425799857,-17.792141052107056,-16.9128377270344,-13.238560932645303,-2.8719925448325636,3.5278344527915415,7.006783475440862,23.120999478056444,44.102335705492926,61.951003385400455,82.89162087079667,101.47939955753976,111.85196739603569,117.412347975064,115.75470277563716,108.85117089807595,97.50302628999641,66.85326156894993,24.077334784348245,-8.320766522054079,-47.98841268714318,-101.06250143741705,-119.77760380396276,-102.22598984603373,-97.70373528694537,-92.6853090228682,-57.15913905391034,-32.94166116988479,-43.28775344236716,-45.50875921244722,-24.84571907386719,-2.5367785942295846,15.31993268297164,15.901497416480526,-7.853044264806101,-20.611793963370385,-4.9511889978260015,9.149451913368818,13.092799085242294,17.518682522479732,7.7954507427632524,-13.334361322683712,-14.516573352176032,0.019481658673833557,4.222141585030458,2.147524603977465,0.9893718284981929,-6.411433367194098,-11.761474583283725,-4.710296217550274,5.0477138849937795,9.742678598021632,8.62547812197118,0.5126731832271743,-4.545168454192762,-2.6075573047676235,-8.040850466530696,-15.090164133314476,-7.171550594024202,-2.208467488932019,-13.81601373966867,-18.34995190517073,-8.574786067866958,-0.6738837790421575,5.855668243160303,8.839394522307902,-2.487904953772264,-11.978418470988561,-1.2660781757000144,12.810693786014053,13.556672293760467,12.251915518747644,14.517234133802337,6.292913088011803,-8.516964057791224,-6.002049755201826,8.427262682278549,9.960339608571076,5.639801747879975,7.382398933340987,2.2763897964700415,-4.387858160619851,0.23866409408900147,-5.21462292126793,-23.895711941997593,-22.411059522170824,-2.0354696743091374,14.530940641061658,27.987524862002843,28.729311302029878,14.291419085398568,9.303245553874582,-3.0473992810106214,-41.08830915777693,-65.67495276173784,-78.42145733648499,-96.52663812186721,-89.2191696290915,-98.84858781830269,-149.60015082986445,-153.72522939721577,-151.8730164984923,-157.32059141877414,55.37245233010714,469.5805591140043,818.0409806599107,945.9162261804862,511.2651710798616,-465.0240716207944,-904.697068425788,-388.21548801858364,-20.79695610384477,-196.54590619348403,-173.15571132191013,31.75283586301768,-7.526952734570315,-42.91171192511286,52.699175328587806,40.46012825402822,-10.971644919441646,12.87589183721958,6.091123604708637,-19.97710824837084,-2.645637244080567,1.415704230376499,-18.788562639095822,-21.577723224314855,-14.59164015084311,-8.533961727136548,1.0298705323630735,9.20028826683198,17.67282974331551,32.45453699888883,51.760020462698776,73.46641454035755,95.69672094988124,110.02261547854714,108.47218047544222,99.04944866224824,94.83833358210228,89.86751195946437,71.26287770504047,37.11226640621868,-10.649930053688704,-60.93543798846658,-92.79307364412287,-99.86301236337826,-91.778266044545,-78.99407376190211,-69.04858545691792,-58.427666645785635,-42.92094292933232,-34.05921071883613,-31.584641171091754,-17.722853224936376,2.272512672010201,11.34799539169759,12.091256905017445,6.688416524413217,-5.8857530429029055,-12.887121970604902,-7.940453285080157,0.6980631231263992,6.749067775986466,8.555966073784633,10.929529217385177,15.349656784220095,13.970443156641828,15.897733508506079,25.157764458873906,8.95068824482411,-28.4371590599029,-32.641902045192516,-10.653557543736788,-5.9658480882355125,-3.486986256657005,3.711090724604592,-15.135222156998402,-38.22615292522961,-30.139019482822313,-17.236929173127493,-15.964619597255744,-5.326368343393133,4.5661735730864255,-6.900703216270809,-19.93912666948936,-14.442726319315275,-3.0850420432173333,0.8147073604171577,-0.33093204635948226,-4.817898538190503,-10.458277370718372,-9.04861077247691,-1.6737169809509629,3.8423939892902514,9.35105321946203,12.457598810033641,4.277977125041977,-5.432871913888199,-5.837137692976503,-6.702306727038468,-4.301749645766798,14.76057629254213,31.20608415061147,28.90097538083426,20.516115845088702,-0.19156613875458461,-30.57953646948874,-43.53907031313566,-68.01054968225102,-114.91044758901627,-117.94275632741123,-105.98465286283277,-131.03029880625186,-120.52398952091367,-114.22687418945088,-156.19200519046854,-5.823471281389857,402.2833328312121,797.6903620163835,978.3260956244558,609.5923710044293,-367.29167814509515,-938.6558091229278,-504.47303030089114,-61.47989899987657,-180.9761603575336,-185.4853346343507,23.0704748454434,-1.3195530685489842,-63.20065087849018,29.454760085799386,43.62110965391744,-3.4728418404748123,21.291693999290043,24.085287112440582,-7.221538384789923,3.0005583215264675,11.479816662852482,-4.145076727903092,-0.46959857397143434,4.556046088789156,-19.587905008999847,-37.6661114640705,-18.785856981435334,10.11480936300957,27.87047777290004,50.83754898193824,75.7089699907101,87.20968402735465,101.72057979916318,121.1124028639275,124.87358863101107,123.60526699308676,116.08626574880252,67.38078633274601,-4.838834905685538,-49.94467149361006,-75.61771859035464,-101.98757243265968,-111.28780566667132,-104.87202125815026,-103.31925048924832,-98.06463400937632,-80.79348227004944,-64.49893270546201,-49.16729681378617,-30.14138807792632,-18.8915462179301,-16.29554138470666,-9.905171689193473,0.5780347067305058,12.7146210466515,25.885313369046624,27.35623317970447,15.322703805957776,10.441755599877983,17.744914454898726,23.569081760649375,22.502962357820167,9.311987039713227,-13.535847542322491,-21.31961138471282,-10.03315246261388,-3.4992618599488328,-1.1543623016229532,5.611829708334698,3.9245367522761736,-4.388509000090869,-10.395644845900444,-22.584502157739383,-29.69849638164069,-17.868180758241092,-11.605190743956568,-18.634098820173058,-15.939825732213862,-9.666714437563865,-10.553205777459958,-4.029487047031294,3.5264531392300817,-4.587812732202805,-12.406666502120743,-3.722225718110651,7.622769519523928,5.548459917274299,-2.6718610669056435,-1.6008937723257386,6.509946579552241,17.625174574172803,38.66599324381252,56.408370778822835,47.0796600921274,11.37494162971625,-35.4283653749835,-73.03121488376829,-93.4182579776425,-105.13652078166564,-100.62208841048908,-96.37477301847082,-121.87183051214313,-137.534698185022,-145.923876673162,-164.38216844737292,-22.10585844493643,362.16707453038794,786.7629900371155,1032.1204409053726,732.6575569496406,-258.419616360557,-984.6509935350142,-631.1558295726811,-73.19634574478297,-132.71751527150042,-204.35245703727142,15.503327106756501,45.896451400953815,-45.86152077594861,18.03944664286261,45.472654360381185,-10.338192049535614,5.523739436255646,20.952587100354815,-10.625790643430403,-10.529016224296488,-5.842008595556276,-25.537364874094912,-29.07854552490893,-25.95310457943279,-30.45276575642246,-19.42367818701357,4.118900066976526,27.58391986919552,50.1589801841499,64.18420103595518,78.03421145058952,101.2296198799449,111.09785564040467,104.52721793805966,108.91711323650682,114.26808169360561,94.15989470318804,60.03201557624186,24.6091588271021,-17.52984660750688,-61.604071237979724,-101.33353649398524,-130.49280487160328,-130.69717306570507,-103.82057511112484,-80.3974036422644,-73.21849362824125,-67.95279833964449,-55.0565342663449,-37.00238530249844,-16.241796083855313,2.069450510388119,6.924924681442835,-0.23564979618039317,-2.6828275624829114,5.165695502332565,17.745121156483016,32.0213872449957,38.647482980972946,33.912904820620064,26.692836916632434,10.550254873587601,-14.22486664456919,-18.45901254289316,-3.459967993429764,1.9784341745603626,3.5858697233584262,1.69622642231759,-24.217897709804202,-45.263059354450405,-30.038493043811982,-12.262581626384867,-11.32317185896395,-8.9526136597044,-13.65334683835136,-25.371818920678674,-18.160406592750594,-5.271754820781121,-6.557681464457676,-1.7777992700614274,8.072387372833202,0.06615419245546406,-7.913454644741293,8.414032995188887,27.364751415809287,20.459857019055598,2.114659400810373,-4.128464813455508,-17.383102569232506,-47.407601819405585,-62.86294073682717,-69.68388503524056,-81.53873708550074,-77.5208466349671,-91.770120483174,-124.65314931957569,-101.45404497923649,-86.16968031462328,-89.52296013521322,120.40627416012003,543.1401212991682,886.2513188843951,894.274835040797,279.59345535560885,-683.4320195755736,-920.8904046528007,-320.8053502632784,-27.553677573754968,-207.22383467487995,-121.06579160954954,79.72091141040994,16.705032137391704,-10.049328770781596,71.55474999809292,33.6120645492933,-6.000141039532322,35.90628228968035,21.14881782362507,-16.06074183610259,-5.768965881034686,-16.221828383502682,-40.083003589135835,-24.16613334145059,-6.255274174002631,-9.367478585481203,-3.6614262575911383,10.49809156343047,24.585338226720154,55.06909126094902,95.94460474356289,123.5890114670429,144.86404770876985,161.03320946915977,144.4952175347483,113.06588498969387,111.86597786696888,111.46881565492654,67.48217683644457,7.137322373302449,-51.946473163310145,-117.95336327669801,-150.9283753866686,-135.7774367881684,-123.16927335420226,-117.71361046925725,-95.5314293549483,-81.95017192776727,-79.01603539592674,-60.954733030061014,-49.590389915309416,-49.89204502845779,-28.41751977314751,-5.447981420122538,-7.02614016074174,0.07968836576729998,20.059830884337188,21.05315420154174,16.85905812635742,26.436614600874428,30.2693018470876,22.684847191015898,18.728007143220434,18.543634639888854,10.692536422924812,-11.035508304187182,-32.52211625219036,-32.28507517346836,-21.54275025922711,-23.121687488630236,-26.109457994434763,-16.582708915374862,-7.756290560156401,-9.682731772533515,-14.12572852941394,-9.623498950864423,2.9830364731949928,7.560868416258593,1.379410336484236,-0.04670887304021676,1.2656952844333809,1.1457358177294612,9.900175761139202,14.351547024748097,2.9677195605586846,-7.612582233122655,-26.60587671300301,-58.48600650009738,-69.52449877707193,-67.22494231765025,-73.84825251818015,-84.21856105468285,-113.348807332293,-127.3734411473819,-99.05263584831609,-106.93385965289117,-57.55197727650665,242.6357394612201,638.1410070617337,870.302462990282,756.0164688387249,53.583412144909545,-778.770018969518,-759.1152105444266,-166.82329718138823,-45.42584859708157,-201.60609731498104,-48.27229399651428,81.36732731500368,-0.7461582741556398,25.574156473765687,89.62387624660039,21.97671457211566,-13.004999564338378,13.598423688785303,-7.646214976969447,-20.370670697934084,3.3496677806704804,-12.224181695021738,-52.961812312509345,-56.11068806859299,-33.24039487869412,-18.904551020969915,-5.624837204154867,17.363581769740478,34.724875544007446,49.25143535845722,81.43346788287401,117.88358347630385,134.55482482930853,134.38666674518439,124.92288395759803,115.03693522709727,111.22636283751964,87.99561402938357,25.798557793185807,-42.162118599460264,-82.81088360201208,-105.28769841791379,-120.08563324779615,-121.19322574581514,-109.16151643863276,-88.17848563222788,-61.22786044011056,-43.443070412139306,-46.359402802323885,-54.207396244534685,-48.00356976731584,-30.87989249442417,-12.355407324130397,0.9598537041991548,4.923971095459116,9.569610505841059,22.757613853142903,29.135984137374457,23.328653976134476,25.787084691122644,35.627772535265095,26.048835630281125,1.0725312128570215,-6.504589608478305,6.378074942625368,15.2980661712027,13.323719534276028,4.764898914812861,-11.683601883748777,-24.526901342374977,-21.96688050746155,-17.623697919464263,-20.92122671759845,-22.014693516942895,-21.486770251977298,-23.537918969639353,-20.526100773226045,-12.838171459496596,-4.5943029718367185,8.684892954276506,19.755725889231694,15.907137926565179,8.547400839696635,13.266130674916269,13.442482854514623,-10.664223124757147,-42.89901824230263,-71.4783791553184,-98.21910599545728,-97.76394757011755,-86.78727349985837,-109.77386808626426,-111.00587624862496,-92.0486560826437,-136.9219951627701,-72.0686676816263,269.22911277114684,648.0486722902486,849.7721065999217,705.7992206519001,-47.97546651352414,-845.6294787801332,-715.6530765506704,-123.40475697719307,-69.54609435707475,-205.83230154069838,-30.42211239607402,54.304075479944444,-40.85353471903619,3.192232529565553,64.33618759462854,16.6384252101775,12.934906554598058,30.441468191321036,-3.3061012705041843,-14.325489090964023,-6.365752247703435,-23.52693098325402,-29.256380145647224,-18.1493427196354,-19.266738930787874,-21.357285685435208,-8.824297827207932,13.455055391301034,38.3808823941678,62.269698349745454,86.2996437198637,110.44863746953912,130.49974083032504,144.553925735154,152.98911763699618,153.2503974830292,133.9507160607002,84.88897978685024,17.960381240397115,-44.08715333742483,-88.86048952079953,-110.67019980348616,-116.57651497635848,-122.27220686104533,-118.50910936285665,-90.38476884700702,-58.38030213039558,-41.552543936652,-34.124319237090816,-38.65673735062245,-45.67356555997472,-28.43090992022806,-5.09885058273121,-2.943555875337829,5.440128449173828,26.491269117369875,24.95728249128535,15.820595921542076,29.19561463030772,41.690192495102,40.27321987747584,35.1830329662582,10.826128524864336,-24.898244832782247,-29.369910441085167,-10.736335451936766,-6.665240074246306,-6.238402943548088,4.978197888833192,0.5259462061496087,-20.987002390157897,-22.211426603828283,-1.8508235912646303,10.020479242172913,8.436115299130295,-3.009713017764547,-22.08385417177541,-22.949546126678385,1.0277629493277587,12.645991230980389,2.301579761003829,-2.310809865230148,-0.5172791264503829,-1.13414711098617,7.9384980199581605,9.010873553339168,-25.864074933389194,-58.69420524858813,-64.35798366971032,-86.31932453335978,-108.44545202173072,-99.85553706678712,-121.62008768681348,-144.71425976978588,-107.29121528714298,-118.9062972352366,-112.77911515073825,151.52017951124455,533.8601572920849,799.4889330616196,852.488908720264,320.1077815904656,-620.9940379433402,-845.8144592825402,-264.5889224163526,-26.335510403337935,-207.03739658345677,-105.88237589440318,59.45660392786358,-19.86194893012192,-26.765028464500446,60.16725896023751,29.996493527662885,-3.6014267708389163,16.283177295799035,-7.538536794120184,-28.94739145957998,-12.91893117730133,-13.66580702392503,-20.2032115358268,-17.871532878032223,-29.75254977119226,-35.44364059535503,-14.60970896598777,10.0281449392205,32.50022620502863,64.3449117818445,90.98533554589926,100.62575931256393,114.91805131873272,143.5096946204697,162.26659159505527,162.04203763707608,150.81736359404806,111.89962737926665,35.82484718406619,-39.84944067750847,-82.12880219418244,-102.04186685188219,-117.25779096736707,-125.9557378853793,-118.29219324325206,-92.45932565540275,-63.553281853504615,-43.24754360454833,-27.993347040989512,-28.42620019553847,-51.739072013077035,-60.35235006702084,-31.977874564019576,-3.668184355636786,6.9163991831027865,16.639511446112934,11.696268634433657,-12.474121070119907,-15.188636073532567,6.246919963587606,11.999556744975468,4.454941946017891,4.364879732351518,0.9430731401625536,-7.283521670233819,-6.292802548205328,-4.2112013268285935,-8.0470907322477,-7.4028979324632616,-5.2033149730033035,-8.47738668029929,-8.354070877566777,-4.365844486456073,-4.798084512069105,-3.424241271921046,2.412672115501773,1.9109000966458431,-1.2170207404671887,3.5800149302649125,5.7534363440840455,-4.716302346593867,-14.679121972279273,-13.488246416628249,-9.003938233838333,-7.59932037713873,-4.437821189937923,4.2222485874117375,12.303781000349433,10.060270749140711,-1.632500570121925,-10.498530505801014,-8.92463068366095,1.166487763056959,12.595212083582613,13.831123439774395,5.003797194001286,0.8055375963993932,1.4627780403296153,0.643905159408253,8.501477692973314,22.835431289040546,23.56502728368719,4.716044865547367,-24.0558205752816,-45.90882214996222,-61.499116146597665,-80.37922185396118,-78.48524816239427,-84.10612495594108,-149.66989395137787,-169.15001019666263,-115.92662696308174,-149.93089731438184,-121.7179157037217,179.73013077772242,493.15903385938805,717.4553388854737,870.9554524534699,394.74036783993483,-573.1751116695299,-772.5564261070864,-208.01967995521565,-72.01028952985375,-263.1554268920344,-108.9152816444566,36.00286981435643,-60.018347701594735,-37.829886026946724,40.59591538806663,-5.372581259438132,-7.746267980158208,37.97995126217434,11.097203408235163,-11.082289079372128,3.3474656770120137,-10.256170569681897,-23.026192848183687,-10.268324267999251,-9.345136042362876,-13.985301961402659,-3.1541530218127676,8.817521909206743,24.059340215473387,53.216649493458135,73.77495665901898,77.89917133167057,92.19552566310675,114.15970798341101,120.9513838276501,121.23741359154722,119.2414267226482,94.36392263937474,49.12885583819562,1.7613834163249322,-45.61795440834055,-86.83990615886586,-109.86481735727538,-115.39667758697816,-105.48706189760206,-83.95147392351863,-64.97393465627046,-52.75392202457056,-38.916000385492104,-23.158938609937543,-8.074267688176047,6.760572247093272,14.871262636707717,14.498571581837666,14.049712932832723,7.475863630438928,-12.64875363033439,-21.339185653300838,-3.2437402234786568,8.60943806267045,-1.2898752677865488,-3.4793306830392687,2.539064509432512,-6.016632543890479,-11.063939596618884,0.5457663692823429,0.4948466672689431,-10.10113054887433,-2.6672797561395925,12.05450719600578,19.017870259714332,28.6250191102895,24.838068275753145,-8.18857320624469,-31.340204119492945,-19.134491664220036,-1.031851580039847,8.845779934419781,15.24357235948838,0.46399351430556734,-28.61371615323784,-31.633478172304176,-13.307519420955323,-10.070171858447214,-19.379712645437444,-25.645604885898795,-32.28091286020367,-31.91017893937845,-17.396709660910435,-5.745335330386673,-4.633791042057737,-3.7704841105942037,-3.0769485504884386,-4.617042199313985,-5.994215118074287,-12.393659247675892,-19.85741214782408,-16.210089509803957,-10.910064486243908,-14.188353878646371,-12.185813945701497,-2.8993376582529002,-1.8355120954236561,-4.380702153932759,-1.2646273943070092,-1.5514882881292351,-4.591942658236825,-1.1471840766323158,1.2567306172054433,0.3098286098232883,3.5047067803136516,-0.3406095422472788,-13.350183521554701,-12.7961403794726,-1.3918531152897922,6.0349477008317205,22.230280518814826,42.64002032350832,42.11268388309948,23.133122383359677,-4.122562346097894,-32.916264102702556,-56.880910284953366,-80.43533974114828,-85.43284546165154,-82.98486442511211,-124.4936974908642,-149.68751821370856,-127.34977394991283,-160.1364782780637,-119.46429430574024,145.48961881195015,406.35673332556104,647.3186743423445,908.2693947346376,538.2983948970618,-446.69891740203553,-747.1014174116528,-213.82498608190542,-42.1691097615149,-241.94820813674403,-120.60632694264957,32.39148094293566,-51.124577165932976,-41.816041080111624,33.55415680814735,1.1252930389199705,2.042765389264849,47.30480841658085,34.745507471325745,15.673679381184238,0.44046756810966725,-32.439760057659186,-27.626903228976182,-0.28439440932972104,-0.052450623864743307,-0.6231647828405578,-1.4755436680997578,-25.56589307465716,-32.60737626714055,1.2554301824179497,38.821778555214635,63.37799568735899,84.62741160644504,98.05384862125088,105.86318153811916,119.26493423201133,127.40979912743171,114.47781809703622,82.91119308681006,34.07185532253819,-26.648177325057446,-71.56326855430305,-88.64331876651865,-96.65106897190643,-97.35429485095426,-82.97645214756861,-70.10081523768434,-61.67154229761486,-43.21766445953209,-29.18851081683056,-28.14944557523752,-18.600622886441016,-5.336973054935537,-2.9653962165072905,3.206102789479843,4.617371689608387,-18.40103366957765,-31.500967074041235,-12.528549081526883,-2.652790683932718,-17.075773792452722,-23.54805422375486,-15.989716343521835,-9.70296490688461,-4.919468348408159,-2.602392120597546,-6.852866340988619,-11.002179824735844,-9.93669398855334,-6.334275991065775,-1.8019279742689616,0.46907571543513704,-3.927454224974948,-10.490643684493893,-10.919938998979926,-5.709880139179188,0.28742377590923773,4.213687039643414,1.3569145419672655,-7.739533433008633,-11.376546910429965,-6.175668287803479,-1.924912312686879,0.9519966681202394,4.5520329615686475,-1.1761152594911497,-11.398040461775068,-6.810044452504211,5.082379214913969,8.277511643714682,11.193494701419102,11.574186057891072,-3.0058219813948845,-11.510754701419167,1.482870577859077,13.888135618737415,18.961210130290084,18.152335046828313,-6.160073383743091,-31.359303198350577,-17.106887307228664,7.250383266495022,8.571830722113788,9.903602554177853,6.000029054399626,-25.481343880114437,-45.13709001822484,-27.096203822497955,-11.073736078698781,-7.072823158456997,9.989289372680815,21.726552074137068,12.317520648527392,7.256776453736312,-1.2052780894159065,-26.04631020430824,-33.48101274141977,-40.01228310456975,-71.71290296051173,-73.97784228238665,-74.19586183438082,-127.87582520321759,-142.27283003702127,-135.16975061130438,-169.787667847211,-31.587656970747148,307.71429905748585,605.0620653060761,863.5335221505806,787.3896378956272,-56.81706774674868,-811.8901236475178,-516.03660366677,-19.836895157622973,-136.21964797813416,-208.8817760324739,3.387944112679733,0.9211416839887789,-77.84867667701565,13.39296875363555,39.70852794053277,-5.261947231634554,24.859026443080385,28.500141208245537,-13.191517660080528,-15.146435515578402,-18.497793492078273,-35.69795862731218,-24.59591731585723,-15.682207681335324,-25.92834813878099,-23.8789979154489,-9.461077073548621,6.065126318851082,30.589360693360838,60.19914720852212,76.10153275862024,78.72344007051508,91.9670440783389,117.9190512600953,133.7933665998362,140.8956204602955,137.03628370782113,87.74812644379945,8.271399318240134,-40.26767302362838,-60.512563088733984,-82.86820460206896,-94.99883004051591,-105.34986909651266,-130.89732626068997,-129.69063270394236,-87.10810582840298,-54.706599782219826,-43.005271718082774,-30.333311401037868,-29.226693238217727,-33.26700868969783,-15.147845826179925,6.591685126164297,10.991384036095209,15.315470424599889,20.955023076735884,18.217999453075272,22.483860174182745,31.217579051812926,17.553581376597407,-9.98805249260618,-24.128856397991356,-28.67955166590943,-30.712796843847606,-21.326205879829367,-9.289724921028894,-9.402949043073326,-11.419611243963594,-8.273603362957836,-9.428859924084215,-9.905124776953471,-2.6846545759556886,-0.5824746521299566,-4.921806292792809,-2.9126451771852633,-0.6327535177712509,-4.190761880718634,-2.897275970631884,0.9460767905940308,-0.8448939353004228,-0.45976308871350824,2.0329036396686324,-1.2109251262944474,-2.6786891021302957,0.4242328365692396,0.3380657783142156,2.704292855195205,9.072588650982775,5.027262415401226,-5.990900284171108,-7.353437060470714,-1.946961923076136,5.025621638030274,16.506158668368275,19.673516131839076,7.789296552806507,-4.705541708014325,-20.46184689022555,-38.46505295321313,-40.39480373212908,-47.2107572263282,-68.07559058242823,-72.47654133236686,-85.67672706031028,-102.35983038079489,-71.03365170539855,-74.08893564707213,-93.02682318836271,94.41271541432695,429.25157046108404,703.474969795829,838.5149216066583,458.46902769275795,-461.6659068915459,-867.9347564474022,-374.9891538831996,-41.79961106707512,-194.10612556699073,-140.58230636565793,51.64900241434828,-2.4121445782753312,-44.80079120930614,41.5118074977275,43.15880068931621,6.305199152210481,6.291689556792759,-25.716882750082828,-49.030830988615435,-30.30378753718744,-28.67830832337989,-33.74660112925859,-20.3205843694611,-17.74148567761187,-24.23679411682196,-17.810556374234913,-2.355176512146981,18.6585137794224,44.82780035007641,69.38085365196153,90.3338275941839,106.68482251084936,116.81722696475997,125.19594047253966,131.56961785329125,126.22479760880182,103.20110247136562,61.412370048094836,4.572799729537921,-48.831661018468914,-82.24681794632025,-101.5600143772326,-111.53525408083559,-104.79151486462233,-88.69253318554165,-75.53944811309813,-59.585600990186705,-42.897705458667815,-39.50011127139666,-40.01813096495077,-27.8052150886513,-12.596788551874237,-6.217141000497769,-2.323481674947651,4.029504234339047,10.537132077633032,14.740219182657444,13.822350669962809,9.931171553284782,8.24386517049258,7.426018820474146,7.216658332211966,10.999211383631902,11.872353352304932,3.4119356542756343,-2.252182919182351,2.442729683397973,6.931244852019724,11.784074864508332,19.795860832348453,7.409381611906437,-25.645138364498045,-32.896844341162854,-6.921517240271702,11.534154952309553,18.679808558485092,22.574664426955543,1.9289002932424175,-22.310322124182875,-7.98728589420627,9.198055317870118,-13.162596580592595,-38.708374552720834,-41.011390980230466,-41.588419229713686,-38.154226352458636,-19.90304484337215,-6.939479738767549,-8.156128872768612,-11.574724453009587,-15.467476640510368,-12.631848098589268,9.750091710740818,34.05160107134773,36.349196019201386,19.899048325683523,-11.106993407585012,-41.52277090097704,-45.795772651930875,-51.29336116541691,-76.01338406653186,-79.6696479717395,-89.07556921986685,-123.1944029655553,-106.7861445149002,-93.00834610393875,-112.85348861650722,58.19800358732155,431.5233786954632,752.8540264399712,895.6564899611665,540.2591492959477,-398.520636789816,-914.7178248211804,-440.27368189144204,-4.531651242790986,-145.79402726774816,-154.71257577627767,48.50666200019663,12.638421078390962,-56.9281343163279,22.785189900834073,23.584580505160297,-21.72506446330219,8.351080109280796,9.509381169807433,-21.277111669528132,-10.281753771215616,-5.5720609179398854,-23.909963798978815,-24.667453940229365,-19.446386414754276,-19.292081514613688,-7.625668196217658,12.101924978187682,28.187178709005202,44.32644166150665,68.39423877124162,95.52641703921826,116.97492607466634,137.66871396423744,151.2786106510129,136.01140070606968,104.89402494211407,84.39389599188627,60.116701412355766,19.105183537439174,-30.716402336093566,-97.7853137281946,-160.76832706019326,-165.14455473538385,-129.95594298463936,-110.98031420364367,-92.61876697405344,-64.06097604271264,-64.08697560531256,-73.5166448916383,-46.621579503404575,-14.088650056553842,-5.678407117933851,3.3362958539440477,11.239781280689826,3.2115128407986333,3.318201109175801,17.09770600788717,20.568471492747136,16.559901217767425,13.707864564546655,5.317549923266741,-0.7517837191666601,2.3154020746270847,4.731666360045623,6.358303123934891,8.36511337360427,3.231387134684768,-4.215645181062333,-9.348546511496558,-17.51038379830644,-20.50457595720451,-12.674588423963177,-10.461236234410652,-17.247163683015458,-15.326090190924248,-3.938180641945923,1.2084214012922692,-1.0493311775607452,-0.8557220030035957,-0.6066104216276766,-5.4278917608028925,-5.676193035448242,0.4343259626212834,-0.5316802368190805,-3.5030983651223773,1.9118723052775861,1.9308666424606242,-4.685479385282939,-0.6993902636986706,4.384578666110104,-0.17025505910948846,0.899656894627189,4.409008485927021,-1.3783921652650166,-0.46986632502718484,6.99972834141129,2.131292604045553,0.3495147861382646,13.406935138979353,18.42635061127629,15.554074015829244,18.97403175925809,20.916048793000822,23.082173693105084,13.61597086434444,-33.50698002282316,-77.64590450624237,-81.54440384781891,-83.0315674599689,-85.90299878453952,-83.40617246224612,-105.12079587809893,-118.58863379770506,-128.4178071302876,-155.5065635941524,-14.5947915218526,369.0455269122363,753.3214898790887,942.1313757590657,653.7060672150237,-255.88642203888122,-924.7047645233104,-587.109215479187,-62.433614701071576,-125.49331235812929,-203.8659095248699,-8.164079618370991,21.865692469230765,-49.27719544090716,23.37273602675289,61.404979346908085,23.1522483904034,35.79743474209126,34.84109957929671,-3.9744631215262487,-6.398038850808707,1.2387085551644517,-9.093254275341382,-9.762929507732219,-6.291701731702879,-6.598846892433269,0.47361386784461246,10.56389454746316,17.293550391175856,22.103158377165492,29.90576980439919,48.286970529481934,71.95470092982629,88.06786208748201,94.78723880626079,94.98885082433817,90.09688585157843,80.83686778279794,63.14613242371162,31.805589651469838,-12.183760221487507,-57.28051107186417,-87.19982332316818,-99.34031936398193,-101.70535227795432,-95.83921796923997,-84.31016817962563,-71.0245603270958,-51.67607081047672,-31.566725538358227,-23.41011898131871,-20.489398109960756,-10.876710533177466,4.382713983849488,17.977136258254546,13.988432554786433,-7.006553855433605,-11.288184231601,4.691166532082072,5.449723588420881,-1.8773355102779963,9.852128832559014,16.96622990356754,3.0469051071330426,-1.7268130235102506,7.691086468349043,10.980975846569729,14.605267462994227,14.326476794866597,-12.863335033548157,-40.663455418785425,-29.798611556725856,-5.787211850288427,1.024634316754378,3.377607133500554,-5.126896788703945,-33.39975538310706,-41.239080449047904,-17.30066564742897,-5.274128683762267,-6.938632818622644,0.06503901595216632,-4.420109079329809,-19.744236474641045,-12.95426727182147,3.0798513443319706,5.441017347705689,6.93299296771306,2.7627518196989875,-15.852254928356437,-22.413859086812547,-11.014985441457526,-4.810107404954541,-2.1455682732121044,6.7946980905750305,15.529127637618187,19.86971748776662,18.86526739479341,7.477278940422495,-15.429592973090195,-37.133307618421355,-51.70362116360445,-74.56131551257909,-89.8245120657019,-80.11937671988979,-93.50559305348219,-116.3682955179867,-96.12837305373978,-106.24753861176833,-88.10068213782621,179.1045418252412,587.1022297453536,858.2296458306456,826.1471767704634,214.85448312837372,-693.8348990744519,-854.6635894964354,-257.2897640877427,-16.14689128683473,-187.33693789782154,-84.60879106354457,74.50598210941862,-18.421496832620477,-37.819495145682374,47.89169003995644,19.35714214328393,-8.196058727581299,27.372117869927035,12.314290095697736,-11.959710444337603,2.315341485635156,-0.1615943708188574,-9.097949687850406,-0.8097725467672667,-1.7513549170712892,-3.208645468061441,11.918511556078698,27.319031673357365,45.57041861533834,74.6036236511841,88.90992285141648,81.82322479710751,87.53182542714067,113.21273535841719,129.49539296786557,127.10965163936132,106.74633583381438,57.622804212366034,-0.11694423658918351,-31.777569755934813,-51.97261065260774,-83.38519572835224,-106.90082771997658,-116.04045985045349,-126.60314211524707,-124.58808137752104,-98.14531126729308,-71.12595077425499,-54.10180590494336,-39.66650034697498,-33.87395929259824,-31.550800639284507,-16.933118646513236,1.4823695861536272,12.539449188006568,18.567034241462608,14.593808276100049,4.395939979247448,5.044914108313936,12.87639656960295,15.547290359457303,14.695531901202589,7.896436450986774,-5.046963746544209,-9.570103443276633,-2.2908397606390167,5.544385332418696,6.279917118156863,-5.504047206844611,-23.0492454449977,-26.61128885166449,-15.514125731533976,-5.383462624174543,0.7384726878609129,5.2183005906993,6.230511538526153,3.177594425093396,-7.05681721854865,-21.488136231776725,-25.958760779703432,-19.442233366486498,-15.361010430041498,-15.700203441170123,-12.957916584814622,-6.4665223385543875,-1.9507917254638176,-2.216668094396251,-2.516327589446835,-0.7168728587928594,-1.5962978340949228,-2.618797059649877,1.3738982970916638,4.361645388753688,2.8164047104310272,2.09456329532585,2.4088180631454517,2.949926230333649,12.153345484987415,32.84963884771285,48.317638338402595,44.174423594375156,21.485424828370387,-20.979560322449068,-62.771304728507715,-68.55540108818674,-67.0835956876536,-83.71176543890715,-76.87399916192126,-85.2605417673036,-144.8464570295393,-148.95445679696317,-123.96123895081107,-138.7006513331883,23.154618135491802,391.0733141966974,678.6596189012541,817.2393973436516,590.900481682474,-236.22399821476523,-837.9564311613385,-475.36074006198925,-16.84384381349416,-140.73945743804097,-192.26985250258372,21.663630507827612,25.2443255739028,-44.75782565730762,35.93045918431902,45.64259724896603,-10.626481582996908,20.481255377505786,39.45399065754752,4.007393280273559,-5.232475384628081,-9.608085761445473,-26.592259682485437,-20.695181482076137,-8.362361895938587,-4.28874937775192,11.267439255965737,27.32690926554993,31.57835309735694,47.37531301855633,72.49752094509088,74.65555799162694,65.430301423015,76.70058170503366,91.85432997853857,92.24802228265426,96.95221220114591,99.9082345935569,70.7929469695532,20.282208150793934,-27.24525304079811,-73.55358929076183,-108.1749091302495,-111.67341488435645,-101.19215939678442,-98.04144316131864,-89.29847509494888,-70.00657117357102,-55.47153010954564,-40.539168489031006,-20.347609584090335,-15.176567622809664,-21.131972963067504,-12.631135184052265,1.256009596046308,6.441253868534055,14.168290642805655,20.07514680491608,19.246741297927887,25.83249466244185,21.826392527601175,-9.322450946205187,-25.136097326414657,-9.602030305952137,-1.2235148124300395,1.2475643284274955,9.35910830573167,-7.967325372501588,-38.55227369913776,-34.55736709179086,-14.56158037736635,-10.408761860572575,-4.668875402520943,-1.5279977086283267,-20.880564943088157,-34.458621967056544,-22.25161030089442,-9.679951168970568,-4.131166491605029,4.0528488448705655,4.057988126241362,-2.694535979564396,-0.8254371851821389,-1.8688060640737127,-13.276269274264802,-12.848515710544694,-2.4362299901887514,-7.019240627259926,-15.690928373031715,-7.621454143052763,4.2689006999769035,10.427035341873289,15.374143649177498,11.510382627401036,5.821207804551144,13.127758998046957,8.075601145176092,-21.516125102257057,-33.5619336995093,-21.662812335193223,-19.469280320845318,-11.301659659145148,17.18228140600651,28.925113922762964,16.457275882975797,-2.783259213835538,-29.372688703372823,-45.671771299440785,-52.58885187267059,-69.33720606662921,-70.64186120394297,-75.51328499464029,-109.90928919945614,-103.63831249295148,-94.2897048568248,-124.83254489101031,19.323485317833843,358.68355271002855,634.8512971742014,797.041885785537,602.3504501881306,-214.84941784462455,-828.8182029325884,-478.21307973420517,-11.778667579731717,-122.01279161824422,-178.41034357599608,26.18227671522788,32.74235058073071,-39.45326661555006,36.83939697749064,58.683874744195535,-0.025006587994619522,-2.1920957873794435,6.564225499688588,-1.5968746545866168,10.027743031054992,19.24328098381343,10.93586035769217,-11.5238434208705,-36.83771973794521,-32.23693208337187,-7.805297156144373,8.35076673672284,29.180052935984108,50.04341229718312,52.10537650413583,54.225677520503396,63.91247547037261,66.83741563315303,73.69705584793788,87.18094557851373,85.59570960706353,70.5355728730856,51.51178446487191,18.619117877050055,-20.50053404749263,-47.3498721286918,-70.59061016237818,-91.42934822225016,-92.5803771113707,-89.59483192416423,-99.68712992724139,-93.85293260301191,-65.76722609789559,-52.43673288649897,-50.06342607149406,-30.82983575043258,-8.999514896121369,1.727043984721373,11.344010445517092,12.46873364578519,2.788990563330941,3.9693577706947742,16.536490646434373,22.63242604939459,20.550723523900864,14.484116641156698,6.3211150911020955,-1.63103416947002,-11.8005679710877,-18.05446803019828,-11.421202556046303,-7.179283387983737,-17.113389037967742,-21.64574487642473,-11.844755663266909,-4.159189061135949,-1.835059140776842,0.7645014639840788,-3.2016520897336296,-11.950102930018815,-10.685480759871377,-1.1426894639462812,1.8125984751789392,-1.7611381831528412,-2.960350418997942,-4.123861363052532,-6.65451152329735,-1.8965114240225693,6.123085855848357,5.036972700780627,2.5288134203024084,6.161434985084023,5.11252971444441,3.764743306173302,13.706455054318859,19.882073925337828,18.03063163208766,24.548826726295815,21.189183339001737,-10.337045105333566,-33.165846563199835,-25.206616809314134,-11.311387848637805,1.0398088744283935,7.866846939208504,-10.754507155814725,-32.62036911511849,-27.302050670932033,-18.496393402526458,-16.801959011816173,0.9703842610638951,22.708900958769085,29.73725972183179,35.531631692131725,28.535604037583283,-16.631623337540617,-59.98944895232714,-56.442564051369374,-57.146507377920734,-94.5913176229023,-101.20596342926396,-90.23713732219511,-120.76725407937579,-116.36919543863436,-93.07355814598526,-140.75629308512845,-52.19467706869004,291.6721217487862,636.6132568563265,870.9310563136634,776.0806678495323,-22.43714194226783,-830.3544129409621,-631.0678197742643,-66.76858493548224,-93.516834260158,-209.96797400641404,-13.136941880217599,30.850319985161782,-62.77014819606815,8.636660750629844,60.67665116408216,13.426631170965269,23.083693174378105,