ECG,7.581776694055776,-15.955547057401292,-46.41528594469753,-84.58321865806928,-113.34007093201231,-116.7900933891818,-104.0799340996879,-90.39225049679146,-77.14075115695482,-64.28286624775453,-54.22804904282214,-41.83963467075176,-23.068560922865696,-5.806954761906013,2.938440477915293,6.730632520012499,8.379148546133973,7.963260721443409,10.453583791536492,15.450118454254689,15.420651085776502,12.912509171136822,12.4940465578977,9.392242609003596,6.2796928278986055,8.537953006903392,9.679833410382074,9.274609368927909,11.600001117658232,11.037222626137009,9.04411106581145,4.907154350776416,-15.90038390403128,-37.040279775663834,-28.387091519401068,-14.394835441401476,-22.515921492939604,-24.70396111776482,-10.652020595763522,-7.262517451955322,-7.9203563549984555,3.947863800389925,10.277205414610682,6.018442280337137,6.99493656668454,5.6135051895821935,-3.726001949452292,-2.5929753004026574,6.745263790649955,6.098478010116397,4.323249664118868,8.29302911335697,1.58036661009079,-11.082205002476634,-14.591307946057213,-20.611691974410355,-25.52023373984915,-7.696947211959596,13.574639799479895,9.59775502773276,-10.9528370334982,-31.864961829678812,-47.85882524299798,-66.54821096513388,-84.36054988717036,-76.74995304120088,-75.76205376750929,-110.96774305430446,-120.34744873825863,-121.47855270752804,-135.93858365022504,24.266775368543506,386.03976049323063,703.6929149054577,834.6820192921929,520.8185031375054,-335.93811647602917,-868.3178884840709,-464.8431760962883,-2.4664426031846958,-97.43087542435184,-150.8356586669087,13.159245102954372,2.8839013740257826,-46.833567952564636,34.65831834875437,49.23524147117173,4.968302418099695,7.4456567838936865,-10.904139016399764,-30.664052465493647,-4.754867165065862,0.5708230332139443,-13.915757081544449,-6.80808206883818,-3.30962526163926,-3.169210547102719,6.182235542419184,-0.1724002493357073,-10.494685019034126,3.4090813448308843,26.00895573996451,50.1194758730312,82.48500434437551,101.68919103597132,101.31712412068369,104.35383754199003,106.87080161545762,92.20279168203948,65.805558276284,26.242543508391236,-26.269774238509775,-63.492214593141895,-78.77735892058104,-96.66480576313134,-111.20196171831985,-104.20826667927841,-89.2197019418906,-73.39240867279787,-49.591087167363,-32.865169666343995,-31.60925082143399,-25.464725797906024,-8.544464808069574,5.466065930569105,15.706217822621618,25.180817317527186,26.459047274854647,20.128678314522674,19.279829888961817,23.946341436711393,18.85598376447757,4.5002922462532595,-4.858325467762444,-10.715434683092848,-17.936786815893196,-18.39048446175841,-11.967438851528952,-5.767018507518419,-0.9666218444876993,-3.350460663217266,-12.94793537663924,-15.93548272612642,-10.003076666057629,-0.7180458322971095,9.367355099314778,6.528641752283577,-7.491229551849184,-4.612465070489059,11.836144520780548,17.734130113413382,21.83129492429284,21.806250966863402,-6.828478763021298,-35.87307849223164,-26.176143222131323,-6.8910393672384105,-2.9830362118250076,5.11107483878977,12.198131311607238,12.985991784784144,35.12402855353105,56.37840794554606,21.652481575958824,-41.012421710275255,-66.5959294271057,-74.52822161927702,-108.73596900915737,-124.15717354342257,-94.7695043900039,-102.36554110996124,-136.03739637043617,-108.11719619442579,-102.33878817022074,-112.60759032996779,107.1123412876029,519.5228285683313,837.3354482663569,880.1593221422683,357.10102748516795,-581.1001003430093,-895.6304465237458,-343.5904451864829,-13.131085539353052,-169.7587885059749,-110.34028100487407,73.06591579635295,1.7843206156636455,-45.962533444499726,34.431567289524615,20.32743028344408,-9.939556707271596,26.653567080659155,17.08839756842665,-14.344994098818105,-9.20665195742081,-17.605258487995563,-34.560820351812254,-30.78186106779234,-29.095165730364826,-28.27949104190644,-16.15816285591485,-1.2020833755212834,22.29925353231581,51.19784623775463,66.48158765940741,76.7070577628444,93.42675010363716,103.40154931304095,106.1241859250479,111.63768399817369,108.06668771960315,84.75991296636612,48.21487636795652,1.0815471571702981,-45.62965693591479,-69.82600223151843,-81.92624679024001,-105.36747868197654,-117.00457557555686,-93.09078676176324,-62.41834683130938,-39.55050212479732,-9.620152956125825,0.9556729769527408,-22.372130913855013,-25.46874643348457,-0.602074046987255,-2.57010595129141,-15.432474484898073,-0.9242753317872108,0.8443794895729653,-23.252168772892745,-21.483736902923386,2.2700918878411436,7.651153173075183,1.7273479469952377,-4.717413279960297,-16.816534668407343,-20.147608399100847,-10.758026332002713,-6.41906318145702,-8.318121518312442,-11.479185998407718,-16.70942252938506,-12.852116872048018,0.4206361065740438,2.544419475521517,-5.679142146212829,-7.124971375077138,-5.474207048327212,-5.313534730703596,1.5664819795927656,6.5226476010399725,-1.4835140066773835,-4.726730916195718,6.036751032501236,8.971494178734755,1.3560927406028949,1.2171662993064114,-1.8733223480820218,-13.268191844345429,-3.4281717069280893,20.110718836936968,16.874014071399586,-4.8373069739872445,-21.848499100852337,-36.966225749933415,-48.631266553028475,-64.8559351354723,-83.1743299515737,-84.12932345162946,-98.48186320035225,-119.57328154320473,-92.31765791182033,-77.96463128088813,-53.212741873666204,183.718734962799,574.67765510272,843.7713244855564,778.4625354974175,146.74049898156096,-722.624171447663,-853.5728489460441,-268.52883244460384,-21.259337056103995,-171.60362113345482,-71.80920228134079,95.91463937315586,32.5996952283634,12.27273938429932,76.67606784298344,47.353272564794366,14.798742918267102,23.16689879056633,-9.240256702045158,-36.8317119026665,-25.212620667612097,-18.296592616218135,-14.623329006087584,-2.593269391262103,11.198927625980101,15.294530770743378,-6.6681410209358845,-20.530736170286545,10.838731282350679,49.945701760056735,78.11448929310666,113.98727180117373,121.4962227779399,88.60047143316126,84.53775623217138,117.02030935822356,116.3651704880038,76.36344757291845,35.11707650236838,-12.421707720174325,-64.80244691320632,-90.45203372612607,-95.97474830197424,-105.99644658406054,-106.69218246848908,-93.09589630937495,-90.02143104143241,-91.13063665522947,-74.00990219961925,-52.51708591347669,-39.63574268911284,-24.161569318290038,-9.410232076350692,-2.7230633113454665,5.315451854656551,12.313389530401919,11.136046849042952,11.271402145713349,13.120488972906514,11.323779020597229,12.582020610181202,9.740375637289011,-4.25543397585721,-9.371381683971032,-3.8707756818888885,-7.327844276541368,-11.190640864766259,-8.167194352032737,-13.551230194785884,-19.260785261443885,-10.497030409603529,-2.3647647189667556,-4.877907495207152,-8.670154101027556,-8.518908931793192,-3.67870051848951,3.6212710658726293,10.552638034165394,14.96308759873898,10.577248417586295,10.445027548921196,28.561034157369477,28.269747550071003,-9.249768560469864,-37.882503050798896,-47.44300445363355,-61.58868032968886,-69.79654758693869,-75.63691378010836,-82.68948324750373,-79.51614814752239,-94.32429865543459,-103.07920933757612,-67.69386088419519,-61.58744726288625,-9.083150189995877,278.8854927593238,652.7077539629374,828.886592172369,631.8618954934045,-88.58206923800643,-839.0205345167036,-739.6255726775122,-147.0627360419684,-59.98040880923398,-224.81361486081047,-52.70414893162885,92.55642239915746,-1.3565931759590732,3.8264931931267974,75.290469979635,32.772307869381734,5.66491094812713,32.897583701515764,21.370031358970216,3.107239732701324,1.2098251534518876,-20.534553587557607,-37.78241737625049,-24.972594543618506,-13.499298766651112,-17.305797084793042,-9.720578303499252,11.784051565861603,26.025661788935963,49.14784119331074,92.0478532249648,113.71047946172804,109.77085956560515,119.35467855202042,128.35833887603215,113.96726362313431,100.09791703250252,82.76926267249164,34.34944493516313,-27.561701465832428,-74.24132333945028,-101.38376615234344,-109.71903146839723,-107.6425078140135,-102.52606057551063,-85.26634946434892,-57.73059330183055,-39.45304966051528,-34.72886493247134,-27.983336013217624,-8.865421975990813,10.345996389520275,7.36090559222167,-13.675693310024716,-21.14217397463902,-4.682960809818066,9.653918585224252,7.994225310742706,8.064148431079197,13.682307831728055,8.085087639104207,0.13905229698013644,7.122742695674228,12.738743247969555,6.2224281408947455,5.797351854029049,12.059964116312003,10.803281373806461,5.78307118142407,0.4915802482511862,-0.9252444696303441,14.827188209644362,25.703408725731478,-2.459585912540053,-35.49910998119488,-26.43003738771923,-0.4812431781405664,9.144078517429886,7.39875937305184,-4.9334868812226915,-23.841088277953656,-38.37701205549199,-48.80574799657444,-45.263921965610464,-39.34622175031318,-64.44978236613633,-99.53803302605992,-123.9404500319829,-138.5574946168506,-107.33362529298856,-79.13226736329446,-86.68776480535465,68.33131509032319,429.79739366131975,724.9196063354117,764.4367280490668,347.2804813694408,-492.50012035382395,-899.1351037542283,-429.8803663211245,-15.692217753518264,-139.85576717748827,-135.42562301791048,82.28271547060312,59.97933998453374,-20.99416220194186,49.32642244705154,60.85917043289352,17.404586252063037,34.940917562583124,30.72311049914893,-1.893381138402649,-5.034706930087433,-13.933108500816346,-25.562024097606844,-12.872949538813462,-6.093328158097924,-13.250246173332279,-20.344389798686304,-24.34139712936821,-5.8505085473995315,32.116904694458235,60.975306408921924,88.29846574465745,120.33710523248789,130.46275962352706,123.8565596360018,125.29255342180116,119.35441206064844,90.83062759193547,52.37571519430766,2.5743118353192407,-57.61577928365054,-98.63740745565265,-112.60351189476629,-119.70470530310345,-114.47431959287067,-88.02256380529772,-66.69160340975057,-60.810037758741224,-45.438982717614586,-22.264941897965386,-12.512574720634241,-6.6487792239263435,0.8737912397004592,-5.458315910235033,-8.659800838345461,13.567773964306305,34.250406517013225,35.66831172243721,36.89138159667107,29.364807092663643,-0.8475465857641673,-18.85322711064674,-3.0211924099474112,16.769935654147666,17.724009095483048,-0.764767464622139,-31.758020320840753,-48.156348691244936,-35.69553634663579,-19.96492598989003,-14.845319989796742,-10.782983130352441,-14.421384258274202,-23.806277278113342,-13.622190111629841,8.104220322148505,10.900204918656403,7.400087498925495,18.646619843890647,24.703741534076713,14.53516246691937,4.112871770693612,-5.089366988417121,-20.35750023047756,-45.803108110651294,-70.49156534099517,-70.48682318800228,-77.98894719998204,-109.00536493905132,-82.17406377081649,-42.79705151424111,-86.74832394163948,-4.752904615415034,336.4523645591022,659.9782941339375,751.6931009985499,451.82996141218064,-330.8999158195439,-888.500020312199,-548.1725002790503,-42.44370370107146,-99.32907946370298,-173.8104363136232,28.980933180384227,61.28545500720505,-28.47587086627669,32.07288767516309,63.54589393874848,4.450927334655775,14.375875179239706,36.524299597299375,3.9631104609203476,-7.020656255091068,1.7358005142599726,-11.112273618263599,-24.660533157950226,-29.536511662628445,-32.85360711623984,-28.25842910723731,-14.158658447687568,7.566122443875948,32.80615418934117,61.62677966345777,100.9643821124487,131.41832124192428,131.49983953423776,127.73530274420335,138.05526781971435,137.9227230833543,121.24977897644727,84.15364761960963,3.5180475528493087,-83.21923383025589,-114.71393046939457,-114.20233472051828,-113.99520200433992,-97.40006414767862,-88.3945469741049,-109.51089057460848,-104.92383390688092,-59.6653063384683,-31.8978080270056,-24.94615248379669,-12.854749371826205,-12.04378394210585,-15.283177599251836,3.2682512800129153,20.19294202560865,15.492109431994537,8.23386429792529,5.547915750210849,6.367341281091611,15.929675460896291,22.018235612417424,19.02137667349742,20.177061966923638,13.74590590403439,-14.556008469429596,-34.177360047535224,-24.03558998577742,-13.010202300616616,-16.627801636556235,-16.32300160293886,-12.54444336540391,-16.349817576606814,-13.940329666595932,-1.3972126651327468,0.892599099445464,-4.159598609737343,0.9005041005842536,6.0302519279290525,0.6875863509888624,-4.004277590581528,-0.13377384499516154,14.9912680377936,32.25630283337841,29.16930458062517,13.298603448521412,1.8311679039704494,-19.44622861446704,-47.501565003710155,-67.41154547243835,-82.00326566833937,-79.2728382496824,-83.3820383010952,-114.9221851551271,-100.33273083964035,-71.95512483954148,-97.20096190885093,25.88772207004277,353.6861615183176,612.4937050634308,739.6611002088437,581.1401364205678,-157.30937104979813,-798.7166628110118,-516.8403484179861,-24.179632490037143,-102.66822293378749,-187.01789656834006,20.67733398094005,54.91087654919864,-36.795682935032815,0.53766832815705,10.611990935004346,-25.403885835467527,13.264501266828532,36.82952394230981,4.88490798501206,-16.8502774891583,-34.861781778679536,-44.59263132458491,-36.24303727490894,-42.122532284346775,-43.82618025669784,-20.681610190513595,-9.613674230705406,-4.429755151440435,32.2789049974124,76.25588593174434,97.61061342925802,117.3751546892496,137.39162791097175,124.70938565827575,95.51609001004297,95.64840527898575,100.31245333558266,59.322671355300116,-6.741355502130984,-59.21998263665667,-95.17495635028956,-109.59741598667836,-104.76612904034735,-101.06496566034279,-93.12518456594354,-73.06702840134831,-60.79712928341493,-52.849654012529015,-29.894624798913377,-9.530628371766387,-7.349669641816735,-4.971892198703014,5.9242792097108605,12.322476122549322,6.263210510046637,-3.7298577782588804,0.46513994257684743,13.548003048334518,10.34213103942134,-0.03871432039894174,5.663001318780382,11.192196497121637,3.052419789417616,0.05148456891637432,3.7898838483828516,-0.09255476152646214,-7.469324419958285,-11.821683076856441,-10.881671859377084,-1.8775975946501848,1.2646983067581772,-9.477268371972551,-12.223457475874952,-1.5714456069285703,-0.09900470931979655,-4.4934959660739375,3.0189903492941133,9.541011461093227,3.47405580870883,1.9065892993356068,10.034412091142409,16.09553403225147,25.33815759618693,35.414445777275624,18.57266244392961,-19.008603181129473,-34.43927271873011,-24.390488309662004,-12.089085151748456,4.314727128421531,9.808203345042845,-21.8359803661736,-50.5848279859629,-31.673095775127997,-4.488373471004252,-0.4927410493977895,11.331366268014424,25.31880306947862,6.671735848785888,-15.767751144811005,-3.92421428583753,15.41072365243114,11.653628594789046,-5.739878674149125,-22.482398186645806,-24.754465814692864,2.2721284247630393,36.638818065513476,39.092866602089856,17.54801156273458,-5.295929170389549,-34.101384540819744,-53.48567141654278,-55.83812268445058,-72.12342830926426,-84.49616500484328,-84.12788422108977,-119.07283858689362,-139.22888915653598,-123.47328299439792,-158.95985324220104,-102.46836852931747,167.26630337218518,417.77697265131764,648.3448191369058,850.3723782133903,411.08230465930205,-509.43151608781363,-686.2908757041725,-166.19694921312276,-63.614447032456496,-240.44300846714083,-92.98712793675926,25.15394088364586,-68.6943351291723,-35.779396852281664,40.9225205821048,-4.635151057668374,-9.630946382750079,28.308057101165012,3.714747369972498,-11.164671978823602,6.527758636321423,-3.766869886647806,-17.78007453765483,-11.062514555369397,-9.07124720813689,-8.726727927109966,6.029200342907341,25.49231343818038,36.276253617609285,42.849642727674514,58.509817743829224,84.86490438810186,111.28430599438079,121.03130091656888,101.1076884909063,74.45273492521382,76.4301609352103,86.40296317862727,68.13052140897321,34.06937869561284,-12.685344451094792,-86.67965702366611,-143.49548576187576,-138.46110731934107,-107.59548254137565,-87.70520985499921,-72.76016715231697,-66.48122062400185,-64.26069934247693,-44.02363294698625,-18.287244717609337,-6.7083066816296935,0.9500687353648161,3.671661576801334,-3.6309458640564074,-1.654374007642982,10.981557135679573,16.51624226678067,18.83766014287098,18.242071614200217,3.4614120587987323,-9.70381631762008,-4.7980149609762215,2.8494262419602983,3.3318104420299592,1.6938882888682318,-5.503699785056776,-14.067440875475443,-10.684624360398459,-1.0465755052105434,3.3072623377848664,5.135980801802594,5.471959745172207,3.374431368591832,5.522678688945636,8.520893382767827,2.2663362752208416,-4.453897917098589,-1.785526709352193,0.7819783656493522,1.521669427920663,8.148160242653557,9.918517002150882,0.13976174571293498,-6.046773032696812,-9.61400344660317,-21.66624334231476,-25.200899830059306,-11.334457814328216,-5.353609268070052,-11.66007335081584,-10.28261427976112,-8.793000490548762,-17.397608973485852,-17.41726920054655,-7.381027785596675,-6.708326112593381,-8.161125516299562,0.18589424089332685,6.113905815241834,6.958277206235695,10.8847011265591,14.298961507619904,20.678923067615173,31.08401534628246,22.040874071858674,-9.433473755408949,-33.29197806227657,-41.7645687183025,-42.739084284839464,-28.715482526335087,-9.711810128525734,-9.754755525441233,-17.194354590339906,-9.656311971823069,4.18875974088703,15.228895961231766,25.0258703375963,17.419752100691525,-12.177461601229352,-30.217242432553668,-20.82266721187832,-3.411311657704421,14.085026795167453,21.917163416730084,4.234143909912037,-13.495654628685235,-14.377190194093515,-24.964521573290614,-35.20224184956976,-37.79751729241549,-67.33263360646899,-91.56890774063945,-89.08294342179121,-111.24932827497656,-116.33779747603015,-99.48817803120821,-141.1372037586433,-83.83400628783872,162.70380997367772,388.1505871565528,668.6344946718,921.0815001220008,426.7934633991519,-542.1369071125296,-675.0911965113955,-134.3708575183767,-62.90313134997044,-238.41339648668927,-80.78119042287156,21.787270120776384,-73.90224869773539,-34.29177715372094,40.32850977987717,6.017597371429098,9.07450262516032,28.812653574427404,-11.735476538612428,-26.11686145379396,-5.352367578088266,-9.525565877610457,-16.851481014111364,-9.622462493277286,-5.639981185632832,-3.37105915529186,4.589573845019004,20.645136499417497,40.53156006446885,54.01497841812608,65.940975506504,84.30000977248426,102.74895131256162,114.1466309590247,109.5555759921569,87.26307857767199,70.40979573073689,64.76598657278316,40.09950965038115,-5.331555370845542,-41.01256309970084,-62.60803192581161,-74.64031035948692,-71.64328255272054,-74.93495877794291,-96.92954196351214,-97.37460946078737,-61.0932915143347,-30.2570195343471,-20.856314790304218,-20.50546163293508,-36.402054681071675,-55.05731664999172,-44.63453537796056,-21.43679468863953,-10.625841238525162,0.49584030434453297,4.598105256042128,-15.740831892686412,-28.099752035424167,-11.719806691441555,1.9262081074125241,3.2789564163899705,5.719672155540795,-1.7523800976443624,-15.372759248586052,-11.467774417635146,-0.22898544870360382,0.8988726408038801,0.6745005981389376,-1.8830312626298014,-12.323413661913687,-14.543772622685124,-4.1001349261342614,3.388155278174711,5.841675001978762,6.327430022253743,-0.010389920543723008,-5.836180919499961,1.3302191284860294,12.244894366032488,7.894300954044224,-9.893096002237264,-21.313682523467673,-18.728949917200396,-12.815995811325886,-8.399758664322267,-1.4649581532319393,3.004672798679686,-1.659615941379812,-7.822447007336336,-4.9935299139406535,3.647904428853847,9.024996884093863,11.257555204285861,13.048603665995682,10.945446100339854,9.418089346616691,13.83466923752679,5.508665004424353,-22.54940527740824,-34.166703786257166,-17.13528985309013,-9.001591055413694,-15.520305646766719,-8.486534247562103,2.7956554900813178,1.3530233994894512,4.369250054823873,13.238310589914363,12.483486058490652,15.177908745662414,25.014485205352972,19.660545747070955,8.802181156715445,7.491686659094156,-9.090693373492185,-35.2343327401623,-25.885222615428837,13.72024987369075,45.24594800919536,52.27761126560397,26.594290255017313,-16.862005308306188,-44.736370202850274,-50.4792425683672,-43.584885021495566,-46.59305083458979,-71.33820640691766,-85.84037755816153,-105.21588068030155,-147.26365889114703,-137.50224139678292,-120.68098766873848,-158.7716049833227,-41.499856633560746,264.7435699976484,531.0849255708481,792.2998211291664,805.291239408352,62.03164607547852,-739.3188509435255,-560.1078338828438,-58.524730816111074,-119.41065286334033,-218.2462489010185,-29.088918590017656,-2.8708470672148536,-82.78669788541306,-13.649050786362494,18.872377674108993,-20.499536436007176,8.830264615913077,29.803206778551427,1.451536894941837,-3.411350614630148,-2.507412746284162,-12.149095201741181,-5.378576247489568,2.257304058797139,1.7259388803152813,5.417338306608883,10.409826769133812,20.559788167048126,33.55110305653449,34.66433509258105,39.134584785691644,63.23771031616591,83.57866410604177,87.23735721804437,92.89651639316205,100.67192465338137,94.06297429465252,75.15796331834926,46.676118541827066,5.9536363887727255,-29.802849983712377,-53.01561388403607,-82.80119374168775,-107.72798028423112,-99.4246323345103,-79.61089158635798,-70.56452714304992,-51.971719246713135,-28.8880586048851,-19.612770062801136,-3.0175014808882956,12.755484579918594,-7.463326316964803,-27.183583835504493,-7.143578960789132,11.564338446359603,12.060218391528988,20.753375218653932,13.756760246170131,-20.37408364761113,-29.53697544738816,-9.364052168445767,-2.4995279738522918,-1.3287876987594096,5.418716395835485,-6.548259590476874,-25.02184345789815,-19.490755269991876,-5.475194626554327,-0.1686801788611323,4.8632120604694435,5.692052135951677,-0.8585982731883313,-4.469417080485261,-9.850275143173487,-17.91449127714865,-11.31171740918832,1.4570483687910016,-3.060020033415368,-11.59075449362418,-2.639631608789857,11.188201678037846,12.479863937342456,5.0833404934613515,-2.297942294002608,-5.299510856307661,0.06173353123788661,12.429754868889823,22.36317574869569,22.261557738974638,12.330029507905138,-1.6124965506380313,-8.996623262955282,-7.856808807691062,-14.383972138931211,-32.341351870287376,-40.14988657469706,-33.01235647916493,-27.338054194769374,-21.968224445103637,-9.537283389290117,0.26818362850203314,1.8921242820533148,1.312709487970963,0.2115237827313763,-2.985460210044673,-9.135574036508892,-15.602389128205065,-14.354128537453253,-9.561967351294326,-15.534230907372077,-23.160222992688205,-13.205331863851878,5.901678053987847,20.590428510944616,30.58835107450649,28.122438383130223,13.674360909873252,1.097281881958637,-11.199441002191907,-23.89550403643778,-34.06012191381777,-49.148772658963026,-65.74060855155291,-96.31449999963445,-136.32739786663583,-119.23339764283196,-90.13240712533381,-121.38703179910308,-25.583119709288397,275.75433149208686,551.0345042753993,746.833524157111,698.8943542810166,16.160888743578383,-737.9159794576622,-600.1021169824982,-89.71408801856869,-108.33603876718192,-227.4203703016932,-38.86566492440064,29.704715096607195,-52.965607429032566,-2.728679777850193,37.25885105759427,-8.589397275562913,7.850458295357694,34.013116224238466,8.45305771992565,3.0977190771728678,4.717210342476993,-12.892668682923391,-10.612835516269476,0.7782095767111912,1.897934897377663,10.218809776087632,15.221969457736957,14.84435246824436,37.18645889957433,64.19939122639272,63.53648769197329,60.92024820569532,77.0751299715549,85.66100494075103,81.924065533841,87.70294051185613,93.49733632071309,78.41045176091794,47.35655419089122,7.072872430913059,-40.92148881855023,-78.45918203566458,-89.41032910695438,-86.25453663871316,-87.48760259225418,-89.31793215102486,-79.10592496152051,-58.45322388430397,-38.71773565667092,-25.494394600218094,-16.90514704263901,-10.74123775111105,-6.243015757657069,-0.08645467952136165,10.084310394608783,17.511829886787034,17.08521168959897,16.630757317734272,18.698715226526527,16.745708718586787,16.879527417395018,22.651711155508796,21.386549988512645,16.542090358642817,14.236537310842909,-6.530472927925741,-37.22285925687606,-35.21627883722472,-14.042898761428932,-11.386539982875725,-6.975443968970278,10.34297741014323,10.215552704525235,1.926648915787073,8.29118311527224,10.676409829461631,8.310360591324386,13.219117607870869,0.6147567435999708,-23.713694603826102,-17.939016537785516,0.4430112526179464,-1.9621280215105017,-5.538148891289339,-9.155697386721059,-33.7235004310612,-49.45626007588569,-32.19550841659111,-15.181841240053707,-12.449902679460852,-3.835198215420064,2.731004943973211,-4.118979106716996,-2.4445357873386975,9.859919867792065,3.3148244943131324,-17.939592334202732,-25.83469834236209,-24.279246297030866,-23.33368261347902,-14.42459902289545,-1.9321702657736672,4.880572105627609,5.923373584163633,-7.625360933117037,-27.597316035598844,-26.486472030122545,-9.18594426160644,8.252690889334602,26.73609518245575,30.120888508967255,8.360483436139052,-16.743507502089614,-29.965170815006616,-33.02636544079503,-45.061555715380365,-73.52206131722238,-85.21234451037995,-91.41581474997179,-113.46219833890288,-98.36080623236408,-86.51527926633514,-110.46424700358784,38.46423349867058,390.91793819668897,679.6711186468536,793.7506707994131,521.5820922941094,-286.32088547970545,-833.3093195939198,-473.63108806422645,-28.24576792894026,-118.84766608411348,-152.8122769120045,42.97556182330868,40.175292433720834,-36.233620674330844,23.80053581911194,39.05047819036777,7.148261450870066,33.713985433780934,40.293093321463445,17.827782657783104,9.52613189423402,-18.38375149123005,-36.42061040078937,-14.539198289415335,-4.641821399826643,-4.767512206197511,6.478302400197705,-3.7870983498514246,-16.129230440297604,13.025713868815071,50.48672692783448,70.06625104060643,92.8454650257504,107.87187367025822,98.7938477227987,92.30072288800201,99.18849462605152,92.24093194376147,57.90930447752474,10.529673016662752,-31.337282206879053,-61.460100360663276,-82.86071982464662,-91.09353023959697,-84.5948654343243,-84.3179902718879,-99.15294905943236,-99.35651727876778,-70.83400271149979,-42.23641053205221,-25.748177279152237,-7.278594965110894,2.9547397370704473,-4.253484377078415,-2.424972893507393,13.185247508066492,16.03557523090148,13.622208589587988,22.565263722073922,22.07687743704647,7.073652500309832,1.596966967205757,4.110540408787882,3.9643611254719944,6.255715937581927,2.8848491723401324,-9.352849048640586,-10.186263161728036,-1.919676358409549,-1.94109404838769,-1.4127216122238444,1.8963504394818873,-5.473415950900227,-10.774359516470334,-0.8631343870388086,8.438599836236136,9.740527217489657,5.877232720501343,-9.867369198625276,-26.681253745846696,-23.991788772806554,-12.075531109161638,-7.387761070852749,-2.1332948205756566,4.654580374613455,1.479829670732489,0.4333380910785607,16.381467918754225,29.095973883094555,27.728795444707817,31.282403105976748,24.42034864376111,-13.367833352166764,-33.328473051409645,-8.052463900313704,11.13015865573437,12.916210284533115,23.762862321442473,14.06976874749721,-23.085324162724298,-34.28962321949538,-20.10938803279532,-21.670711473871076,-34.23136789793743,-36.86065905106692,-25.02220822974079,-4.45414306421911,7.255036522350121,-1.2820057942385148,-27.993471959777892,-56.97411102441714,-69.74107739156182,-81.44502667054853,-98.85303952318709,-102.65693107012703,-113.00182955462313,-119.32841957913897,-92.95024080910451,-105.30089121971119,-88.10875935713509,174.70075765366744,576.1719495132184,842.087281493106,803.6474922997922,197.59631046156747,-687.7241902399866,-836.7174232433638,-254.6168639319678,-26.50283616185753,-192.32651740206396,-84.97626241891149,70.46041154057814,-21.24579886468384,-31.725859934682333,63.459597305675686,43.43372482470622,18.305176766921342,44.08204750218684,18.988290933746548,-5.507455415142563,7.616214762433875,0.3429778350912933,-12.412919118891715,-16.41032788329096,-31.33147032492982,-27.503517168460114,-1.800868310040478,7.6142995377606795,16.949687679021242,47.632235740876965,68.99682662355778,73.03134653537332,88.1860767421893,109.7036432215481,113.30916284250394,107.01131995392646,101.71202589556562,84.76647870861166,58.79419076897193,34.349779651846205,-4.15936708654657,-52.79052688962691,-79.73514537184843,-95.42811802375101,-118.8294698038229,-116.15720896041452,-78.64563026108658,-51.81284566510872,-44.688886655138475,-37.32385986588836,-34.0398669839668,-25.055465872562536,1.2051419209836354,12.130345073818745,2.1855763309061658,10.81922324474823,19.73068009833123,-9.016128293408752,-29.20283474799901,-3.849599192024108,13.592609861391985,-3.7593444317783913,-11.462022184811254,2.3276734563617474,3.7436463077367073,-12.665920181407946,-20.072452008822577,-9.151650014594336,-0.725810628011395,-5.631747498864332,-8.087150884283709,-4.746676447043043,-7.805422212134971,-12.686098083992729,-11.218474082635561,-4.16235899873667,4.667522776598391,0.1357149693612314,-12.24006099811223,-0.5285661648224815,17.571583004643525,5.135871101140008,-4.027211881097057,13.850184669223186,13.203647469526805,-9.994503183563548,-12.127835085838463,-4.505873770808186,-16.698202830486593,-22.662127632363998,1.588648686153908,21.958455880119985,14.428348552700596,7.7446245817881865,0.9953410056134047,-32.452914417347024,-57.28557851997426,-57.72406927528458,-75.0481274736255,-87.11566290029427,-80.29716594362205,-95.38368630185865,-93.68578788464919,-72.90404288557417,-64.94971029116188,97.19514745354056,472.7091635119346,796.6489744814643,835.8623325559598,375.5192178964555,-509.732053139477,-935.5937123634535,-452.4137910295305,0.824027969118525,-104.55033931331164,-132.28092939264081,47.324560900646,29.099250096479707,-30.057446342327072,42.76376507026228,44.87005893760927,-7.4013503543695,-1.7990367542806789,-11.849712873022535,-28.754723949086532,-4.20478997285484,3.682059816921674,-10.081219980605901,-16.123890480611582,-36.763887939688544,-52.680037428551536,-31.352414127743007,-3.4006492400398667,14.062747932164267,38.264137145666005,59.703947081727804,68.52028047315557,85.33341117588921,114.1772490329758,128.36983514216976,119.40284764892161,108.64450715185147,100.53337128098474,69.0203824843016,8.896010258706585,-46.51252593545355,-76.58790616925357,-93.401222257905,-109.82889133089918,-124.53522432889642,-125.0403541354324,-102.51905707630542,-72.90006431287834,-55.171402218922765,-43.869300046661316,-32.394880154532125,-22.711403289692527,-8.9032032279822,7.914821231288231,16.474574207791548,20.224324701346042,23.10300263367822,14.234759267767569,2.665651037044472,13.82844913677269,33.04229084882898,24.695305707861877,1.1517952299030316,-6.902237126382448,-8.813406156208583,-12.545661286993562,-0.393615487324916,13.737027259236479,-0.5813607142677917,-21.354380980827,-13.611211348325394,5.303088030859012,10.515270385116883,14.894852022829738,26.01166696194979,23.90536914885514,2.310581326751249,-20.19781765810203,-27.28297475498778,-14.052380097987918,1.7588264616492495,-12.48193687809568,-38.0093518903643,-19.397206218260028,20.50266996544046,23.728859172332097,13.819580507303517,5.367554154110051,-36.887828767928426,-76.29395925818528,-80.32969140078315,-91.84026209929408,-92.20210496691817,-74.57285508359878,-98.93486416096273,-104.97150632358196,-65.0033440783193,-64.68262189188587,48.910971539246205,411.57178508007587,745.460641684099,780.7674876963912,379.7458263775229,-436.1146365918552,-934.4246411175749,-535.38768654204,-16.704321591983422,-69.26391548513271,-140.49117450345994,47.688316972355736,69.53977388365874,-15.901954802023678,40.548207479813435,66.02745708105195,15.301889888312859,25.0715440999301,29.30045003730294,-9.736624702837933,-10.573036084595698,1.8857577892883395,-13.245392869809663,-20.045992738040063,-14.613269771408271,-15.15348278680433,-11.66598589384639,1.2002777886385374,21.082046183232094,48.5212998290604,78.18143267983675,105.27952116198416,125.6817338085618,135.13208305242907,139.09170087142576,140.27902843313063,131.48247881763942,111.4512507248073,78.51366776244598,28.783176900246808,-23.31835694784401,-63.470363103047816,-98.70034059660932,-130.82309737267093,-150.0760784281499,-151.34359082604078,-130.70176735737354,-98.56709414167828,-79.35629406449046,-67.98061090470767,-40.675533866482326,-8.431790019222646,6.1162545275486835,14.451462095808441,26.45858692060107,17.998700473145618,-10.899681459644427,-12.282281564490594,20.369576539932766,34.37026668029055,20.467760850141076,9.338630231846569,-6.933480335480564,-31.187499642451527,-31.382891046322847,-13.203188972805474,-6.048701074472135,-7.461475302503278,-16.52548482902297,-30.75550757361671,-23.139536686004057,-3.382526835974968,-5.818018154572751,-11.642342779096309,-2.6305817050394964,-6.25138925704918,-20.450570993029224,-21.297616162645006,-19.1622073819195,-14.94171848194164,5.4389195476006424,22.884372386284188,22.619187375144847,18.934568854443746,6.921577986335746,-23.067967287746075,-42.850186630740254,-41.79937464799386,-56.285650055047675,-77.3285025368496,-69.99267094215992,-78.40031843215979,-105.74168385972,-81.33245018801213,-62.056248350815906,-55.19125634341214,136.48970276814322,486.4020696384614,734.0970056215232,714.8119988358706,207.03461842444096,-624.4063699044524,-861.1138938525802,-308.4023883144281,22.402555792228004,-124.50943978658461,-76.03942715497735,106.21567680116789,43.926736321362206,-12.294863931713493,59.7900583160568,37.2430976971479,-15.692490179495687,12.05830788622221,6.846587871440321,-32.81332151618525,-24.659309820371295,-11.290709837471777,-20.02205891312706,-14.19782110012541,-7.403409080432446,-18.000162323085405,-13.259327129240486,18.363389826647357,51.89614235619078,82.42511290037532,105.40292630593402,99.56102908977803,88.99365616536468,114.35189430908157,145.29191765363703,146.00298587056847,137.53786244907496,110.3712334476599,33.82578354171136,-45.697801240036625,-76.65427025351872,-88.06160684555613,-109.15021737095918,-128.77453671995784,-140.30611655849563,-134.35241838570158,-104.61608350195428,-74.52600295163026,-56.14580914968083,-38.73873002427884,-29.364742420958173,-28.50433376568948,-14.2043160469822,8.263317295580036,17.14597306445696,19.150817501603022,23.991059417051957,25.51784907213403,26.868179110492203,31.95234700000459,29.97716890777474,18.95218518914907,9.283227483697267,2.2628944414982626,-1.2419366196900148,3.659652745615237,5.676970986631006,-2.4987297563406976,-2.627523744760353,4.585481007967704,-6.6064020731207265,-26.429808880055326,-25.383585485444115,-12.601325117076474,-9.089711893854627,-11.876967236352296,-15.56662334979821,-19.168424660074212,-16.950558266388732,-9.927659381080609,-8.819681921362982,-18.609369092650564,-26.056715749204944,-14.22931497683922,2.701500993525954,0.5474681848177134,-6.821760407018925,-8.847981114419333,-24.39472571811953,-43.75087769647452,-57.13523541385713,-79.01470003493287,-81.25710219981725,-68.97372674600216,-94.30457272214285,-101.12825966911056,-76.06656537775102,-100.20234944106244,-17.952285947156525,300.4256764174179,613.0864531146327,757.9562677031211,596.6693576671298,-118.67158735919327,-806.0735032167713,-588.7092412920938,-30.401294242460303,-37.37963495188953,-173.68082858150441,-12.881068243546338,30.84108253228211,-59.24013546985335,8.782092905061813,70.13224386785072,22.535482556082755,12.004023191887786,4.268496869327807,-36.83798325404221,-29.18413347741219,-5.038224019374477,-17.023488611657218,-28.89407034525996,-34.3207584178891,-41.126632027256164,-27.57287651831713,-3.814726439524229,10.13289433259715,30.402751351642973,62.68895783848164,86.84734571559645,105.80229151546796,134.1651431754512,151.9400485200215,141.67093994970443,128.67056677627323,123.09644734238563,94.12578308602104,35.67971799402808,-22.984570886928978,-70.32863186429128,-110.04690085979314,-130.54563642194944,-122.85775110765135,-101.91300899122268,-80.88007450888725,-57.906390526699084,-45.53810221324344,-57.081675322068236,-64.8110779725848,-44.754382612689696,-23.68968378650392,-18.27334447951882,-6.486004410384339,13.146363886466009,20.172223125124525,16.072479942630885,14.02606365479368,16.22322192020795,18.228056098796284,17.82607813237824,17.026055686231224,12.940947328511504,1.4222649472422475,-7.621793850374049,-5.813902872752896,0.08682083020058373,4.604632895240081,2.454829347283587,-8.814166937337651,-11.081040648286228,1.2876315598123051,1.8986458500250105,-10.97341879232557,-12.805816658129084,-9.240441457823243,-10.284994253501448,-2.184400580000758,10.343126650075163,18.277157530494772,31.60947091344669,27.097733089306665,-15.141436280124191,-38.395002157416414,-11.430391714303697,11.574810242756802,14.507508119363305,20.708515824815557,6.146165637908901,-26.60830207992077,-29.913866645627856,-19.0028354967217,-24.272134964259283,-20.16112917650969,-12.607297386785223,-30.800929455189483,-39.38122005673057,-15.271801881611085,-1.4398551629498648,-8.503464459039062,-8.608139735157003,-6.428299472799342,-7.186145781984811,5.191401896104151,22.016412371520993,22.38760430498551,10.201982725665394,-0.013055011601213806,-7.064521747991108,-20.987908201917378,-35.26894649479613,-40.113461142584,-53.58792072881365,-69.3154072804366,-77.1323146966907,-117.59722163750729,-147.86823137679806,-114.53737800066494,-131.02588460910212,-134.71666368499322,102.21039665513966,418.40610470713267,638.4757086429547,825.7424690879583,546.3626529462595,-356.40636210342194,-785.045642811938,-307.3826529098335,-17.26473917152441,-208.11477791475397,-155.21821545712967,38.096123337413346,-11.123411886039023,-34.847242141841384,45.37389413173443,25.632078855933237,-4.153301170610935,15.986679290845592,-5.004778360743629,-16.64988756118959,3.4668151482646197,-14.700447969035249,-35.43705048850059,-19.472242416476412,-10.45860585697253,-12.638822232004225,-4.752047385774862,2.042437357256226,10.600152547507843,33.69658313716512,60.999068461585466,87.33466721021271,114.60627238151677,124.50976440978582,114.25205458077976,115.21965946065384,127.17468850433937,118.30180625167135,90.57836975351046,46.12065776569489,-30.36117972285104,-95.93370599044792,-101.47386928512765,-85.30966359178456,-82.2385529361924,-74.2769361153156,-73.69815394726118,-87.95341222427832,-78.14460017945339,-51.135234889209045,-43.47565792910427,-35.87525532850783,-17.838515655445114,-18.976072515313707,-25.10676142010401,-6.201564287030244,12.441328922141631,11.738155462035621,16.936390174132153,27.6623413593261,16.15838868712582,-3.8944155705044103,-1.3011508546448347,10.739586126264772,10.313394868749464,7.842144333528431,7.494655414084303,-1.5151910703710278,-11.290582966034163,-12.036120644877563,-8.958715633239628,-2.2993540417911333,5.292871487078505,3.917834730757164,-1.9767228419617808,-5.928360627240604,-12.366173529155425,-16.449559884746577,-11.786205591153848,-7.8329433616845385,-13.149429524531378,-24.74125062187104,-31.998511811698297,-24.665262829131827,-11.695312437176387,-10.456318345221433,-15.55491068542271,-13.538906757257507,-8.071743720583367,-4.675516526525199,-0.7882720904670695,1.2674845723850279,-3.5139548390054394,-10.249978755070618,-10.35579977540236,-5.159972424844254,-0.11021872969037094,3.5115983073730783,0.9116374641172476,-9.077357214783332,-12.115565243926486,-3.0005171677508855,3.8498134519792844,5.55666383143153,7.92761540713612,4.564988357460819,-0.6384936377220154,6.253055604852965,18.006611313838604,26.458994664209186,34.3949065806609,23.373272495875902,-13.77759817757163,-36.633164954282975,-26.019125979985354,-9.354861685967403,4.171607198663763,11.095847659087207,-13.088998005985683,-47.7202235307269,-39.346990158737924,-0.24792594320133432,26.123261066406346,41.73902036504178,43.007782614696396,11.343240960238766,-23.176372525623883,-34.97363705181399,-43.411178067645835,-50.103381496955485,-61.41241723350287,-87.47781783021539,-91.95559964473968,-91.84873483388522,-118.43301933361354,-109.38780157268559,-109.2493882914043,-155.04479898006878,-32.72097409647266,236.48403833831765,437.4467657297936,738.7435366743185,903.6854036860653,225.70973419624312,-666.3348707813514,-569.6094861950348,-65.58562938289492,-126.73295904459111,-244.11023795935432,-41.221582929921496,2.1062075071955064,-86.3330467104074,-15.105408391595658,30.072136589045293,-16.45398138030975,3.897894185409081,29.872773016592816,3.0226150848323767,-1.0546240183305038,5.93845604703777,-7.269839705593801,-8.526836929431877,0.8131154717355855,2.5393867887532444,2.8519022923946586,0.7566632334440762,0.31470609406666483,17.16601273118799,46.67638281625025,74.12759594006317,95.02481380798639,105.12087552735768,104.314772766787,101.4608764385901,99.105300780519,93.71159615726559,77.75057069912947,39.43637397061954,-10.534282654131896,-44.95622203062222,-61.06233161959556,-68.04301360558907,-73.59827695922115,-94.28535110764409,-113.43206844758305,-92.03116216352598,-50.16825046762471,-24.3272682478973,-4.9762617763000065,0.19509712161820403,-23.40030244699596,-39.78517393701435,-35.18232727979565,-33.26468686642767,-23.054408094108336,-6.984105451811981,-17.99768028023108,-31.90503303401112,-14.985374409395291,0.6018956896718315,-2.401308908966154,-0.5108074662538904,0.8343204701117628,-7.981375214028091,-7.376358675894327,3.00050739158503,5.1153654883659385,3.4395950579250893,3.2616873637769626,-6.027331536367479,-17.586580269235316,-13.63934995645416,-4.089168613319881,-5.241830077387155,-7.591021919908092,-5.395463964283371,-8.018410090679216,-8.43388385049775,0.019610913123520923,1.4322427695538709,-4.364310218337148,-1.2220980756829318,1.8433525869412097,-4.093022111173747,-3.4970936794117744,2.374051919083567,-0.9081331050499113,-3.323026468177134,1.9391559674965926,1.1181734619721997,-4.452208517228586,-3.751580229064956,-1.0885984606503158,0.4705079243975837,3.7236711239466764,4.422419360350981,1.5070274016133118,-0.3264882167072758,-0.018053649171579034,3.460394314598179,6.891985365938173,1.3402298831413169,-9.121193847918903,-11.268590963092317,-6.765557792771877,-4.273538659487436,0.6151886299472809,9.131542480361137,5.026062221245239,-9.2392795242663,-3.5478352777556053,23.645452280458983,49.21050730825275,67.48287880918996,60.174181988247135,18.06691860216362,-10.579591368621095,-12.969395650991796,-30.650916582148,-53.47742919499302,-66.4246234242097,-94.80495685038274,-133.74136256370502,-159.2248783153533,-142.03904710331872,-103.16124153558556,-130.61449699312885,-119.35142997524727,103.47580866896351,396.6682294917364,687.9675434285197,942.734552566819,568.3575330583019,-448.2033574530656,-839.8740898424627,-310.5146881862856,-51.896158349504944,-243.078875284505,-153.75446986730557,23.107314561180218,-55.65467817378749,-69.8645386929693,23.409995950780765,7.528760390617165,-9.77796267484125,25.72384673922797,9.82036130863453,-11.624142048392226,0.18736716961015887,-4.732490231545004,-13.292806857456867,-11.306519517135538,-17.46487133565806,-18.192252167011528,-9.649855970045774,-2.652752088826613,13.453785188164225,37.043882155022935,58.249903813708585,83.54078643073046,106.69650044787346,115.92661144490498,121.22525086666157,127.75890564261573,122.88068494483545,98.69183103618798,57.104317706409645,7.87921810409529,-35.99088452786099,-71.32445372130589,-97.11480274886482,-106.071596678067,-100.76466608011894,-92.99223171142809,-83.88750471717452,-67.85442693660633,-47.719857870629866,-30.023373057706355,-14.030090227207108,1.029534067385697,7.187217622706818,5.926055244925035,11.247683959413958,14.724190438348081,-0.10491260585469675,-12.286928649109917,-4.659587195461036,0.09477337777412487,-1.625927688587531,9.080775674832381,22.776722913753005,29.46481457895119,28.335882953312055,2.25275726491574,-29.22139870666733,-19.87303885219621,6.6767837202647495,7.104280676216117,-2.9575166583978323,-17.57554365763022,-44.953558785502295,-49.41150691417897,-21.66633212873913,-3.798703320253937,-1.5841570808867473,-2.779118195103038,-19.381020842901442,-34.31514023567715,-21.539371063502266,-5.138485293880505,-4.986601031918935,-4.391951713775336,-2.0041690389036475,-6.673657921443564,-6.00552124336563,5.318781889101829,13.205453538420661,14.025594224491066,12.99981942358024,5.156502785250578,-6.6770485540348865,-4.787332999372759,6.967457170860995,8.976570680442684,8.644356696082568,14.588711699965442,10.989329972155641,2.7924599453034125,4.062029325089158,-6.28448996362212,-31.35991972077179,-37.8185739007489,-28.3113110691136,-25.462300209443228,-20.316191641767404,-13.132344192751788,-18.14649218621947,-21.40846988631821,-12.888575506437181,-1.4202101330641916,18.032009970293526,34.692599365048366,25.089582173662667,11.721577924338888,8.80974962652438,-11.661797682937655,-34.282461055505166,-40.54899561666231,-60.676688576083734,-79.62999867112234,-93.82117691362676,-141.33244371592986,-152.8425565399964,-121.09926844395996,-155.31330300880273,-94.7477388903242,225.55847291500828,578.5137823508041,835.3724728539069,854.5712286976063,198.50175648393386,-688.153830032053,-687.8833593814111,-123.29903888369147,-69.85227452759149,-251.4429198275246,-98.00447873371432,16.85785352466914,-57.30158539235565,-9.688113566971055,58.306367555837056,-7.217835842704911,-38.62593775232029,-3.4234752375432693,-1.9625385096196322,-6.3042508606213055,5.875587671561184,-4.700343840704961,-28.731394073091536,-32.428629829264054,-18.042286030145867,-6.946483256284125,-1.204761657473421,10.766921462204063,24.250989761209503,36.75404265034683,61.31265623227528,91.50042695990402,109.39058383315998,117.78012215344309,120.67224991062582,114.77054132795035,107.42022461808455,95.31764711359304,57.14630875388931,-1.288314136384039,-48.72701587807697,-78.04064867060049,-98.8165136712843,-106.84108311275591,-100.1473409123403,-88.24707055634649,-76.92256159693692,-68.432507358252,-58.76744216337249,-38.83907306779868,-16.913863191902927,-6.191907255010939,2.315915628450032,13.328340116429587,16.097854031613874,16.588564581358135,23.566508036098245,28.44669177567257,31.611667643674096,31.124188951291742,9.905990337433476,-15.256489425528276,-12.529168917825475,-2.5976588283000446,-10.207858391730445,-13.47612180692797,-3.8700991923017565,0.6055511603540289,-1.1035962123883838,-8.978809149248578,-24.418306030465736,-26.662563110334673,-10.853451927076145,-3.1921616145516154,-9.549934225375656,-13.484129114246839,-11.206244230612832,-4.664188282514319,7.521877066289523,18.424727431995112,16.774696487530786,5.199725148253336,1.3106712629467614,11.463217616123245,22.432717265442655,25.783010182796723,15.482993181645138,-14.024902769262864,-34.44699414839044,-16.461296121572396,11.301056873047894,16.92871309696722,8.545970404511582,-15.271805975981163,-48.71817846803549,-51.12427658509361,-23.092032295638152,-10.159811672408413,-14.76722932406253,-11.968855379187168,-6.737616166056249,-12.699676308618336,-26.910206163227752,-31.83193797860622,-10.027326716213057,20.38137918027667,21.992299106735626,3.7260805454875197,-2.6257961365701057,-10.651077205664226,-33.15194016181057,-45.86411888748354,-60.90101921179052,-91.00984662112418,-95.2028243652975,-97.18008553390584,-127.2844967146674,-112.48961128297448,-95.13056158927942,-127.41632442255627,21.730842575584177,416.25630108746077,771.7990202982767,925.368573441273,615.1279958099078,-300.16204080446664,-918.0640903868054,-527.394698542271,-43.06684912266299,-157.6502612532154,-201.67709645349004,28.07510558751833,33.647289975500016,-53.6254187052947,19.577134045260188,35.549887994617734,-19.165927561937934,9.541927547938474,29.46040762905802,-1.6731039685724438,-3.661820674090068,-0.6306791251161905,-14.589164334389046,-12.137110015224021,-6.2699542083348465,-7.336505595465098,2.3138653850134077,16.394636360488242,29.34587214580527,51.146012461657406,77.34025147145023,93.55606659737136,94.38219040571073,90.55537611468738,96.54646531522745,108.19803387707171,116.45049737402158,115.53645776595567,81.36447160376541,9.024045539151077,-51.97125422414638,-75.09435468975309,-93.15821318943813,-113.41130311339542,-107.98820441601286,-89.33561138190703,-88.25913471626504,-90.19827602852168,-68.24223990956874,-35.114534474640344,-19.228011811766294,-22.458628979962363,-24.93485766763284,-15.202705206309592,0.5103630675349695,13.978894892938259,23.212166690769394,24.356257052795456,14.886433201000525,6.26215257350559,10.179788792895515,17.578114205662086,16.74683906043467,11.59517965180289,3.3634430445106354,-8.137750726161086,-8.610957263819383,4.32819007265864,12.340979954565647,11.86888459289657,6.3212084539093425,-11.967181583639352,-29.278911142197828,-22.77618063048861,-9.898282696083252,-12.192203008152966,-11.760386355143412,-0.6622840231687253,-1.6266916358262655,-13.617465165587314,-14.123697888210163,-7.50654631105376,-6.731257507088294,-5.128281211825239,-3.0518067307124515,-5.928529214344776,-1.8500325958463408,6.173487004544194,-1.115410535314937,-9.693981461931443,-1.1878333275424424,3.7901070929685914,-3.3226787569093403,-3.961831855285628,-0.46993838730622084,5.507469925268319,26.79011063603204,42.2861209993697,31.05765226837741,14.554769438313254,-0.30836630979885005,-14.19489076635384,-17.699725969882007,-50.0730759792184,-111.42152639628637,-123.69580607614668,-111.86779649968003,-121.21197010969925,-91.37756250100774,-68.96852654330148,-63.96796803972615,142.4395947715552,529.0188642805975,807.7530641036054,801.6859604800388,266.7611586081527,-633.5300620141575,-913.082939465253,-361.1044166662176,-40.3537987394989,-193.47162986412022,-125.22324897596997,65.63670273304169,-0.6618979659894109,-48.52531506363063,35.83807230314774,29.977241268250467,-3.4158294761910852,27.831723966674325,23.381073918400396,-7.899587319928692,-3.498416318549703,2.8207027696426317,-2.4096150316719287,3.4430944724645434,12.210281917499639,3.6903179762490135,-20.202451885269397,-27.146960782468113,0.5065685378310221,35.07684907101208,58.52687302109068,78.30248589321053,89.25669748619305,94.30571944852383,111.14339158041497,125.35908419369841,112.66533146860034,87.74356181113441,61.86090669014317,15.064590254579704,-44.699061581147426,-80.78370708267087,-93.80801716745945,-106.2377731361702,-114.43918740356195,-108.54454201456718,-89.80566489098636,-64.33752784557889,-46.84752896165223,-38.5973551236765,-24.326900642117977,-11.401452995187626,-9.179630751281088,-0.8762444109296439,12.118032924576301,15.520031851398095,20.74560508529779,28.007376387788128,25.571978477826615,27.412278017909706,31.261415988706855,19.11494927333297,11.329091170247057,12.637440913288856,-8.073538635547743,-30.931660490747493,-22.838212287900248,-12.492395707166512,-14.3062312092942,-7.7597242754187175,-6.291921234883752,-15.966145701883047,-12.656576187247332,-7.62020257864361,-11.910370896986738,-0.811977414990781,10.796479043306503,-6.412000947371515,-18.818247393657632,-5.647908266966795,-2.2363288187116197,-8.383453263245006,3.5618846464497667,11.727728881645493,-3.42842307667253,-10.597118653281779,1.8936504211643608,9.912333807097209,12.613414129827504,18.446365704365245,21.9881721162157,28.506719382468034,31.089388418296238,12.761738656517778,-6.14117492680753,-21.380065227626673,-57.54849518812591,-85.4230477093759,-86.44755872050479,-92.34963947031616,-90.23277799515017,-84.75071913535655,-105.656958756471,-107.08743083742212,-104.13439283099405,-102.36075042975085,87.4646084702159,462.5558428720008,753.8775436327116,816.2751470714934,411.96752823758123,-466.73176010370986,-902.1417741251747,-419.4109681846796,-1.8998818964298252,-143.27726972560862,-151.10992723409248,57.96733230738271,38.39404776209594,-19.954309536236302,66.34107749840814,66.59940586864217,3.348670295700593,19.42996605334591,30.090900575605303,10.997647194280564,17.354204382571893,8.571624145882275,-23.840461442663905,-34.08682707584413,-33.48236721418796,-42.612552636034465,-42.85374508941386,-22.476709808440518,5.513823501529682,29.07942319818705,53.41568248351034,82.08808554360238,101.37016958548915,108.16558874168899,120.19481481471723,135.86683730526153,128.56037853918937,93.53587361004227,52.23644850048445,10.887214414124196,-35.453967179648586,-75.53478950904163,-100.93548194611901,-118.1243183382316,-122.66226564565156,-105.60964864511891,-78.78375869879693,-57.662167054283906,-41.10763185501651,-24.049198647089618,-10.347950929247204,-9.12042381961087,-19.115565489767572,-23.098104965071435,-15.97984683531686,-15.573113905530366,-22.202823557630364,-14.27375699456535,3.6091871184623017,10.583558627243434,13.386021071677831,18.85575705337759,10.39847461453569,-7.440070570439241,-10.129321665167522,-0.6585373152925449,6.0839912966104395,7.356317621539839,-3.666070048406592,-22.15592782881896,-24.396654795857877,-12.176052733708577,-6.537366052201085,-4.3787268732956495,0.884153056190863,-2.0704893907871487,-11.466954233124742,-10.669244281450908,0.3166368888791471,8.41341487548515,8.27040460393809,1.7669840139331683,-3.3124638187255293,3.710842029313331,12.206234723806004,-0.2004771525450817,-18.613820558781875,-15.769002620531676,-7.89594362942233,-9.29133073098675,0.1045684574777308,15.753457248443075,8.474132857332338,-20.07635602579723,-41.55488548641911,-47.51855110790656,-62.7243700903939,-82.94560680727591,-79.93095795406407,-88.86921580933304,-113.42228056178486,-92.91546038654883,-83.65707372287153,-77.32311811693435,129.7635918937166,489.81713827496293,750.252210180316,784.9250081220065,326.6833991675188,-538.9470869768214,-847.3801308561806,-320.7381826700513,14.0323626506984,-137.42681380355086,-105.21677884144887,60.32910959964005,1.968493095304467,-42.319033978192664,23.091644765725185,5.434236105520281,-19.236981216117655,17.66249918434807,12.98776381978239,-8.194013524428135,3.4285140140805,7.583572595938275,6.008783138714355,-4.3933875577344494,-43.49728814752012,-60.28940773047594,-32.661903198386,-9.384455088397207,11.057317626145775,49.98572667836382,73.51797311962909,75.76829696750659,97.05621247308976,132.46797993514474,148.60411157805538,144.3895265674793,130.7419328500236,111.45579672718327,80.75831568026399,23.992421554869715,-42.07018152685106,-80.27726054363134,-96.28780310918201,-107.45968611569472,-103.09647969950717,-92.22406463794553,-92.41148051984447,-87.96532757892129,-76.29998725409888,-71.69016663364627,-58.85119279360898,-32.682021065319326,-16.826969800052098,-10.10417278821335,-1.1705779120648927,0.1384382272994138,-3.5306867703220135,4.123061080656978,19.494957322510956,25.219060265587945,14.449992880342958,1.5988074112386617,1.7758452894125298,3.959482452269107,-1.110313167572306,-1.1576812723931642,-0.056738525904950876,-9.584032636465745,-13.08224296081223,-1.2627877223973911,6.559370073787754,5.4871425372608424,10.081863711878395,23.92395965354493,32.74036319714435,20.052119688886574,-1.297061676903807,-5.789273711000217,-11.475616953851269,-36.2407828088258,-42.27802850888835,-23.10875404857031,-31.216822749158492,-60.605694834730684,-55.85928762250427,-26.821008076892802,-15.992046215175531,-16.58824749075277,-9.343710255571334,-0.7533255480346099,6.749091166097058,16.54499808015281,21.052089406059892,16.49485171292653,0.6236188757109833,-25.911025362104933,-43.410701503251076,-54.03083102872904,-71.33361918096271,-68.93475628945193,-69.72625954210321,-112.0827243062524,-113.95128000470413,-81.00346099432494,-103.68297472987592,-2.868033089744685,335.81941877452937,650.1653331828429,792.0868182967585,608.0490387111186,-145.7770904652396,-828.6375354146678,-587.9365729619024,-57.7912365083274,-97.07890346499514,-207.08994896122624,-3.398912252896821,58.11287247626966,-31.859602324089625,23.285636550189473,62.80682328268588,-0.7944515964139445,-1.0399034090967731,28.52855478875509,8.551274322550238,-2.1764485338237485,0.6665854757836422,-15.295118243591624,-27.380520016925708,-25.29363784898674,-19.71843093388294,-10.984692657064674,0.3848647560015763,15.499208723444319,34.74391162072006,56.67657423436464,87.15634802857402,121.01522177421617,141.52021185997734,151.97557918973513,160.176678853878,153.89767063255488,131.3921661711001,100.6377803936362,47.70482949431622,-26.884130011186173,-90.20179149528273,-131.80928014966503,-155.01880613141498,-144.8284629986163,-112.77712369019144,-88.66058496622652,-70.36726868529223,-61.00835578818689,-68.45474952443428,-60.92532012190243,-30.763746275220306,-11.231044249451788,4.029593477456974,19.878339351438434,4.919628004199346,-16.18294465106514,0.5300963576783673,23.45090289803555,26.399633238540062,30.07768005019678,25.800983591220746,3.6974947498025017,-7.446503151152566,-5.02023884674805,-12.096027567365939,-18.38843414912072,-8.97553340727896,-5.384779665699686,-23.50474895430178,-38.56806987450635,-30.971045442804197,-18.40799473212537,-12.002682745261154,-6.296726041616608,-12.303965012936082,-24.927751086589367,-15.387561079543461,1.5715288000364804,-3.059371695331471,-9.515616019555507,-6.516076184687076,-8.63298585914749,-4.459825515003789,4.954284997937372,-2.4632705747164056,-7.831781327962707,1.132165653607336,-4.498908018875502,-14.61996021244769,-2.3474634034520783,5.453257661211074,-5.3327724862801364,-7.817964852802408,-5.027664048207339,-6.8355915964457905,9.559934768013138,34.97253950954625,35.111515084312494,26.684660981750866,19.949037045658788,-16.38365926238521,-52.42291718113415,-46.383332279684126,-45.976145535323894,-73.59095080602833,-105.27378119585012,-140.3425544154205,-128.75580767987105,-86.85117674075818,-110.13929732849192,-37.0132765252674,282.24234413999085,598.6428806825145,751.0688916623925,651.8531953258534,8.67992878989142,-733.4161370512702,-641.9319817083023,-103.61735296766102,-67.86353503178682,-210.73974726003993,-36.778958058344784,65.4475231725902,-15.650325034692994,22.133321296433813,64.59446602306886,-10.305552588734638,-24.708279762825345,13.760065778889663,-6.3641499628895755,-21.078414717536948,-3.5371547700697272,-13.200424640486283,-30.660692293248943,-26.015511879248923,-25.38454159758929,-24.06605251384502,0.6141794741999078,21.719822692539612,22.35974253997852,36.80121822109739,73.29341129113027,102.53658555815926,120.82082704339224,132.82570376615107,129.2504213417024,120.37667272758534,113.08535451541647,85.8412230061034,41.278485472291145,2.4998038618223255,-41.463717835857516,-95.08779759446803,-121.37786979243651,-111.95153376010401,-99.66280969097338,-89.99876509155445,-71.70331257306005,-55.33013481683872,-44.23392055959701,-28.64594531312045,-8.502369227643243,14.710671644091477,26.83844969536262,8.92699544661899,-10.60461104176198,1.457435712449394,20.220800451203154,30.02252530996423,42.776289510904846,32.942554907092926,-6.608989520079183,-26.002312413347013,-17.825638615785614,-17.74093713086313,-21.539476410683882,-16.583060571074103,-17.89181506232636,-25.476095827489612,-20.16060049152415,-2.2774496563550173,8.28094383773343,7.556249414203297,5.231778293088979,-9.09618949694427,-33.41327614109452,-31.395741820301062,-7.614583726503856,0.7559435076358803,2.5415332353197577,1.658471149471552,-23.61262958053911,-40.486236430665386,-19.729862972146464,-3.259234112812333,-7.822437813895323,-9.843261705889816,-15.979985185056755,-25.03544690742292,-19.18972186729794,-13.944632846339687,-15.488234887684932,-6.10789476660139,0.6155781554770012,-5.714399974948378,-4.3800982792448515,-2.5068621744236843,-14.438296046180382,-13.493640116060787,7.639745464741335,18.622789457024844,16.47843789158905,17.030929613585972,15.942352706946155,2.714491633368807,-18.356662937697045,-27.843630235165005,-35.568106326137006,-71.40117217577891,-93.35255460629594,-76.56763323180473,-92.67277986485402,-110.70385333924675,-76.47160218478007,-96.66784304523705,-81.51504132864258,189.33089264524645,531.0155093515367,728.0395707749454,739.2447711097218,232.0096437403741,-608.7378071226303,-748.9244192594033,-193.92466534142181,-13.393061561834386,-189.86082553272632,-91.69095794369812,32.69649507078213,-46.75136347503661,-25.737662693151506,55.33688615534484,17.097772373519508,-1.6248106079982243,23.290154067112397,-2.426023209328479,-15.196082312705938,3.729308528059345,-1.6977867008980274,-9.855306483414797,-13.1140639877821,-26.68230526582251,-20.514983470982067,1.525715666184972,9.994348590725544,24.996598453897107,57.03673363601498,79.90446484854077,97.11611459274556,126.14175083316704,147.5109735091469,145.8440756748702,139.42548155521285,124.17097721802837,77.235006197806,25.015759032135314,-2.464266548900337,-31.36264774673297,-68.02101162170018,-87.90220759762991,-110.04636843045812,-137.87263434080194,-126.61406711485756,-88.26882754561116,-66.07298037960696,-47.64803087179645,-28.599126570313203,-28.4509816406321,-28.692700386281025,-19.210683368671212,-18.853312395219604,-17.690309430674006,-6.838586028767857,-4.57135998824273,-6.82984959953216,0.034259420649060957,7.666500028080261,12.171989108674344,14.795599262916301,9.77592460866368,2.48347697712126,2.8560666241667114,4.6041712019854675,-3.6811360018235177,-16.568782478657837,-18.49061017175145,-14.466291182118402,-18.982899419694863,-20.288609367177365,-9.80541347713498,-2.671172258486191,2.3662871962247216,5.314724013726938,-15.162145750835109,-39.666852826835324,-29.033086905456962,-6.492265447167078,-5.786768857099553,-10.541779441176232,-9.612888601895836,-12.625524172598723,-12.423572651341537,-3.1323680897560404,4.901672996329729,6.934928652087612,3.364081987938226,-4.424993471381651,-7.4206313336439855,-1.971376413418949,5.1442387884010445,10.51290243274262,9.690351184257784,-0.9089532660021389,-5.117208641418378,7.26250640551337,9.67510544643356,-11.748682503924869,-25.10834078843703,-14.481296403787187,1.4110283117752922,18.983549042431612,34.876790010277176,34.120414426964636,30.198659564832315,20.859926194076756,-23.53094796206599,-66.09404059035523,-70.14056701030296,-75.40781262743954,-77.47611994683487,-70.77473343371351,-108.89350959320483,-140.941393716428,-131.57304325344566,-140.76168141744375,-28.46442841503645,286.52491755420164,567.4868752369176,754.4993516188775,721.1333997583909,51.35538444528794,-739.1245187915193,-621.2041648669264,-77.57690902234222,-86.19885873151584,-219.82642720927436,-17.689127785330754,47.764819016836,-73.04814901549175,-21.76622454362684,50.03623428837377,-3.24823150230597,-7.360483797378592,27.051339829697913,5.626149558870989,-4.171549938928913,16.281263020415548,11.591321274946491,-13.21285595496538,-32.56928239543302,-36.31570394726307,-23.22815563003065,-5.655054824720267,15.157309445656939,38.51494619512967,49.87405773527579,61.63493264685534,94.01655675049167,124.42745456519887,133.62216679856851,136.83640985431148,133.8130541295287,112.1222764779832,80.48632631986719,43.22794893246356,-5.264900169159882,-53.66274658591361,-88.25931267409996,-110.62492924705704,-124.86732157421734,-128.3910776444725,-114.62177280617998,-89.60268893729548,-74.20169045565922,-68.65352029274999,-52.19767212881058,-27.105846587588694,-11.084952208499622,-2.7705636036469947,3.1697784893043632,2.9243838742294486,3.7444576220222636,15.983100837001759,29.73692252600537,35.37855438352206,38.75607194430133,30.78754876088011,-0.38633334587867196,-24.612993911872984,-15.289848710576612,0.8934858816522393,4.05824735498733,1.5094024268814863,-17.87148798854939,-43.724569613616204,-33.86735836157102,-6.275274988107567,-8.408288329371885,-19.022027456143483,-9.89652259667547,-4.268509845350717,-9.93579438477643,-13.610029863731768,-19.078789878396623,-19.30348801674912,-6.35784230690831,-0.8782331121509479,-4.701888860340436,3.1632639976063954,10.864534887459984,3.42655143041325,2.0622276586887347,13.417629093531067,12.953702988914747,-6.086611251122086,-26.384401166856126,-32.08887874286563,-20.10584148207862,-6.408864567441542,-6.033901250199818,-9.181788108657177,-6.797116924854179,-6.337651962590433,-4.474675291452995,4.609632029728768,7.254978256377527,0.2230154623552627,-0.8708836804619353,3.3361491885378305,3.968095040485825,7.769307590784116,17.97568024279321,21.577326257838426,6.3150552702382905,-20.290973997019343,-30.649573511794607,-15.575660048451848,-1.0918689042866525,3.1934741646208153,11.89167806369121,17.146541698743306,11.97316359974987,7.923469469582134,-3.6572038023800943,-22.27718117799335,-35.6416489052752,-66.47078669892494,-93.29627931024595,-76.67868313273938,-84.77766475199101,-118.67537894383139,-98.85574785636068,-114.65296154355048,-131.23956331381794,92.96100250501766,427.2364929776515,663.5165028940951,862.8011453202297,614.1280153968213,-311.16625888048054,-829.2065388992353,-371.1543504904339,-19.987728978309278,-197.81680000357267,-165.20238409831833,43.74381354872202,-3.2368076018964302,-49.35993673827075,36.895666423570475,28.227000851921694,-12.03963618263367,4.640159342478642,-18.3621742138291,-42.361996117676014,-17.114593551487726,-12.94260942946359,-22.685067196581024,-11.393341615853204,-14.717319745240516,-30.575340113433498,-33.00348978777288,-32.58711033739303,-19.51629734350369,16.325132548973663,43.75016344071591,57.88888657944904,83.37424363117161,110.78661064178512,123.42061788405087,123.68769010797259,107.9453523348738,84.01144369670124,66.84057923144721,37.4897419680156,-15.5150291316613,-58.29247441237882,-73.08338104408611,-83.2191194502484,-101.08166819514679,-110.87921246625176,-98.89686535118587,-75.41239910238886,-57.98513144637869,-42.7684750903805,-23.62504308254712,-15.348961714100138,-19.600237741758708,-12.60467671401392,9.153066669251205,19.713280437072914,8.583394854004435,-2.352651768886556,3.6312211725919514,13.08703329978337,14.784300412418048,17.655413299178594,17.576907167200897,3.661701860924813,-7.9714075796680355,-5.670237503988768,-3.847106568329627,-3.3049053476653176,1.1919139597325392,-5.27906402100753,-17.436205911363558,-11.496896782068678,0.31902514302447393,2.1292526791851105,9.797806638763314,15.097889383225247,-3.4436612971738283,-16.499288864715602,-1.5445986138882923,10.54331175377067,12.648871875082811,20.384936580892337,10.461198449004527,-18.07195460081722,-20.038570652324943,0.3649170284734642,8.807129459616943,15.736089248323282,20.118285697113414,-3.198449612453306,-29.583611411073125,-31.416167259891893,-32.74760560358457,-36.26474437707755,-21.934507848734437,-13.133890351765338,-22.577034801920085,-16.63389426906487,3.2965506580277832,6.595270927322091,4.438983606730488,8.020790120797187,-1.1174718704591786,-11.946438978647654,-5.050385566882056,-0.914646742889559,-4.7503717942158605,1.8193700712497947,2.4553320871238666,-12.282412023065586,-12.417911090331538,0.3278259559774801,-1.2769529050176889,-6.348644321412543,0.10452588804594698,8.98040637474087,22.145534508293434,37.85540542808307,33.059939791840364,12.67446509419647,9.090160589491646,11.672342809325404,-10.045910598036482,-33.23943207438704,-44.37418439255873,-71.28736190331155,-89.04824158363462,-90.77612820498169,-130.9978051617603,-153.02422682528697,-126.00836686771356,-154.01377897022113,-106.33788629141984,176.91104584889194,469.9200744868168,700.7378047066898,856.3517935349582,397.93109592828756,-519.8867755327253,-707.3479480471785,-183.6980186473404,-71.52729311237522,-260.5508896605018,-107.97769087539231,38.75266955291677,-47.85164668343031,-17.739004328111143,56.79093450926167,-15.347054366519465,-39.36068220579677,19.559098915051003,16.04079697530098,6.535394727158723,28.61964393994355,1.1960477318580782,-40.034124751678974,-28.721303299186754,-16.764202931781316,-34.58259209477051,-35.39855950237692,-17.706512952873794,-12.743474043062038,1.0797502237463448,42.566969071235704,79.21954213152655,95.20116423669697,106.35291026521561,112.19183384993904,108.97845494438559,106.716091094232,101.24583810802133,75.0183011927742,24.484611323812917,-34.728426477844486,-78.87024233707143,-95.75387454287305,-97.4688951926569,-98.57019374338078,-94.07024362223906,-79.41509874993287,-65.18008135179909,-53.47175374476144,-36.66567246141629,-21.579708656167128,-14.507390724013355,-6.010363500344525,2.6725963581057393,2.6380612850032623,2.283087726392825,6.807106601655995,8.465744929354944,10.656998592140795,16.175855979491395,14.795986420504553,8.372592909383819,6.457020359756334,5.734662291763833,5.338151308733558,9.193241421741899,9.142038978651192,0.40326812046762894,-5.1675758813453605,-0.941425912023468,3.6130131541150803,-0.6267822173839424,-10.610713824589746,-17.458543191964175,-18.162538685988547,-15.794660470805555,-12.218518881189487,-6.641114928678228,0.6448422948058381,3.4273687949490785,-2.738162312037533,-6.296706756362753,1.1208152973611276,6.265317202685956,6.817228526933762,13.727960164483651,14.034781035895485,4.505431963064584,12.394953840626737,25.782176779955815,11.907628717539804,-4.934606020046434,-6.6714047772479965,-22.282651986291864,-36.07800825600544,-13.555835669731902,12.673879111961677,19.91805037687125,28.19948376397538,16.681908590477583,-21.754437615188152,-26.32783822666349,5.6722819940825975,10.861902051480204,-4.909102287769375,-7.856244054975889,-18.979335665094656,-36.831820366885836,-29.82183849797005,-17.947361696911457,-26.447487367325234,-33.64985458741533,-30.08300659821408,-25.881691975737994,-11.148134766344388,14.53252493533306,24.83400914973411,14.006987443805041,4.686422589886741,-3.3965907426903357,-24.981392859503543,-40.60497250555291,-46.37249398185848,-69.38457124296215,-82.65769887012172,-80.80017109438265,-114.7222439131114,-126.64878625226898,-98.34630321780858,-136.93694442406792,-93.88451774684997,190.49019949677697,472.3730128997678,691.2751980432598,849.4914912281739,385.11294939981644,-554.7510239128377,-744.1316419889882,-189.9390647377311,-48.69258054351707,-238.60611602777914,-106.56237962288895,31.373751209728105,-52.02076431397086,-30.911856753466733,42.08627507959848,-1.0276755717460446,-9.721010656166296,30.17357988362994,17.075865868552494,6.813688731762742,17.22800249102118,1.5474066178246098,-9.517200289787649,2.924305504704064,7.9539743381638175,-2.3066882044456527,-18.043224209152633,-24.82468909822218,-8.441059976378938,21.136982861668393,48.28787830850622,76.85756770931138,105.46212245805717,115.8406380995916,111.36702225599441,116.50005394134044,120.6472836954455,98.65575828938877,67.11933080112455,31.570791900676724,-32.379043029406546,-92.51776251337176,-100.95094849484383,-87.9747282952986,-84.18304504021572,-75.77750258494157,-79.11660118391262,-99.7661784988114,-89.3726972473987,-49.02937453076967,-29.519069468797845,-24.85638938866785,-9.93360492609644,-2.65764160482005,-5.245785007128838,4.760870395284499,16.911823370757556,13.400601595423645,7.566154896316557,7.809632848840268,6.3308543556306525,7.0486845344392925,11.411074531971991,9.551036298377742,6.337868235117458,7.916218317065566,5.531794205744881,2.4531928814594695,1.8885906885922026,-10.751242413907939,-24.333991763920302,-16.23236125090545,-8.662761710060089,-17.939630288051948,-17.622753767823617,-7.481584387820094,-8.595933909926998,-7.246875713056848,3.0813480319271624,2.654086834241264,-2.592674413175301,0.4525525785755449,2.0554677436241775,4.467021760079945,14.52101699860862,18.787914501740424,15.80962306724324,13.789679597385476,6.113351237643746,2.723478801526939,17.150063041405957,19.312943675333663,-7.233749118476409,-23.454060061313736,-15.027608823453933,-10.17164614223983,-11.623535225653438,-9.642422681751139,-14.004801071734047,-21.79804066756445,-22.20286639361998,-23.63450737973772,-26.14413202845123,-18.54468868807771,-13.313020561919608,-21.521694318444023,-17.78849861932465,14.480427819905316,44.53965007173092,47.300695804084384,37.61137466078917,12.512806392136634,-40.40936221400274,-70.78051720107392,-54.577817444284534,-55.77492738744872,-71.21332418193762,-69.24254805762716,-114.93507123137198,-165.8339824766088,-128.90699150613324,-119.77964075091627,-107.65538882378422,133.91971798340603,469.32037836547386,694.3813591288474,781.3348342004957,360.0071462691376,-510.472280917088,-770.3268074092563,-240.7366167702656,-4.404843030941201,-188.69636256241824,-116.27291092446825,38.26578215321095,-32.92976339100004,-42.11763480880133,37.2470458327149,8.306198891418216,-13.163633413494098,26.546076721534682,15.6334460229073,-6.290744693053981,5.997936780333838,-1.3725547334547228,-16.52418402409119,-9.204530666847809,-6.062928282126919,-9.384465206638643,0.24868142464844922,12.78913487001418,20.943662953826717,38.07081846773697,63.89649453981782,83.37833893820996,98.31976912049463,118.25341230090552,127.36949897553951,107.20516702903501,78.05537722568869,65.31326425181064,52.60399105258537,19.986898873077514,-18.81717680434037,-54.9131282967798,-94.01913279194602,-118.90641906914526,-111.7592541569716,-90.67752815577171,-76.09204816716355,-65.63547914336858,-54.68265652373552,-41.2489229330427,-23.85448526065975,-6.440263904168791,8.687440079788502,17.187925624603636,13.049295245841375,9.273281508619208,18.752624560014546,29.199534619029258,34.74753876245081,34.885571653528636,10.922855225932878,-22.850798855834945,-21.88849052214293,0.994045026145443,9.107271479242481,11.743853558111955,4.872233531400044,-29.40502977442526,-49.99486952517615,-27.874393462004818,-8.02199003813935,-9.818138135632706,-4.434448312829765,1.047554558076417,-11.751417826365275,-19.702764182440543,-7.60173518221012,4.972970693297724,4.81737471608659,-4.3644713385413585,-14.799543545037409,-15.238507845225705,-5.7264535512007235,-1.0285614408086294,-2.8909402682419465,-2.1961133800930117,-3.021130719841885,-5.836124914435924,1.1108086949524552,10.401766642176035,8.233322228538373,7.783494533365962,13.888246954206542,6.6466239397864415,-5.20667446370029,2.9741107440604106,16.234782092655305,19.47427465091291,26.12804094870495,23.169465851115916,-8.821590948037453,-37.81754224180223,-33.99054935108437,-13.339932569459288,4.794793340531804,10.874778583126902,-3.6272463468904412,-33.245927268454196,-56.97277525030702,-60.49957957642286,-63.62672942618414,-78.83681558195669,-80.53597739598737,-88.14996451866634,-116.80332527632702,-103.79230149309235,-89.71691010091003,-112.17285695574927,32.08415055603572,376.0753626939289,661.6626462519506,778.864483356779,511.6103279776154,-291.23821441471847,-833.7308320535519,-468.73810647806255,-18.93272220613455,-111.9105200420126,-149.81560255813253,51.40325842293075,58.39223044788211,-20.716538012587556,17.29485124000378,8.068309497396015,-26.830595364564235,12.583800577975072,22.883025787924392,-2.666687849618933,-0.49206619735802093,-9.831368872949103,-21.37546961205907,-2.4877094019350956,9.455275300169639,12.611739167653397,17.451259922607115,-3.324513845193426,-19.768456184631297,10.664619011624389,49.8472296873604,68.48131167662476,84.5352330520389,90.14965041789203,77.45709981746363,73.33845804488904,82.60056631580755,81.304861128802,60.07411926811019,22.104254070700776,-21.921566019246722,-52.487627307746024,-64.69811410827211,-69.83910864123823,-72.15864283135686,-68.29988861075604,-59.0717559747124,-52.430064326328605,-54.17782787044834,-53.12798808578994,-35.41661710185517,-15.351967723539492,-16.56282150667574,-26.69423025865604,-16.72772965186938,4.122535945787925,7.682368531925327,2.07033632611439,7.236539317569793,11.701979152049095,6.085039868488425,4.613779679304935,8.059098981197174,5.130669480164153,0.12458637900727876,-2.418628350897592,-6.097734344836914,-7.250171090740359,-4.16159586089711,-3.175660627691201,-4.83427353301876,-6.911332204916583,-8.485806536466136,-5.370740680639396,-1.259844470603591,-4.39659580639855,-5.6439934900210345,5.094420431533557,13.535847329616896,8.569396802116096,5.1294921654648205,12.427448961419074,20.577761101767813,27.31120436036862,27.0677924587088,-1.8025028773010519,-42.29474667374176,-42.316872945395055,-11.756055269844657,-0.4817143923289766,1.0397946402870115,6.777017288907809,-15.916782571834787,-46.37734551761167,-29.541508462686416,0.43445822481983676,-4.429774124076825,-11.861782106926022,-8.867187977029676,-18.25828201878644,-13.084145621790332,18.997298992663367,34.980207281069994,24.297096978807584,-1.5286149072384339,-34.74008607448282,-43.85385955172707,-41.07390357435796,-60.674967870330974,-73.00031163342275,-82.07989054798665,-102.45928472201845,-84.98903705079405,-84.98768230906188,-106.85272610906414,83.55565407752815,482.8000259271585,787.3788168210309,809.9193607152583,320.69416568059404,-564.0030600116996,-897.9925223078634,-382.9371353572135,-33.41042374295074,-180.6640885618433,-146.42389728574332,46.18430723101712,6.403303202681741,-38.40910148663119,43.63670454732762,42.64806131549612,0.5762927414737904,16.53090561813648,15.70903915979908,0.9725940903288235,5.895724828842392,-2.7236697136277073,-13.010006964665925,-8.144817424344952,-8.97505576405013,-8.053336459091078,3.072551142064345,11.817521952917108,23.348053197656274,43.375144942342814,62.55698373645806,78.40395323311702,92.5987885636062,100.31818033452998,94.78410944575715,80.06492752960536,72.42996402753428,68.77466194639604,45.19946566489984,6.746308122387602,-22.375451567532096,-49.53489131166798,-84.3053783572806,-102.95513173817282,-96.63570077993775,-87.34313460665913,-74.60409085727717,-46.3890204107187,-29.19192325648782,-40.60307343007653,-41.158025147283766,-12.291103252002515,9.422795027063358,18.810092353810898,33.5438148674323,25.298558504215322,-8.779099943377304,-10.043561283562008,27.018691079318483,48.99523948559735,42.88525465783268,22.765033651961467,-4.662439355420169,-21.47679074194832,-25.498022308612157,-34.856635248508226,-42.8290939613113,-40.36808728290659,-41.587552350454786,-43.34550547123122,-29.89589039018048,-11.446120057781268,-4.117231899920707,-4.676157100007224,-5.172611608152263,-4.629495772316824,-4.157991360455927,-2.5738740783133007,-1.0041402282908685,-2.63710135954946,-2.8708160464660057,0.8486100488964947,0.4483270626345135,-1.870917844383177,0.7974892447747592,-0.8768650681030508,-7.68345223924501,-7.811954872277152,-7.375198319261355,-6.739085467990284,11.619122563338312,33.60022220291826,32.595035046200564,22.836146992778342,12.61005257896139,-13.740306235479757,-35.97256390378582,-46.04728220697311,-78.33016528925769,-100.88810786821789,-84.01254480165827,-101.64970015347943,-134.28080164737935,-100.13315115566203,-81.68190834313627,-49.235491487403216,209.69304089306866,611.2245867107074,868.428123795909,751.121065804754,50.34442330241623,-789.4877394534285,-810.6340058570107,-209.1287658490006,-22.939738944627464,-171.68412125524208,-51.45651421015772,89.0335916266699,22.441632198325152,26.802004346152625,69.31344130340645,3.9319698027184913,-9.19705012281617,38.626167547383766,12.933617791737852,-9.77956885505846,20.204420289031482,13.74689435703792,-6.551199529307585,13.868313745430186,13.666243079355159,-17.29633041443849,-12.429047085215338,1.639470165766065,-17.40088384627494,-10.145998001269593,40.49991319135211,72.17507764448496,87.21409512214318,107.09083277880336,97.45595209434677,70.97203409117478,75.2569680360804,83.91923713608207,53.66178794103578,-5.579561439045872,-67.65743897912151,-106.51420064821409,-111.86055501866386,-108.15126796369854,-106.9203435754018,-93.04341210393441,-72.41799077838866,-59.89057491875174,-46.487459258585446,-24.64747151752279,-6.045490552623427,-0.26890262010631005,0.029937025118051963,7.857273965189606,19.142265935337736,17.72215504090239,7.414480770172255,6.609092864710046,10.460840892888383,2.4630546660435417,-4.778704954517792,4.608476451541338,7.501524243692315,-9.096472196315895,-12.58224138290543,0.9484873692447575,-3.878518042682334,-15.59086861240111,-6.464821284119269,-3.105717103287729,-16.37361777579026,-12.200766778902409,2.4592347316479666,-2.914759088188182,-12.352338030655488,-7.649673787818246,-3.0931839268105517,-3.7875110057421946,-2.0286656944900674,2.3422302155269685,8.267459135774036,14.032839888981542,22.60346141928737,45.38602004943167,71.27765387959312,62.050856604847304,9.368627878735158,-38.73490959439454,-51.87864939491597,-74.324366016146,-116.56596134611556,-110.51785591375693,-94.1100476100597,-150.03199901175964,-165.39556109194407,-91.69597473768064,-81.93063259628401,-26.08416079764892,294.1698096822752,682.1289767951318,854.8643482330804,619.8773200988719,-166.75918130311712,-890.9009053001055,-703.6512458915154,-122.55763472879111,-72.08964091659959,-192.6490613222803,-13.41809520100999,85.13211790419722,4.706473267966411,30.753723689629297,69.15124912396384,18.114047332333538,13.28200181537839,38.003437650332735,23.264166082827813,12.717491637939727,3.8962188180553956,-16.92769731346481,-21.12214932821952,-22.263877595601063,-28.68813748571066,-14.801230708058776,4.611507286949493,7.208490380186795,16.17340326130352,48.63515299320754,84.312945521141,104.12182447387819,113.22669862783772,120.18693665035272,123.06619077141724,120.8542809332996,110.33049759499103,81.38639155629585,35.845503234029145,-15.822855069818681,-66.80529819889406,-98.79489806796306,-101.65487062400022,-102.0747226891772,-111.70956118180465,-100.88798576443165,-67.25460293755363,-42.66739634174846,-28.865660408971664,-12.796021665451065,-3.695627529897301,0.18837644631196682,12.01176611400052,18.747504788122246,13.185898862677112,14.634736060620105,17.65490732668026,5.447933847380089,-3.2799398562472533,-4.761467185375139,-23.90280089480483,-41.37980458531084,-26.63423975396664,-4.953262908249698,1.9801232516754155,0.8703444358614796,-20.964207580152667,-53.39905332211183,-49.577344796473525,-21.155775557577044,-16.86543110793941,-20.751558455372393,-7.6866279947719995,-10.693855738361535,-31.83255817393592,-21.34777774225852,10.256300023876108,12.247257422616086,4.082428172552357,18.759730663357246,23.523874024979968,5.070302846645747,-5.971297748732644,-15.544613516470232,-31.684854870298924,-43.827731551682575,-72.96291568317541,-99.26425087963945,-86.20637014373943,-93.39611008786888,-117.65416428803432,-89.10693170853317,-82.97540619589387,-61.042113787804176,192.8828567949641,578.1604192357618,815.0873775776606,732.3987077277732,102.4604595763858,-736.0379016273293,-813.2636771648467,-223.05345738908767,-18.045836030424205,-176.6865670588502,-65.920804926393,77.89208209400694,-4.333194020491604,-4.630390702028254,75.43091322981032,36.57049431288449,3.355491418449592,29.68298510390195,8.942645213077903,-10.917149509446983,11.202199707636144,5.526377325741864,-16.161370054535155,-9.135791970582236,-5.342268639929994,-15.83926076356617,-4.663931020905672,26.592697654350545,49.89221538516862,59.76961921116305,63.93759737944568,77.28438523905244,109.8950449133656,134.84886087999806,130.82346426488095,130.01233206328052,139.4965220562016,104.44585223021717,19.249251355302533,-50.58491437498283,-78.1695753435117,-89.02044206258576,-99.66242499955932,-115.87049624208544,-133.399066776048,-130.2469548985545,-103.98352920270958,-76.07048450813566,-50.79876017307809,-27.973231590296457,-22.27403970409153,-26.402976278406385,-15.078942652248607,6.043032898709139,17.71105210292017,22.533073875079854,21.346775471651505,10.796791229183132,8.144957614398857,19.00246750775831,20.68814649316969,13.482076986116198,15.199536115439669,12.79989056113388,-2.221011781668831,-4.774316771689835,7.115784038339413,7.147204386957442,-5.32957688056173,-15.234052381083803,-16.95048273195909,-6.496080442078708,6.7648277444415825,9.115299054082211,7.733315069956806,1.9038011649727729,-13.929308713896656,-15.427606484382164,0.42414736143370035,0.8816819437008121,-13.166133269323947,-26.710268377833316,-44.27095790477818,-62.217866216370126,-78.78180715445427,-82.57050652242604,-70.32808202383981,-90.86430240778921,-121.56366322031458,-100.09988928249656,-98.02972640206536,-67.4322309270489,195.7676210077645,579.9577564424676,807.9770008181551,710.9482819740545,77.86404385554094,-732.9468282588297,-785.6005707697739,-217.88507065783705,-40.58264238267077,-184.61648195635837,-60.30202645921867,72.6689930406804,-5.658948451320754,2.6229083371948434,76.44157148417099,46.670499486535675,19.47799382817393,17.135328312604933,-17.51821213381271,-22.35213811243716,-2.1117829950185945,-5.274175087335436,-6.33762807004258,-15.995040918875837,-45.885348422080206,-44.34679827226922,-12.49654076210999,9.937620445662649,31.58637846988057,54.51716556223482,64.35426780398984,79.64587131879645,106.92725624936486,122.38022922981717,128.9535636402274,138.88513238710263,126.93928638037211,75.57987958367087,13.607738101487644,-34.046860113127174,-72.60906062966104,-100.21751363813846,-109.58061304558342,-113.60997433451288,-117.08391092883521,-102.32457415989855,-70.63480576219659,-47.20331420233706,-42.48138231979764,-42.79044627531236,-30.849108771710085,-10.338363265161934,-0.38591140167370597,3.0259614610677836,15.95493250611449,25.739413742256588,22.042729305603316,22.989682720885263,32.08654927682004,34.58029742844894,27.744109568772423,11.459722240675745,-7.268361395266662,-7.818499659691572,6.27353174233432,11.69334832452574,8.802435635310937,3.442113715345977,-15.635549681373194,-40.70988802328583,-42.945041695416144,-24.432918419764967,-15.42122117090477,-17.202498635510217,-8.636501159874513,0.14072217703906276,-9.410241111497648,-15.320165389541751,2.9062959478761,22.00765608518296,22.41994998910137,17.22789967995766,9.208413799858572,-12.930142701941293,-28.850844341738497,-26.5891001866124,-45.69641919729907,-72.74541483988048,-55.71392602224291,-53.97107671106212,-92.68115522633093,-82.69083173851388,-77.20457354634961,-93.58758405225159,87.1374564440653,427.29992323712383,673.4364565002687,765.0459263624812,424.3498192173952,-439.80163552850587,-882.3730917100154,-413.84486878136556,-30.853225403929272,-176.14281877441147,-155.83797744204307,55.70212536537475,31.640765042196406,-22.872793603548562,35.902889695137716,10.05089770100503,-31.74608359334207,6.567405402872428,15.803146100168863,-1.5472921119128742,-5.99683141056526,-35.627122828119944,-52.22029446409956,-30.658853718020286,-25.706433409602766,-27.289334324156872,-6.098156437110193,7.212368885478655,17.127490471017875,50.916610007752865,80.59343109472267,91.08704162767924,109.61265282104793,128.5591961968559,127.11487599090131,125.98396339282905,132.5062583670051,118.94960116191776,74.49779023844236,1.6878152388914796,-84.51741658489914,-134.47918768300386,-130.54636337626826,-119.44693961790637,-117.66648673337534,-100.55228609939482,-79.73306880788411,-71.0056191259976,-54.284738821560055,-32.265484645739384,-26.003245315114995,-19.967333489237845,-4.25301810870004,-0.9526630266076666,-2.7289760317248906,13.278265935131854,27.7556171838666,25.478654100054868,26.121204201444215,29.272303814295405,23.50081066853759,21.29614817323813,17.751542079404977,-2.146552682084879,-13.564040865341129,-3.4211329451943167,-2.101344375699055,-9.751828034686355,-2.6558278203495878,4.048446982356873,1.7206460717582557,8.63366054038487,5.49182417894542,-23.132782521328412,-32.88435542027322,-12.0766603678962,-1.4725650391279572,2.979825253743943,11.103763788303539,-10.490303644261214,-41.437103528567626,-30.336124179625457,-7.927429525344092,-7.968166476971064,-1.4560075988877088,4.18461431200774,-16.94906761557316,-25.07427288473458,3.5208674961479813,26.2788086034141,26.777232911252163,26.958209778762715,17.184807192691736,-16.73381420937143,-42.430873652653496,-50.00575981971055,-72.34633622069944,-84.09836083282241,-70.72187065515502,-95.44679671761736,-112.82630507802324,-74.16748774037534,-101.9140951623606,-95.23562446378895,175.81496997458683,498.45977535031557,683.0568668217661,765.3732422775995,343.13073148275146,-539.2584073195902,-777.6109045288508,-242.1550347406576,-53.375344432231174,-242.27860845927378,-116.79690938221441,50.650014154890684,-36.023392106853876,-36.97413058084156,41.068692128335954,-0.1311038060562737,-12.260089077841481,35.05676945429004,18.46976595115609,-3.2745003066634437,6.3955390850430724,-8.062513446920434,-24.66930811346353,-25.869525375074666,-32.878688105533676,-29.306594144142572,-12.654980718250073,-4.532427244284655,6.8961078153688184,37.62743955704667,74.76801362028718,102.64949351149764,119.5737615995599,129.08219630821333,134.26564290925677,138.9314958298637,136.77488860534737,112.7044875721381,68.13764761404634,10.392400901229298,-59.425733696381855,-114.13803751073063,-127.59255447641326,-120.74638674741233,-106.00573823816278,-76.40118966086865,-65.5233078153841,-84.46211333274495,-77.42516019816215,-38.163229416768345,-19.841106619103613,-19.02507102651144,-4.590837318677735,5.631289137790908,-5.653574182033459,-18.193970771521787,-14.223075794008572,1.9910413062165908,14.969785582580897,13.944039953652545,5.993226614754234,5.129212434389858,11.991144385745184,15.57415861661013,14.784311453854908,20.46036937353819,22.00871257295656,-4.942590241926165,-40.55943039905969,-42.34303248651223,-19.30826344181832,-7.84751568917077,-12.745447665506475,-20.456032475235396,-19.973764704324214,-8.149747098507572,0.9628066387474075,0.6150334327538154,2.6014628437788714,2.8262751141083573,-7.016539689649477,-9.407912077392277,2.722562566669461,12.033753097339744,15.354406515692016,14.901641207621136,1.2770030744643472,-16.69827718451186,-18.55295602534318,-7.111952143587082,3.6396420869507535,5.451715470228179,-3.2499027597627466,-6.309120899778476,6.790995381577518,12.831139837991905,0.4058925188443139,-4.9232301217900885,2.3734895781901733,3.0548925068246002,4.01062013452697,14.014515633535343,13.744397337791924,0.40182339216114826,-8.214152443196957,-9.365470749828859,0.5862001185909476,21.72695652545855,28.16581004642519,10.111482628507567,-12.133707673290466,-31.846644512729192,-62.75556078929212,-104.31127426554355,-113.98879307208071,-87.39943872495404,-104.42470692401184,-139.40339321883806,-110.04605365847283,-123.61939866431638,-151.75164944440942,54.86711069233874,369.2815231055094,598.6948982523559,858.3737875954256,720.8861006300324,-185.8288683204609,-804.6734313415185,-402.1228684567277,-17.827076395892803,-190.48610808216444,-189.23580033038485,9.19593320282759,-50.39023067232728,-111.79035941058434,-5.716462091344365,12.008584062576983,-23.267594763556605,7.98656552392417,8.77967290593887,-15.640983737865591,-3.1494993425012527,0.6239604783141233,-10.693124023984861,-10.714429560245122,-16.90334993065309,-21.7402977236163,-8.284137620124973,7.555341890067744,23.56707309823382,44.524417733801336,56.329282066548615,62.948392629948756,82.17103132542451,105.5296194906493,117.92376371170187,121.37943606605785,115.269753436213,94.90590690918708,64.33906314836153,26.717849884069146,-15.259156779080719,-52.59006203874958,-82.328655215334,-103.68068086061547,-106.65424019323166,-91.31517177528256,-72.28344512526661,-55.39401268727707,-41.65297641213287,-35.727776621417945,-30.485859829867252,-17.01154745853169,-4.644724651602832,-0.2513382981622705,3.556499169870463,5.938092447548712,2.402641383152292,3.6526115178322742,14.437569577213887,20.011372765413036,16.735510719113663,15.103480554640598,10.201590084794958,0.5221089935714014,5.567500204643458,20.703682206166345,23.046972972983536,22.53232630575097,20.60515566794885,-6.70924145675837,-31.210461814893428,-14.594544067629444,7.437416442506789,10.535756646717076,18.306003647132663,15.807125135802455,-11.47622672038997,-30.616574305808836,-40.03493295047544,-53.137121346694315,-45.40689272630004,-25.369210215643776,-26.892561814868486,-29.651075703461917,-15.728599712359966,-9.719577456447347,-10.34163986532187,-1.3908194760987573,3.4862629547768123,-1.107156669043789,-2.8314018921402493,-1.7103076191965556,2.6446456319459664,9.622856264517925,2.6522778944781322,-16.978434805363953,-23.876618478309144,-15.748729105933144,-9.991815623696478,-6.726005383775181,-1.0797270750474475,-0.7531979994523681,-6.814607289504208,-8.73736787618703,-4.333909167944505,0.41492809291372623,4.487153926302994,5.103675402078224,-3.4418550501886696,-11.449585833688985,-6.073998428400726,2.3035298556873123,4.091773213646748,7.9136708726013465,8.302460144042108,-5.127065503958439,-13.756923381891832,-3.002635813394099,14.24580122890591,26.24522659484581,26.075021200477067,15.752735915074904,8.167683348527143,-3.187735603566816,-18.16304959948217,-24.105818161029777,-50.11927754136625,-91.9400611452815,-98.82115338044089,-105.18061850543998,-121.04666334921467,-97.65306272611332,-114.2339614652696,-131.32026750679552,48.040138882391204,299.333671039121,534.1309630715498,883.2313449492747,799.9640502264672,-123.96375719088239,-770.7074192925892,-395.1406255851427,-30.94174592034657,-200.71881927923567,-210.0340051472154,-29.776100183495856,-64.85590052091594,-101.04437437774885,-14.427791542402751,-7.780792294920374,-25.316849321051407,15.588859625182657,21.03862423217452,2.8576940552447283,9.202076549656516,8.011731745410636,2.3814714886861554,3.655372712578793,-4.658054040755583,-11.652828327283718,-10.874432509094826,-12.305910269405018,-3.231437060004545,21.95837720954482,49.04824291940936,77.37523249359636,102.60250049002971,107.76599631584028,101.18963071146932,101.22558019809526,98.65695176002536,84.00180346285511,62.59633813723499,27.710361329368567,-22.991688419972643,-67.51174876647976,-92.26906722744744,-101.53242033598804,-98.03772665233039,-90.73529708862972,-87.73310177070815,-76.15846991083374,-50.43922129379538,-28.93335315745435,-16.885419639475742,-6.160567787625187,-3.3866676176502892,-7.019742862133619,-0.2759064379576657,8.857197988126341,2.7792727932096675,-7.723949864540447,-12.044737720461882,-16.607626883986324,-17.0502650824881,-7.0822347288003975,3.768192674281341,7.4580539132449575,2.569815701435541,-8.225395655492662,-12.214510939878505,-3.594340701609301,5.411073114887735,6.837102568725355,5.994698136632099,6.330657841502459,6.500872809119871,10.389884896773246,20.963665073493715,25.305022695854277,11.98292081017969,-9.094924014686336,-28.625957202559754,-41.033667413859554,-30.930602166024357,-6.803717395629558,3.871774439034196,5.61399419299333,3.1149979732123327,-17.173468143747805,-28.37152258502021,-8.60232868544367,-1.5855557527295048,-20.447862530878215,-23.388429459366883,-16.236643840994248,-23.07364380695998,-22.257505964383824,-9.922566338649705,-7.501383414814665,-5.642422668510166,1.6222389218340698,-0.6623055048871969,-4.754311670233999,-0.7061390077729355,0.13996882921329146,-0.39197378161617635,4.856519323492042,4.915317705695977,-0.471961668683611,-0.2854705235888355,-1.514506125800282,-8.293196574565073,-8.51695587334665,-3.868653431460894,0.562281835402108,14.820805486488922,30.25442318632399,29.270291382277186,21.662254216186533,8.893811482589374,-14.746652034385608,-30.068151618199437,-42.741203936078094,-66.63010719707195,-84.94957476008406,-113.71239957040164,-139.20594789433716,-119.25926579237657,-135.74615169361522,-150.99602667286968,53.59188828294192,375.9808750003755,637.2873175287533,882.6716114628946,679.0207793509003,-252.7811112576715,-837.837636733649,-405.14139679612003,-13.916381419672476,-189.82791083484685,-194.14774598092674,16.147302132450633,-10.194162677165423,-52.38211478351928,33.01600481683762,11.12371989400594,-44.55821897193232,-4.225405326037265,14.02557738863636,-2.395613304645769,13.769895249737381,20.767073972814465,-2.540935531842891,-27.899028914915483,-41.891600043478505,-35.45877185859841,-24.047356634675005,-21.260984668484763,-6.245104818418001,18.804591665346464,38.97410535650702,69.3182575097921,103.83682711374556,119.85529697760369,129.6876974226677,132.74327437969296,106.61719047826722,74.17789922253047,57.569759121544294,25.079863869545104,-28.870172251690434,-68.15021938177063,-91.12754161999737,-109.40101991386189,-110.26509080270051,-97.4643932109672,-85.63365712942732,-69.02896151804767,-49.881532030901035,-39.013459377503025,-28.25618093352373,-13.778948968864846,-4.456510519492017,3.575214235958134,13.646827488209826,18.31042919694041,18.502471954148607,14.437334858053822,1.4751854169590253,-7.415802613055561,-0.438454568514155,6.592673043680943,0.6465987483326714,-7.076687182395511,-6.989407100566124,-3.4890900883922953,-0.42072359309562835,1.7205349892398125,-1.5196528479705957,-10.08096191006883,-12.325594962403937,-4.539718294207242,2.51686792194087,5.906908751297415,7.69253310928978,2.312645643756418,-4.898238913357133,0.5809579611995404,14.288071721141101,17.771494753933574,1.3263764123556552,-24.615902507027208,-34.17405214888502,-20.692950760988943,-6.7505562929008605,-0.7228692269517212,7.641663632830836,12.45772781333944,6.876452290976361,1.9912875078942829,1.262346331436432,2.268524681743049,13.731022621740284,24.785425128043833,6.156785118964626,-24.287906707514534,-19.011979217346738,7.748746901671112,11.362367728702644,3.8859155858542653,2.6233001798890285,-14.180358356153276,-29.892929122052887,-10.181837848272204,7.077005678631696,-10.79081436123019,-25.82219145016493,-27.129995987351965,-32.42973987111764,-17.558494684946744,13.512213115374733,15.833270081677014,-3.4972342086812773,-22.281346164785546,-43.067271266896384,-53.40562074210767,-60.166671296993854,-73.32085557760134,-75.26197385674233,-90.81076322359229,-112.21091505432447,-97.44684062469034,-123.99120125316388,-137.66712084537926,90.50972899475912,447.589389793355,699.5238814773103,810.1542102697553,435.6620316741038,-454.28266899706,-823.3074191151459,-317.3684918465163,-4.427837490969239,-177.5981655958275,-133.94231195763808,45.004751500701204,-13.386132708115888,-41.833204731615226,49.280343434324635,37.93225664605685,2.5470961428608963,29.372575749971343,20.269937117411075,1.93501803045133,19.67331131578965,8.77785259597912,-29.585655968291135,-43.473075454081396,-36.34604966100825,-24.750093986304332,-12.886189792082165,-0.04667223602729109,21.23632904443017,41.963854910008024,51.518056080885934,66.1357419185767,91.66727571206411,109.76398081456907,117.42980834582791,118.99609907656055,109.40437596943914,95.46573826426632,78.88487679422296,46.36850778327562,6.395885114341103,-34.979592782791926,-91.79838504468727,-133.85622568016373,-120.45729313318209,-86.48775787900591,-70.82988956053093,-59.071163181603865,-55.992166657091175,-70.72698285812479,-65.50487245085714,-30.392776348464878,-5.271650284019067,2.1978552050077766,7.097448665110431,2.3499997448718766,-5.052980613448874,4.489309271805718,16.495796526315356,15.399367475185326,17.15924997397747,20.175315473450052,5.24417901414961,-10.202261799321064,-5.097526463700254,0.8380956735279899,-4.008793269825475,-6.674760791775567,-9.896750189250845,-14.795889505558383,-9.559603698706509,-4.836237261002715,-10.576734749448091,-10.31114691935257,-4.407119675813612,-5.834560796911178,-3.968829593688886,2.0482472249630295,-1.7331874964436365,-1.7278000423179618,10.109549157105773,10.002976042805091,-0.743113213678205,0.9124627249151603,7.477400416225501,7.997962510025085,8.060045121902133,-0.792855853774431,-18.30004364346753,-20.406163528992057,-7.972852708283728,0.6235072377429125,9.46921017395604,17.367047298067636,7.503608396443806,-12.84316236913301,-19.433013659528136,-7.383486561679881,8.741182729429845,15.35496951777931,12.451077629690987,5.249292367877269,-5.209961260630061,-12.277099625686017,-12.000644924946613,-14.548505063370108,-15.842588565398414,-1.0720895002377144,15.642148949121644,17.99402086580441,14.152068581508551,3.239176034567188,-15.25720466077102,-39.36099635665829,-86.08712422679605,-121.02606363600417,-101.80524405076574,-99.05163601990849,-124.14536583500336,-101.38092499700852,-117.97234625526497,-156.83455662000605,58.116076406400396,480.93508648692887,811.4694824897239,907.7870264516434,452.1864362891145,-506.9504005796092,-907.7882430268625,-387.651744672042,-38.49248496041898,-202.47969689405255,-160.7594021018391,35.77454750439519,-12.811162060423584,-46.808280718387586,45.89379006518769,34.77675958249714,-4.198072569778477,29.164826541220265,23.767981916472642,-3.5446783789368626,6.244552577968919,-2.8346983010772813,-23.26828522516731,-11.032042907362483,-2.2621503761187096,-10.884138579872548,-1.6244777753921085,18.758434843904453,29.85733642591847,49.16026072844622,77.85547274191467,86.0352392662225,79.29494833906335,88.28027975384418,105.73384697576154,108.86901438282162,99.2338255622271,81.01117224985809,50.176762122231,9.8906510693077,-30.628314305956906,-62.73319676815241,-83.09715593234269,-95.3035672175022,-101.38871929639099,-100.47026813567878,-92.86263808505579,-77.57075404493494,-55.94588011749389,-35.89028993740982,-23.281604378063474,-16.02568833524408,-10.249122755129587,-4.345126350990517,6.0584526286808345,21.66033411017832,27.24220510886908,16.28125846194212,10.380196155211468,17.441617458614026,19.83459592937023,19.551079975133398,24.71530638555398,19.770818131396787,5.4056820679406865,3.9193452630737537,13.621633069015717,20.46320320891335,20.01578587132142,1.9622604856580814,-31.723762491380484,-49.016278286455574,-33.16251371980196,-7.335360585767656,3.1966663399961206,-5.728330796199057,-23.492815624745138,-31.86382772764145,-26.08349418282311,-18.73350940884464,-9.740604711338765,2.3710914315358576,-2.422727529091251,-21.35654417083681,-23.18645833306169,-9.835518772177146,-1.517467835009871,2.271771458999199,-1.814288595255654,-9.09710719749542,0.8108534395517797,11.379868598488681,1.0759372152936209,-2.9377063028405654,14.365981664278612,34.42455446395657,45.787008445051924,33.83360705483501,1.3721441777228272,-22.98442816144084,-42.391665826703075,-62.75408489639898,-72.36879647631133,-87.4461671473025,-95.74722279214548,-81.07122263030105,-93.6586049850197,-110.76751303152709,-90.08534505143804,-97.66956313934337,-29.347800940615215,292.69355618119164,689.5391607447976,888.6871061280087,684.2893651547006,-96.36376250283169,-868.0124948323102,-735.1564528649528,-155.3720358831029,-89.51830082483073,-210.79371563650176,-22.97249472607234,75.62912476599908,-30.80016964799515,-7.040029178985968,62.21728330548356,27.827201849249906,19.23330761016159,32.092233991176364,-0.5029135537612444,-6.155373611901585,14.920339201553947,-3.1578548627572243,-32.810333721692714,-34.5839865310856,-25.93313292827957,-23.518641424482176,-18.409902007839243,2.0823061048116465,32.92046526219333,57.627182027467114,71.55887630082697,87.48843645376724,115.0437499314365,136.2487634370896,136.7459784579703,138.06890752677035,132.98223721811826,81.18352495236239,12.483166028488924,-21.022078867316456,-46.915007677318805,-83.63848383142884,-102.38318980000571,-118.96430949944002,-142.72831975432894,-127.2955982696559,-80.08312203527214,-52.509095373291245,-36.76791380455322,-14.562521984729685,-5.725228977937974,-11.92440604496089,-16.064133363207894,-17.841685164773118,-18.946051530422547,-16.099839894966216,-11.519246326217083,-5.867199114027464,3.480259653009778,13.635495822428904,18.420806601110186,14.822969983895977,3.0034851580080435,-8.345392435095004,-5.132577465074213,3.212103170524246,-6.4307995657693695,-18.56168167531726,-7.658870417524607,2.467202488023375,-7.549109940544938,-11.514848382451882,-3.926379048477031,-4.874073153229725,-6.745837008040781,-1.413412786537509,-1.011866643351997,-2.6041956624944067,-0.2639378738736129,-2.8941207311627988,-5.188443721542681,2.9736937379823756,8.064803471654734,2.345777358207938,4.504470773945485,18.382424953541975,19.092104788819018,6.1028867655837375,0.8515596662117657,-14.093344188342126,-47.53428335213326,-58.959145933618444,-58.753929461509244,-76.56836831757823,-76.0113598802405,-79.71791721133808,-117.66535850065455,-102.35471345343853,-66.93755235847445,-74.93738947260474,90.09791694592448,481.28070839828683,783.8981367943023,793.5392475003258,333.80371415402135,-521.6077651895314,-892.9429481767029,-387.59096371418445,6.230708953606623,-158.03695261203518,-162.61716245263665,65.91490300503716,56.70845056589691,-13.00344367952682,59.07816549140651,65.83674740243762,16.07449176465011,25.59537263005135,21.644182023951707,1.8200966241219967,8.205516588520378,-6.10537658483282,-33.63244770334813,-39.31661744874907,-43.783180246248875,-39.90922328608354,-11.462139852273232,12.849773922574727,20.852018438060057,32.052872803892086,57.31643699187432,88.72491775542285,105.94893758322962,107.22686008137988,111.56291669412059,115.49657660836154,107.43560512882806,91.95452592140893,59.03054352467727,1.3474122546455938,-55.939689864133015,-96.90591487831361,-121.94048992615012,-124.34033314685482,-114.23212259998786,-103.78475924998817,-80.53638233156717,-53.20619888852638,-47.72506559694706,-51.91143608717305,-45.279258757880726,-32.8557692900218,-17.3351777330038,-1.9336871693285893,2.6599840233495513,2.4826988756243793,7.546319993799603,13.468040736486454,18.6313788768016,23.386284379334146,22.1672800034959,13.752803232997728,0.11611228240007243,-10.707891544730277,-5.790674996691381,3.8743897814726616,-1.9019028200430643,-10.74662133282813,-10.18788440144403,-13.40217541637092,-15.42269891922155,-2.9416670565893934,5.264001662972575,-1.9496006859759643,-3.503693984006267,7.116946768611389,13.766480161082711,16.221122149826744,29.05823768995326,41.22551720391266,25.40469179974155,0.4875634320705746,0.004493845884573133,-1.9461607012721434,-18.743523107996523,-19.708633761506533,-32.63095276241445,-82.22987229195918,-108.40005823729426,-94.79511814184607,-81.65405347056193,-79.33437434703976,-98.03555610387527,-113.81664467679853,-103.68504462273026,-106.17945529240345,-20.908427889418263,279.170392487619,627.7518946958589,810.2720738794214,627.7995064258746,-113.95475070778855,-840.8801661377315,-679.637764691454,-101.96356341504953,-51.16754362129829,-188.60929774281863,-17.911569254936786,80.54765018508526,-5.660068379500432,24.19834931278391,73.50512746516348,23.09589451912383,15.594394002512757,33.309349834826634,0.6127137966564815,-14.552769125320502,-4.541330565831533,-13.906812566268929,-22.671252142661345,-20.3043571399968,-19.74390165672998,-18.842112499610693,-13.591017836325662,6.0866034047240944,39.93717740622024,64.93192176141221,80.24336891688277,104.79763743437337,129.73104233446043,136.3395243212917,134.79144791598574,138.63901301518663,128.50460937237995,82.75238940857577,20.77737285559513,-28.257533309100396,-66.21895540179122,-99.68037447681562,-119.89826522448033,-120.6931301307107,-101.91982976997582,-73.88187920273674,-53.069906464362376,-33.029936430545135,-7.598434794130519,-0.04458704613076847,-9.92548188870979,-9.396722505281083,-3.9050624839645067,-1.394314510048254,9.31203746200978,6.84903328798535,-16.098058902050955,-13.149150956839339,14.992549395659646,18.59830245640959,0.8311098879349714,-15.998696894769601,-36.138057830250155,-42.96534284141525,-25.09982853114791,-12.549812526472358,-15.49142305100169,-17.143170304412564,-21.973921824020515,-32.617536511268646,-31.595212738302408,-16.938088243891826,-4.900707087309449,-4.044815966653985,-9.922031824455892,-12.229513191471817,-8.139245714582515,-6.4011049563328015,-7.273433479857584,0.08210529949748846,10.37438559143722,8.101651270590395,2.2476415250428374,10.995004718921003,16.831732055020897,-9.245063642243414,-42.772249367845205,-47.96096785003003,-59.32422145447004,-89.29771537702766,-80.19338728920587,-69.79424514626783,-111.87379059241337,-111.44388099056857,-86.16842135980134,-120.5976903852156,-4.363153533949472,347.47469560782656,654.1805104173457,807.089161205027,621.6157703594688,-172.86340860586205,-849.2348383320126,-560.6787985435831,-43.988968626296014,-109.22944530948884,-187.97440826337265,23.944362294627936,51.23402290011919,-43.605117120179386,19.72649911953897,58.321610131735255,15.573177626426277,26.336125132868272,29.079696080627013,-1.0767850612332905,6.6006626833736295,9.049121862590763,-22.427217363642416,-38.124982762604546,-36.89217700442216,-34.60219972345268,-21.69326411405943,-1.9373267927307722,25.628326927253802,61.14535507048989,75.53872966711371,69.62304978488963,86.7257865183993,121.66536074947592,136.3289479670246,143.68347890327877,149.9779608735416,112.76899487761818,41.623213000967255,-8.86970934954784,-42.25736048030073,-77.78871499360875,-101.28233599319495,-119.99336817551111,-137.10415212872869,-119.20265543231349,-76.61891658240094,-55.68038353993786,-52.782152291494555,-49.731422339956424,-51.72636653065202,-45.742271903180274,-23.190168310496574,-6.397265064894512,2.336970432489341,15.004109710490873,18.014171542509644,9.809619968832422,12.79308628125355,23.659450119749962,23.895729107086268,17.86780246525857,12.528990836376337,2.9019982387806884,-5.199278495499134,-2.3150975435835695,1.0194931334077406,-4.963224931450112,-8.53199377215059,-5.4272126057998475,-7.962996925481342,-11.079254212183884,-2.1799657112267945,6.542564780012348,4.641397297518327,3.888490799676085,7.118168753352795,5.866092937075313,4.704211041062887,11.385964176583947,19.662277502183258,15.743282903245223,-1.9628421595943433,-13.830050403313315,-8.294377172063566,-2.5292828039706237,-9.089434284507362,-21.066663454636974,-35.102883269919275,-43.83496774576842,-34.457255975802994,-20.41659493139329,-18.178441260309448,-7.893640048590067,16.313359899040925,21.936482872694306,8.292608728871034,-3.058864657259015,-21.29750563813859,-36.690466994220905,-36.47253954009228,-57.269602648816985,-90.24516333068433,-102.64763774619509,-124.76515179777167,-128.15011904977888,-99.40508477525913,-124.41599156065335,-73.90137016353607,204.8099276860582,498.247684178534,720.8725875423227,837.4061646651331,340.91564524995135,-580.983267664497,-760.3028191090434,-223.9859840890268,-76.70985362701097,-237.45529670558767,-90.14657921599547,49.60065273689587,-47.02458895500736,-54.25617595581613,13.24797233965408,-5.701592392380164,-3.042430361983506,28.485962023799537,7.575138832051518,-13.095027936643904,-10.189849210294932,-15.828527565056694,-16.17646445040278,-10.139275322315838,-13.938106583370296,-18.689123667269513,-15.351704271447197,0.5472939251270645,28.816021018302678,55.18414964641515,75.82014541690116,97.55945269411612,113.68553821272113,121.13187654672153,131.02572605638616,138.63415469438405,125.51649049528297,90.17965576696108,42.066008126240575,-8.92231575401904,-47.46021650418029,-70.74736252616901,-87.5971476852721,-94.75181438151601,-98.14919536080731,-110.8987675728056,-108.76237185636737,-75.42998584798627,-49.937705206528776,-46.37511066171302,-32.703800552010534,-14.790991115042733,-14.281942183786555,-11.468751147339695,1.6062400070542182,5.752568693538663,7.6966663227073955,17.872503968295405,20.383282722675823,13.500800976316462,13.028561310772549,15.574608922743924,14.181197230657947,17.743756725300656,22.817114856431317,15.212379508379954,6.5727717656838465,11.11941027921265,11.53904549486172,2.7174383781197915,0.967498288377735,-8.927156624449918,-34.76534023017879,-36.93740914748376,-10.900161498647059,7.688452793965338,18.166749797153717,13.950195644813753,-22.436392583680927,-44.56658396785462,-20.826955286207145,1.7320571721627065,8.035526263415091,14.111542269584028,-4.645473447257352,-35.3451205606936,-31.57954282149261,-18.61324342467572,-24.03876492071165,-17.876328597811792,-7.904799079311491,-20.57209767962288,-24.721038884790282,-6.880000692809613,0.04796550480361361,-2.8882240174992564,0.5141701483341166,-1.5966827707943079,-5.181063609476638,2.777922589176349,3.309044133940949,-10.541295542708529,-14.561671072210299,-8.80598095683787,-9.8600701862314,-8.638542314177435,0.5275638019987223,4.446162057054061,5.722655406502639,7.280187110278452,-7.25538040320361,-27.59647847146121,-23.010982352776892,-6.511957308780559,-6.294739304513389,-9.951508722585604,-5.530989114417483,-5.428502264016082,-6.379003083416099,-0.8053256943987055,0.32634711867824073,-1.525421013126417,3.3960922116022507,4.207732847568941,-3.298579573497909,-4.105575002433045,2.4481864044735753,10.913235654159479,26.02414615105073,34.1657381686571,23.05548157761134,15.379433389703077,7.628069432471175,-26.143390957025723,-49.596365646445065,-45.386119654422274,-62.3731651223699,-80.80487813467917,-79.3699342600997,-105.46930602408054,-110.17941724921488,-84.48789606035795,-126.86125852823656,-91.94868556672556,135.96586024587097,356.3313453040758,638.305757347593,932.706288858247,498.5396960740492,-500.4103439921861,-724.6519722505466,-192.54063139927138,-72.5680334833632,-248.85996036078745,-100.18692795852016,23.57302971862724,-79.82821559999846,-64.47388942898493,20.21066348733507,-1.8453934220325365,-0.4071107078569707,37.603000609308964,18.026554845812527,-3.7707613007869547,0.3632219237971239,-12.298243493584264,-22.549044388608074,-12.925793577158007,-10.487879606605095,-17.106136216565428,-11.824260507820723,6.639728746337251,27.979205402621222,51.492645717946615,73.48442956582183,80.15621412739944,77.13290288945525,84.1545805481954,94.7135005241891,94.59593590027545,91.33142714325626,84.51319065032341,61.88709015461997,30.300270994441583,-1.3712830412026786,-38.341308776408674,-75.20445483089087,-99.84778323199816,-110.742938106287,-104.93808781548721,-83.77454441380854,-63.901067801807756,-50.47127220561848,-32.299976668509224,-13.870901846280212,-9.234517775441716,-14.550937629519236,-18.71417761837955,-18.36855989951288,-12.098060201658043,-4.845551973915626,-6.393111685545925,-10.357280541927345,-4.851256662865001,0.9979060079886857,-0.5833504895668362,2.242429813179177,8.936694824395698,8.114557764820466,8.429400964274397,13.446804071562193,9.764074867361249,8.040295814174007,17.422348151305542,5.284853564554835,-31.01620392000472,-39.629214268550136,-15.958727012947872,-1.8203419240496537,3.7916188520897194,8.384612631927098,-11.927766282948006,-38.77823874322149,-30.03008117698426,-6.402937700519097,0.9476579319154617,7.157042079911756,9.823738961682412,-11.776599706824214,-33.66400666821331,-28.469677556854947,-13.79097595273823,-5.109515349963697,-0.19292950238463114,-4.570871156492897,-10.84069707213203,-4.944064091346583,0.034290481536945805,0.8254177764845938,13.77680767987221,21.21651061781926,7.327740794630662,-0.25549486988826686,5.830102672739271,6.945977318730468,-0.33976621912682603,-21.285686129150413,-46.773809844470435,-59.570968923824466,-71.372332534441,-74.599761874281,-74.31861164556818,-107.04348958607204,-118.85313753292937,-100.77838535017997,-136.7234433933492,-73.7364620044192,217.0749858290084,511.2379381118377,746.5183174599019,822.8090377416124,229.08520681619865,-665.6775712402897,-695.4401182817867,-125.38650332919984,-54.43897115674632,-223.8525187278454,-62.989602931959,41.34849449307427,-50.15474736186678,-11.772184502763661,55.2344916206782,13.517697092202098,11.63899147763529,32.05963903342061,0.8918283925242728,-6.984325761161367,7.35704228224944,-1.6742345717684248,-3.7637197309068116,1.397149674871331,-6.611674392953356,-9.438302397343724,-2.7793927817887614,7.422335766660456,23.27434766238452,29.202069266095414,28.672000829838552,52.99049256680575,90.62218915120535,107.64576991258579,116.74517771053875,130.60631308975482,121.69649334341067,84.21234917464325,41.86807246237931,-0.7477307437123519,-40.64829453604054,-71.0528912637806,-108.6422906027482,-145.2787654285128,-137.93854928344348,-100.34230111306758,-79.12515163081996,-60.68890700229862,-34.60990414635276,-37.16149336894894,-53.432789329898355,-36.99578643132058,-6.743083983604592,8.175868958609506,13.297148241525761,1.2529168815823688,-18.85754412296391,-11.891269942161559,9.32691898808412,14.891261751477856,15.3750848124572,11.487468529052865,-4.7879939363414135,-9.160653783338354,3.328978895989069,7.239801521031469,4.693459366317084,2.9772679028550613,-10.392560201170483,-24.236956615742166,-17.965142358000428,-5.4430484986861085,-3.289640955667366,-5.120234602302007,-7.475031460617039,-11.201957650174943,-8.679517436376928,1.0437146739128291,6.7959013165337785,3.6732300288523057,-1.9907125891940272,-5.425402819454558,-6.369751213043621,-2.7524501927229723,3.3080456580517725,3.7478633161227566,-0.7750181745245124,-5.542170489574113,-11.664883987783124,-13.007832482284439,-4.626973593750011,5.735283370714461,19.14179306964113,34.84651178569066,34.977826688502475,17.932243868722004,-1.6130068281788716,-15.560370995298442,-22.294384013758876,-36.506836588316254,-67.18023772306982,-106.4385725655429,-145.47606743471528,-140.77496089187073,-102.54131262537682,-120.07006631792885,-81.68517038827305,176.6774310163147,487.2686445668468,719.0513257771274,804.9480090209775,319.61864499292017,-561.2166231423103,-747.0646340380508,-214.71302270938452,-50.396103472505885,-240.21779863093093,-123.57155647196643,41.476423568246034,-27.959335277377804,-29.77755137898193,37.78645457785235,0.7388267310033783,-16.71333150600489,15.288995925514953,-0.10830945089754351,-15.220547781595712,-8.588624587641618,-21.645731655907856,-24.155262951205476,-8.253952960665316,-9.17641956774229,-19.08535793351954,-23.049835248618265,-18.80504527326015,2.847411454334143,33.38683972251166,61.212407539230675,90.05131548654201,109.00012188255675,108.4885264758515,107.64517783514191,115.02416350270872,113.35161148807504,93.75722252172861,54.953694920523375,-3.457366550330388,-59.890376941084384,-89.07751857012045,-97.56857429503938,-101.29179447395057,-99.09800834787596,-91.57176828334022,-84.61860426836232,-71.48106507029175,-47.53947122483488,-27.045569874328315,-18.428087469490652,-11.156675084013298,-1.370356460902844,5.3854089119146025,14.546406839002568,27.432784416839073,28.351083191968755,15.216659388261718,4.372169737732749,1.5582887374287013,5.078618084795817,12.015057803624899,13.144493344922857,13.666251407904465,19.411298494830614,6.790246886888816,-21.783708950544,-23.576772682593056,-4.525560662280531,1.5389289713440784,8.419496298369566,16.35072219517513,-3.8550806561141115,-30.244659862697315,-35.35894212621983,-38.09475444365356,-34.15005938208547,-12.65083968191954,-8.726857684904441,-26.719760280446174,-26.061778530972976,-10.466042485291723,-5.608495768909918,-0.9639767752097885,8.987068708861102,7.907327882145251,-0.3024625256632163,0.8257575280718452,6.142607899472338,2.140237879240207,-7.016575345545151,-11.320319768939719,-12.881735669887703,-13.906652327325975,-9.860469251995003,-2.2324820815980164,4.664565447186037,7.864650492975866,-0.3547609239774143,-15.036805804999055,-17.027555625044737,-7.592226167820389,3.054958921618379,19.54788562326717,30.812813900797856,22.906184327018906,10.843121804161964,-4.4427538028559335,-26.207299812623727,-34.249776288490615,-48.29814845256281,-79.02934236052968,-80.3033967948624,-78.39772919795689,-98.45375851358048,-82.11107551387397,-89.37444704492272,-118.272820476539,68.40306571731179,435.66143632462524,718.4351075198306,833.6285958089915,485.7365185088287,-402.1589424463864,-861.5226164046364,-405.3682792262873,-30.76774692413276,-173.76534556822827,-158.50253331050834,30.73511725772613,-9.120765427846663,-55.09401830856394,31.933834004760154,34.033395848658955,-0.2653340677749738,31.368060438717343,31.764884400279104,9.096376630893584,22.53833712986536,15.913849908145114,-21.93364343226324,-29.39571454688586,-7.877142675115669,-9.218936185854664,-34.02359226321538,-29.355938251603355,9.013554560220687,35.77533864021322,57.33464961621783,90.21019261886555,95.84135345984069,75.5511504482576,77.93371165302231,88.72736645493829,74.92216670243519,58.890598034764835,46.65920300690324,10.216492461728105,-39.80086654580024,-71.8093296197773,-84.7571935625549,-89.59938984620894,-90.40206275636444,-89.68558059033768,-84.38074433226743,-70.19107955908167,-50.843854098737914,-31.779093649823103,-16.586734132289852,-9.512264917054168,-8.355286005822933,-4.12211974904741,4.390880455030716,11.491683453694435,17.506223984950193,20.96894227419333,15.191489118356012,6.737917024977943,6.967777091870927,10.93784664985667,13.818152665251723,17.1161231697416,12.832080910271628,2.0952992023622876,-2.2110354585368626,-8.478474325319066,-21.965784122210415,-20.72768617893253,-9.31744851442107,-14.75498108222689,-22.486016595022743,-12.376906253778156,-3.393443681920621,-1.6643967376481799,3.77592258730139,0.7303843149500562,-10.641798662255205,-7.5740466855454445,5.065260242455193,11.154007180847021,13.881909819325266,12.5514884601663,8.968435143423875,12.745969139894656,7.842524520969857,-17.11812844432971,-28.42671427689423,-11.40048693674549,-3.191648824736113,-12.877333632014881,-5.226494216807046,17.638352068992262,20.892027917325095,12.448505068088147,13.427984815641087,5.8154660688054935,-7.650003160836661,1.8294966387787879,13.597972635414864,9.226141440520216,8.769370526811807,-13.712428384167358,-67.2900240006835,-87.80675861658905,-83.58035484261013,-96.98311577627655,-93.82485091627476,-93.10107950080953,-121.78115711115865,-122.88424127324332,-123.66367679632745,-94.29289005480771,154.47940151858762,556.6403512211782,851.7760620875191,843.6866769567607,249.69751336831862,-658.7125391699674,-851.5199373056571,-278.0046623493298,-24.1942072449972,-192.10685316007502,-108.06165882319449,60.05443602975166,-1.284766377680306,-12.836829015725854,65.93804450995559,39.58800229188233,9.339174809880076,32.77999906899359,9.557643709987211,