ECG,-4.005466932708714,-2.0083273650978564,4.163568799501244,4.508882012041044,0.15233424933864192,1.7264354978723757,2.3442732707006853,-5.529866062109084,-9.766073750786061,-5.043303068602746,-3.441747372559549,-7.033135377426682,-6.01512755920938,-2.212410776457576,-5.1623332474506505,-10.774417169857253,-7.939429182682488,-0.9461103855433652,-1.9991522069798826,-8.879734621632606,-11.097812264165183,-6.248301075693667,0.8381911873686025,3.8704307290471016,1.657046478685257,-1.3857981056845912,-5.505928685042511,-10.307631037489704,-7.8005210309490485,-0.6445860650799382,-0.38865770990436843,-3.01021827188959,-0.771273583729081,-0.4543114468143461,-5.146190390137253,-7.329164450527697,-6.252241101865281,-6.33667662384887,-5.0609686053362966,-0.4292327865204202,0.8949094760746954,-2.6277937230811643,-3.9108798513140535,-7.295649090764128,-17.433550486661815,-15.267545878896316,7.1160650465087905,24.479361570580334,26.65775931937383,24.652994175557502,13.523391832369901,-5.9824182797012115,-15.73387387515377,-16.6310536616371,-17.769814515835193,-17.553971711690565,-23.341972602760396,-34.96197348144319,-35.6297417926082,-29.321186593090914,-29.035463541721356,-31.652086458156127,-35.339556522813865,-26.046602302288804,27.06649070386529,131.22538308309333,245.87801776371114,252.76081757691983,50.221662529728434,-209.15327908163343,-248.1331430004895,-99.2408959150444,-12.226568724877847,-23.22736962210528,-21.671078136251957,-7.089544682438039,-7.532990223556467,-1.4016802882260482,9.024282837874836,11.915844791662629,10.988407030199454,3.3311388485107924,0.6307170434333056,12.983412920912782,12.921870761450506,-10.565256747945725,-26.536640707473914,-23.391250791480896,-17.531820033718734,-13.873451819763494,-9.984061414510572,-9.022561221093273,-10.437235422525072,-9.714413348767629,-6.102818293380604,-2.551415853016198,0.2769850351934715,5.5647409672906845,11.476801054446067,12.915394641129904,14.297807208648063,19.078837321195262,19.404690948249492,16.186782101905607,18.633287887839515,20.021348644946507,11.02207006397935,-0.8359455777595972,-10.85635026353944,-23.696846946841106,-32.31438531142541,-24.948331969098696,-11.15036580044338,-10.601755539903923,-19.012255074703077,-17.186103464447406,-8.610167187628546,-8.00370996369287,-9.961780685153045,-7.952822249410662,-8.313651424973635,-7.262377837491773,0.09698488572070474,2.8902144013290343,-0.17557611002108864,1.306101122269399,2.9702239263312307,-1.0931269306406737,-2.436546681961696,1.206350666697141,1.9977672609711075,0.6097707504761476,2.698615383647302,4.46748786143692,1.2221866218418302,0.8346593404099845,6.617933584045123,3.8999728995847214,-9.894998655561007,-16.03480909339126,-12.050192227003336,-10.668440277981823,-10.384492750276678,-7.819734335285759,-7.403571745574849,-6.845128280537768,-3.5036239561658054,1.0516629557397055,6.933194172705569,8.21555454327701,2.657339056503993,1.3325588824082812,4.236209307433446,2.398716143314159,0.8027437779514468,0.15725418836007243,-9.420029005405393,-21.62440794851893,-22.201568107555744,-12.872446492192335,-6.336369167551464,-11.540929661905237,-20.905608925006362,-18.078167392200143,-6.1373416833732115,-1.0710249274243449,-2.960274705189505,-4.7986164604681285,-9.21781851611156,-14.717069498465523,-11.334931102249412,-1.6565092534226613,2.1670984602420127,6.20616355487886,20.25691384680842,24.757147461613414,5.925627858079693,-10.180380936467309,-9.915824467274104,-13.796072212051897,-23.782255555489918,-25.372220565232546,-23.040993854170644,-22.68822957943445,-22.87290414308518,-24.766588776939702,-24.51114220286601,-25.895559734259972,-32.26309865776209,-14.625354540984317,47.73811071617972,140.22125789558177,229.45607028037995,210.52199760763722,-0.09861473622887473,-229.0190299194131,-229.6570726737036,-79.86615175004134,-6.646291644544558,-9.330953654794914,6.466531484085255,18.203231467409758,2.660378625836154,-5.201133521561902,-1.5504698693956698,-2.9778833056137533,-4.634701512407591,-2.7246733556873552,-1.2035246217589393,-1.2265124780755308,-2.947976753668007,-3.8737858113455026,-3.7064103706675215,-7.831347457126105,-14.248957641649634,-15.168095853826792,-12.027451763783692,-9.3562769481517,-6.639479083428782,-5.244024790031224,-5.187771010350922,-1.2944693814230148,7.011117511940878,16.172369367742675,21.092577584285795,12.593258691990204,-4.25494822711042,-6.901645877365168,7.791688149377288,19.0402550338328,16.49051204387012,5.553714763886646,-3.7903098757517917,-2.49621191533366,2.7820353101700146,-4.495029422487287,-22.019681215206123,-31.52458270740449,-26.497628785782553,-17.066928483028757,-12.738901242059972,-13.09464541494991,-15.459078072551488,-17.834740619660494,-14.778547516955218,-7.026569597784064,-3.0415702227078008,-2.3223962545470798,-1.0865609925862731,-2.993741426676813,-4.975579987363767,-1.7981975019446246,-0.27110333933242003,-2.1253102171125366,-1.722459582825989,-2.062188172588943,-2.5883293821817386,0.8778008555762913,0.4061898355134925,-4.192881971110636,-0.8002257001558792,5.4654483548401975,3.5924604052988975,0.5834528769190621,2.177512771892359,2.3695698188398264,0.624094684423083,1.2329120736530008,-1.2596348272702897,-12.416904479251375,-17.964480421521085,-8.789657817269205,-8.73343787384695,-24.52994112927277,-23.831375267172366,-8.856669525474533,-11.04478921274395,-15.57864640460888,-4.396639826820257,-2.804806301932132,-12.429883013119008,-10.12126711851337,-7.354561714393906,-14.530845729377445,-15.452224582636005,-11.827310092610364,-11.365766791421386,-4.504639223728425,0.7295570445330188,-9.1848907730588,-13.853454861173358,0.8918828075966143,14.69026009104024,21.027275783004534,29.493305667217335,26.1834938205376,6.100223158092511,-4.921436219069754,-5.12148599875534,-12.644800460567907,-19.50970967258695,-24.307067698530695,-37.83145277108205,-42.1717067038534,-34.43790980883076,-37.59247339091971,-38.26510129593206,-30.790418149436825,-36.85798997131667,-23.60254204684044,39.74478050038945,127.54236178035822,227.730853064063,247.51528102574053,38.36481705100232,-245.13706910185311,-269.76481168902654,-89.7563449669938,-4.837498607806733,-26.14895153521254,-10.111686601952837,18.32203453360568,7.761139540437679,2.1787231967060916,12.309077288275509,7.12376088465308,0.5983019561962477,11.805343047521788,16.62581478217551,3.9052488864004724,-1.8611271959923599,2.77607458040126,-0.827676528560291,-7.773062701306535,-7.7274750868877415,-10.398461957981597,-17.76475717660355,-19.248080914701635,-16.186117164480684,-14.393062337444759,-10.516525597892347,-3.4268855941005842,1.2273866698650489,3.4107613466023308,8.312969778279367,12.198276403153155,9.089391961684285,7.3381773681371705,12.09439247195009,10.692159829257514,3.4723404939566525,7.518138149213488,14.450671804648973,3.347632608288073,-13.162859991164634,-15.257893621236592,-12.948542929955416,-15.002497326665676,-13.279856615270901,-11.353821225545477,-16.512867585409943,-18.33550674950149,-11.763119194101778,-8.277081084496334,-10.379433783411013,-10.097439680739493,-6.97328435194542,-4.896710844451242,-3.507295434365613,1.9572775644883347,12.74869266975045,14.850613437733138,-1.1572975217796948,-13.889742706259069,-6.1076482061280695,5.0246443947269075,7.266137014437271,7.18617653734018,1.1360397376576827,-10.438716768680719,-12.153549028896041,-5.84760318411916,-4.675654067601769,-6.095406170096882,-5.840453692155332,-5.7875740834382,-4.390071963843171,-4.084167768603326,-7.525285010236242,-7.579974793595765,-3.3122656030231177,-3.853869593133062,-8.163338248877064,-6.9563465806956,-1.496558248924222,-2.0279128801818587,-10.617978699402236,-16.578342744400196,-11.630287252210369,-1.9586517795291716,-0.2587896960691758,-9.262897540020862,-17.248228640690847,-15.351816963054507,-11.569283490618743,-12.746633657072076,-11.53546615270459,-7.277057801327361,-8.952296560839414,-11.697681294506506,-5.199359590847711,5.5741483038238515,14.871865695849653,24.68978858442825,27.055688126568263,13.08925044637688,-4.468385240350989,-11.263761646464275,-13.90647476383891,-18.89318889005454,-20.00056580803349,-17.06660358004604,-18.58705245433128,-26.342725378430288,-31.054420005940095,-25.57516737696292,-21.854348621495852,-28.945747783575154,-20.21340301881646,34.42397782946726,134.85705187042464,241.28449618418313,231.31792489958957,14.212193914230681,-232.89805106945292,-244.5401817758073,-85.57297325765066,-2.6438027935901403,-10.279369444545452,2.8362329467626672,23.23769925593249,13.74682322781183,1.5634319802556123,-2.095026207977397,-4.231368091721421,-2.0590727300969762,-1.7559834580801015,-4.946656608029421,-3.8431399937179833,-2.6996362405970977,-6.2232407495185225,-10.151536809274063,-11.188360842643812,-6.796688986292641,-2.3616204663897005,-7.370325452515033,-11.215789562735388,-1.3056449133324164,6.786528079022215,-0.056882193214432775,-7.702611541106131,-4.369461500614641,5.6984426409258235,15.369777927134738,18.51509649296229,17.398313897455544,18.673334238852874,15.594141934862558,5.350998584796989,2.9517047725523295,8.225308278672099,5.329736916397321,-2.2733740681589323,-6.07825673676075,-12.47067968172806,-20.360166134048686,-20.773219934422116,-17.112130874696664,-15.96544087039946,-15.052857094665967,-10.724527679694864,-5.967601186632326,-7.300259752686674,-12.130780269755817,-11.498223404724872,-6.800095645897413,-2.8268350747961577,1.2198820285628944,1.555201177820643,-1.1361742488868725,2.5266798298099786,5.937943472998411,-0.9209066039800788,-4.956346657154084,-0.5819484232093357,-2.3025380226390206,-7.605857650343711,-5.285231008585277,-1.7795102895115544,0.8994410968422555,6.77994430693122,4.994023246303797,-5.1036944520001555,-6.045029954867821,-0.07273420309114442,-0.3983844230619127,-2.8086574783792253,-4.945924122693617,-9.738164514242508,-8.504586894005065,-1.630813995153476,-2.398591966217177,-8.283402735039045,-10.011564224399134,-8.112198735105046,-0.8575541219417175,8.99161421688236,7.626538656050715,-5.038612747172126,-14.301209037299554,-15.420000447246476,-11.817471588033339,-6.882797753895019,-9.136753247492393,-19.435532334713333,-22.68127314201298,-15.111040148063232,-9.705181495186121,-7.917295898770545,-6.420541521115663,-9.083851325740579,-5.498460916239776,11.590615648999648,21.45243423603047,17.935513274934543,15.889602449855154,7.0481164289044855,-12.9790897576385,-22.66432878083185,-20.693066534542154,-19.423994163679787,-17.02324503432264,-19.135214207097633,-27.104530710177972,-27.663313968292414,-24.68019369082632,-22.0122078583006,-16.588297009993646,-23.838018305031905,-28.14122917006741,16.066550192021218,104.18456052248635,203.10232924750616,240.4062417074727,90.57710914600548,-178.18360200931585,-273.4679341543544,-137.5281502884509,-17.933548635687956,-9.48717080637715,-7.427618659174524,6.970740769330188,2.548429858652117,4.692645524239213,15.104529191141982,11.067481049902963,2.890711323520309,0.14449026037286572,-2.52492362158067,-0.9788305048480961,3.861938137013393,0.2213663117124547,-10.058662864770636,-14.381859438532146,-12.053858732381451,-8.843573307810807,-3.4179252470683865,0.015774466400621634,-7.450945374419996,-14.704958772524318,-7.261392816335602,1.7137007162378304,0.35360179500238376,1.8632845476674722,10.716719604737547,15.625614223177223,16.96093527092647,16.328269706912558,7.457504826714669,0.6888389989621928,9.818193091657227,20.33934105205689,18.0796436897023,14.732579568469538,11.610797466123811,-6.185504173347706,-27.636638486377606,-29.000084884932164,-18.588093793913032,-18.332127062555262,-26.52467654526269,-30.121949826724247,-27.148157798795694,-22.86451589999985,-20.055145788775512,-17.13004585078852,-11.737757283763367,-5.363158237650243,-1.4384739218355342,0.3257087701650434,1.4115133073253965,-1.055184923682564,-6.24457068939385,-4.545491003014496,3.892774047703613,5.190129552536021,-0.4919741381452285,0.8375476534904625,5.822275614921923,0.5864343182316372,-9.083781837003416,-9.285888452390505,-5.293942640857557,-7.4566027278803375,-8.002438907156746,-0.014629606695404362,4.043398554377429,-2.7417379906976205,-8.920023163908514,-8.132801445186313,-4.056056907771822,-0.16417016593695521,-2.1656617071226467,-9.61263855221708,-11.413833236807179,-6.451300282739005,-4.357139117192419,-6.843491373980967,-11.393970226952618,-15.840171721601486,-13.887089603521805,-6.8911266030220375,-6.045348205130578,-11.734415751300151,-13.410092670966305,-9.50339502353121,-7.487544840373843,-9.947597320307441,-13.131992094624723,-11.519562239527716,0.38329061646409013,17.28519537070945,22.159938716892626,14.504465707809109,10.218113053042604,4.133980700545383,-13.025713183413124,-20.194535562147486,-10.822366921204807,-13.973686666649993,-29.81746373350059,-28.345350602360732,-16.051440862541945,-19.849237142129063,-29.311817581127873,-24.01629881797811,-20.845722233487937,-30.945678108786154,-19.377096435293726,35.85019832629922,122.4581128563828,222.14145144673506,234.53725416510028,36.02050492447506,-231.55801290679454,-270.8263037368147,-108.95625031738275,-13.149738758542966,-21.694620534687473,-13.720856205375803,6.0239029838697,4.495554712214785,10.35758659769175,16.446462615810532,6.583892401127047,2.9133515033521364,5.65592674383482,0.9605345584296732,-1.9430332263736307,-1.7400104633412532,-5.801714231056785,-8.602110801402276,-8.29522321580717,-9.581309581968487,-12.214954125547354,-13.709471279595522,-9.425845781456287,-1.861591544760996,-3.50853791174187,-10.129151212414863,-4.835097849814547,7.051500082323775,10.536999057958777,9.295325811455946,10.584701918435474,12.06172008045805,12.573699323239941,12.839665872721719,13.407796604330471,16.75543692562456,18.670651643527766,11.183909525152197,-0.49116347524735415,-6.682970688316923,-10.062165358477403,-14.630414646828843,-18.395868328953355,-22.041081738541518,-24.097972538184727,-19.665621309805545,-13.256855874624764,-11.507658105615562,-10.7674746727979,-9.104980047779456,-9.897766518931888,-9.557229315864852,-4.114404439570679,1.8497304100958774,6.1366437896596295,10.901511053865432,12.05760386634584,4.8204516092495995,-3.912026979764912,-2.7616073199589435,5.107268247622839,3.572300715348839,-9.405951666970347,-16.918429637284962,-12.966537602320493,-7.217436314639023,-3.757625333770692,-4.40422991909435,-10.59942812339844,-11.585042816256498,-2.981800824565548,2.639137113497216,3.5106795858289717,5.469267938648024,1.607251331145438,-6.586528627926742,-5.954347615143907,-0.849721096094739,-1.3972926852998384,-3.498395789835424,-5.892992143021832,-9.497098168693807,-6.802984914779024,-2.6313493619040145,-9.289184847892916,-16.688619012234,-14.503218852520288,-13.46325652629068,-12.363972681940378,-3.641475650356453,-4.888503398395802,-18.205670098318002,-13.220286092279068,8.80392939262903,20.62878368067196,25.49524836199941,26.469619913465166,8.526713950452498,-10.946398757077603,-7.877989559891848,-2.4494389104265233,-10.810434825090221,-18.14780355673216,-20.576393060549094,-22.792451328921977,-24.227633691696596,-29.056972696903014,-31.304081984750127,-27.731635746037043,-33.5027718801374,-30.851648528149507,18.33741535250452,109.53602904481784,215.28565101784142,252.1183917194052,90.14072362274928,-185.09022837666558,-273.9870538506782,-127.72083775589621,-2.507095401096654,1.9337724455220275,-2.4749580194877083,10.422683461402777,-0.3647659673954067,-8.459926940039761,3.4056796526594706,4.243777294072198,-6.848296897235768,-4.9155966884827125,5.803688200864596,8.604868554117592,4.341409790022166,-2.2439158365487692,-7.888860801138988,-6.107941801700974,-1.385163288053949,-3.0672326595451445,-7.155871118744393,-9.27766839278356,-10.23002333253393,-6.958426067868222,-0.7748205744580279,5.942863669175586,12.40443339229213,7.303082436953223,-6.514856797442794,-4.39366268918862,9.061259918422994,9.984170040219082,7.555229646107924,13.61857996847618,14.901590284140388,11.530335260819644,13.070452190148727,9.444089683199884,-4.212198941145301,-14.896146540045084,-18.28804347837574,-19.015315668129396,-16.360625078093687,-11.585015348865973,-11.038814027324692,-14.854142512167687,-16.152983927157756,-11.937114012212847,-5.323022143854526,0.4031316472693609,2.1284661611028532,-1.177593206121804,-4.382326246611986,-5.300445833405073,-7.484772543254433,-7.403753939725413,-2.252167619181268,-0.9216649048875345,-3.781671682754453,-0.771856988248877,3.55466245312469,0.5806448274464016,-2.503064024211638,-0.6795225156318168,-0.019310486146114414,-0.41632388918803187,3.1527723209063003,6.300787094051833,1.8433549531456581,-4.364417635192855,-2.2374885127678104,1.5047449500471535,-4.338615855129568,-11.253302092127228,-8.258971319306092,-3.6977650415249066,-6.1588851301806935,-8.16685047812542,-2.4758073601364288,3.5298717980945096,0.13077208596219947,-6.455853208113199,-4.723948435780293,0.2832371975064536,-1.5894330406261385,-6.325063169221359,-7.350808561068867,-8.124688540041534,-10.82528751411412,-8.063834023372564,-0.4545050405850013,-5.933615676590652,-24.49791655061778,-26.996436322821033,-8.877414423025627,5.4441065434876,14.829103629302548,22.790829649183905,11.753234705677794,-8.316069508300057,-9.165131054452965,-5.484931716744859,-16.874218047450242,-23.406034604183937,-19.977062576142888,-25.648027160497314,-32.0084902288499,-27.522071621070793,-23.81158007040325,-20.236645343759662,-17.9029644569976,-27.269331876037185,-17.097471079170532,45.865921493036744,142.46421270985192,232.28786974673653,214.71844169729079,-3.2317390272591027,-250.83350815455483,-253.10886960124537,-84.10061003319642,-4.1119213399306105,-16.9326486299585,-5.370034231778458,12.270498387747299,5.329468587158125,3.621598076020248,8.308705282856833,7.284462188105667,5.964284923907143,4.640589418801926,5.8244487892429095,8.684825869854336,2.00182566543897,-7.588132753511799,-7.182174356494716,-5.7283365022994275,-10.90046567004788,-14.739700769407687,-14.04237564819896,-14.25593266456138,-15.979044959881605,-12.66610242002482,-4.630663675053686,-1.1758056554267604,0.7150015164375096,10.313832653416604,17.198952364966285,12.182250754915223,7.888580109626921,8.844667815202305,7.342138437531335,9.860749474673074,20.67970268589449,23.075079884732055,8.173558170562583,-7.905503325803745,-11.576178461032713,-10.689413796939712,-13.886245642250014,-15.42702895404867,-13.75534850643935,-15.657421350330369,-17.505104920652393,-12.966077107149033,-6.49582731669835,-2.9202360076174596,-4.000540239758825,-8.211140970420548,-8.683306370360434,-7.100502502989869,-7.953527951631768,-4.289664948405564,-1.2230885180842268,-11.841298060434283,-20.538228967797373,-11.320615614017903,-0.5232974128321448,1.474132189624413,2.251466688090032,0.5422753037573358,-2.8214553067916874,-1.9148141220244437,-5.679673438004524,-16.659060943512046,-17.12094353316654,-6.2040887385816905,-2.5234015000830468,-4.977914939512164,-1.0317812806921935,2.8426003443371357,-2.3625135127562906,-8.650420818970279,-7.580330402611912,-1.5457980902697717,2.737001963463155,0.5402205164356744,-4.117304788822169,-3.399923593281696,0.48196907908967646,1.089978293496773,-0.4975972956658463,-1.5423323739976915,-3.8239264761770944,-10.361415977769937,-19.038360911184263,-21.2116978971886,-16.25730034894503,-16.0694679039907,-20.14825017270907,-13.091436643901385,4.34814061347422,17.25111919231705,22.98963811960621,22.40781578390972,8.024298484106433,-13.268892080662027,-20.05737355826767,-13.615480977548517,-14.856197391442738,-24.161888646562385,-26.910001394496028,-24.24092887755129,-25.301661737134477,-29.73286594821264,-29.18233276963652,-21.54262430324077,-23.718429772418254,-35.710955390864385,-17.822060793109063,42.900852473758434,130.5025636617934,237.20797454738036,251.9561875270819,36.10839588410428,-236.55014477011548,-250.90373087810892,-82.23789151111396,-14.538215727261129,-37.13140544309916,-16.367290916367516,8.861973645669575,0.3020599608293306,4.331539660230825,12.797461053738317,1.662340467085091,-1.428153641335978,7.703827564655079,3.9821883440148413,-6.08071898968204,-5.863012716794261,-3.019911675224149,-5.743288018504153,-7.266468690355117,-5.906382915250509,-8.878871586527191,-13.518428766215205,-11.659823360609625,-5.515898996295585,-0.3289440778335626,2.3133590329679614,1.3923218353396833,1.8324953098654393,10.053976791771547,20.362406540479416,22.04220164424293,16.380681225229708,15.632378144838656,21.678862657710216,18.858358702802636,6.183559299693446,4.2535277876055115,9.45395268038731,-0.14554317111543202,-14.995436838775452,-16.973104201599675,-14.155812241593889,-12.080466450254912,-9.99141586423795,-17.168079590201295,-26.595110714905623,-21.18580049546143,-10.699973896837115,-8.655262987746136,-8.704385213750273,-8.525509529288026,-9.340218160626849,-5.096651414973289,1.0017660133183766,1.7686219933198233,1.013587336359743,-0.09337594434860996,-3.271945792300113,-2.3125462393434573,2.443693718882195,3.8610999013057166,5.077550416149534,6.637369602073367,1.0324349454962416,-3.9422310449150957,2.6533340515191615,7.759995965355111,-0.7475386820648344,-9.918150319563926,-7.909102397411221,-1.3920118435328268,2.1310501138193225,4.370857113208604,7.2433935958387,6.8051999589374335,0.45145029946278115,-4.125202243748047,1.5804491142650856,8.819855311531578,0.5671001039704127,-18.98474816071399,-26.91395804933804,-17.94108895596387,-8.67158714237874,-4.965585518755001,-1.370562414604743,-2.254819102937004,-8.620319215412701,-9.336478272850501,-5.529586646086948,-9.114463533592632,-17.890260366372452,-21.047123632607136,-14.41859338480017,0.11809330772740623,15.38748978696999,25.07002225635606,29.15069475257102,23.836526834924236,5.228446642274909,-15.392830120836354,-24.371549464621488,-22.77261050124693,-19.469268703523927,-22.115569968449947,-28.26045359039616,-28.335815218171575,-27.930571178207973,-34.00528485337264,-33.62452341526248,-28.957085033817823,-31.654497831072224,-13.469763605416958,53.906376234988834,156.58692364323807,245.3630553888746,202.82909404387038,-32.92280680654078,-256.40897854824095,-231.2496438532961,-70.23826319861143,-4.4575489005036,-14.8318342052249,-1.4384796443207186,11.796283428425333,2.901646007520423,2.474837919104461,8.514934272918158,5.281086625855911,2.942023672262727,8.774225312427069,11.916289734305257,2.172897754729018,-12.000076596606814,-13.396530850584837,-3.536625480178852,1.9132057041387727,-1.8623283480770976,-8.512058642241504,-12.270775270711187,-12.194342049003213,-10.677847041506492,-8.14479138412537,-4.397978426430429,-2.5002314572676267,-1.869552084277058,3.643405876740079,13.636242206954027,19.12038044831427,16.48147665369938,11.148156247945026,7.060712693362815,5.414406133530612,8.247177172007735,11.411707245804788,6.899504985732157,-3.0517602507179014,-11.020981127147051,-15.754469583666626,-15.824159170822762,-11.877505762062189,-13.510831330732442,-18.489417771366984,-10.205910824945702,3.0529722706573157,-3.3273121173489812,-18.509647986600342,-18.260433339415517,-12.935367723716187,-13.84650042154727,-8.953191340030854,-3.0141063191321997,-9.241868261532392,-12.596608734524676,-4.348649925691191,-3.3167439879579472,-9.463046771303492,-4.574896495390318,3.1878346441730123,-0.8452446698506595,-4.3506051626878826,1.171214387554019,1.4523854502154077,-6.696137207427138,-7.9914432977456,-0.26352085528520686,1.954045116858885,-5.704658997050288,-10.255224450403162,-4.256098970840609,0.8292700167837497,-3.643473107902995,-7.004313365664913,-1.7208576302037208,2.7860753482479206,1.658757093134521,0.6119608773023097,-0.8318272359915468,-5.695454549949673,-8.264273534791407,-3.3392325794018314,3.797404508904326,3.499662033559625,-5.617946017516886,-14.373518722103935,-16.686124835022174,-15.733883715961547,-15.659741892210107,-18.622404818455312,-19.409734151715103,-7.549220686793817,8.390298776968208,13.115609701462919,18.57102501455214,28.324415340286144,16.3613097644676,-8.532059948173629,-9.522862945305619,0.5395305394572212,-9.24115629446801,-26.676682647008846,-34.615844780137586,-35.566679811460574,-31.539499791622774,-29.201094815955962,-29.07465617979567,-22.60215467754371,-22.11729580599791,-25.320620010837143,9.243772598095177,91.02234145273752,186.85441127721575,234.92585288160222,124.8401343670762,-128.7876230253837,-274.9930467293612,-181.12125457607624,-43.786396615311524,-16.066872126825906,-16.533531297233743,6.4962615590852195,10.077299842906903,2.1430623043710106,6.578790395469892,7.479723527431492,3.0993500068494004,4.7551831755085425,5.884605238951853,1.2159981357815202,-3.5905491864467773,-4.0095727085659245,-2.6443966785307307,-5.199857201679352,-7.676039679812591,-5.145033841951921,-7.72771278543104,-17.228537937674385,-17.5010356096649,-8.231714274626944,-2.829738081204045,-1.2217486755331741,-1.8203289394604534,-5.090488470226246,0.725463153293572,15.550284933528244,19.651903894897824,13.22963640034593,13.04342637258181,16.38201419416292,14.217637135907566,11.844174903049794,11.953742533103346,8.167595124705205,-0.6549363476236527,-10.371622671315585,-18.935380787728555,-23.176695127968014,-19.85705053559489,-14.85594685915461,-15.456785767031896,-17.14418696778193,-14.91887298358698,-11.474296125504925,-7.945650327502861,-6.408375706653933,-7.555800346245366,-3.7290381389179004,3.1012015631947474,5.068499404443296,8.650090766610402,8.16526706542467,-9.673661665376533,-19.58286399659144,-4.085519322443721,4.08840031461304,-1.3655707308414335,4.388113573260219,2.951332683461839,-15.83711699382128,-13.689892362398549,3.5691351491432552,-4.910262704482289,-20.16767232140102,-13.833477833731425,-8.752540111971694,-13.18870396963293,-8.991382323903641,-4.0385415543969785,-7.091701909986146,-6.608534005617377,-4.638481188038977,-4.723841847709473,3.309468527827688,9.718749537291796,0.17451889235487705,-8.842981320775301,-6.543593626317467,-4.874022680644494,-3.477734936007317,0.28798138868514833,-2.6224491887119914,-8.475156385570642,-11.718422504822627,-16.52528748267072,-15.824954183395363,-11.152565874681738,-16.870853223601376,-17.14123132595268,1.6548053436288592,14.336756765494952,17.784149351294914,27.659405502630882,20.174454273558524,-9.954804207315144,-19.797310120896206,-10.562565676788553,-19.30899372904236,-30.992309931683636,-21.47373563400049,-15.854693608793015,-26.996857414120903,-31.092683307619737,-24.74879971159148,-25.695592044216472,-35.99171338899144,-40.24840561454782,-19.666959763201405,26.110624983534052,97.54817653431758,208.93922716443177,266.56518147356775,100.1982052642519,-192.70767608352006,-283.6878212587475,-136.27544959469785,-16.043012750346065,-10.44239300030446,-12.768826595718647,4.3636224833429935,14.12391934146267,17.71310795422999,14.551466221129719,11.736252184168212,11.444447117104255,-1.2964357751109326,-13.228380925622833,-8.388521983484866,-5.0630173097190685,-7.802254073464354,-5.940019683982628,-5.617917710735647,-4.754457687528021,-0.07692568560872282,-8.453374751426956,-24.322909533099697,-19.566583125279422,-1.0898493205789848,2.057844693471491,-9.13902107655599,-13.76800230468545,-9.944145966724712,-7.913028446233446,-0.5387903186998648,16.55211622047807,20.241481987386507,5.783831090462786,2.9596136030135667,14.047315282189148,15.45938413517714,9.451286784592723,4.05810599209037,-5.028020971210507,-10.089062699257605,-9.197055102069534,-15.20604092164258,-21.6607180143819,-19.30088381345918,-20.573848536806437,-25.26209906119497,-19.720944782239556,-10.18811523075637,-5.809060411252501,-4.024809130986727,-7.060192446261233,-12.064317255144857,-8.218088917553173,-0.6112348249670383,-0.06699082122858613,-2.9666682917027476,-3.790755813486359,-1.6900329630758684,2.4529183028644805,2.2954908971369576,-2.7465866935948116,-2.4618152835275673,3.9872671167420437,5.9383326698347645,0.7148352569709466,-4.711095512110499,-6.04130859531676,-4.838853455454477,-3.1162815617047075,-1.803451289199474,-3.110891882660379,-6.519369239534094,-7.261766673845769,-3.3946251987815756,2.96406410598789,5.851326013862398,-1.491986889050926,-10.960675016381455,-8.607270838041414,-3.8446232894253214,-10.59267356333024,-16.920032705227268,-11.570621733041834,-3.8966973095278874,-1.2276073156902978,-3.6983789506715343,-9.737823073388483,-8.480852307220225,6.208501735209889,20.301591605749273,20.27056841704639,8.515825519988248,-7.003934668133322,-18.109335823791763,-20.556481590698596,-20.52444752156632,-23.008838430782518,-24.85997308280124,-27.157753124154745,-30.23860350615982,-28.016955238542593,-25.833597667304346,-28.861462832697875,-26.91167263446613,-25.185642040253548,-29.44872162963261,-10.113334847528744,51.39669784576334,151.21417115506765,259.46802399986433,231.6078535609126,-27.696299070891612,-276.32410857125274,-241.16683520934646,-69.4642037219427,-11.101776911376767,-17.285113099953243,5.866901426850518,11.29708515314525,-2.47158421055231,6.707182602501272,16.180954753105183,10.151339123185803,7.457871932958751,6.092889729271952,0.1628000087072321,-3.2379251616011757,-2.910802148615155,-1.6763434184007977,-2.478183764650753,-6.457905105185495,-9.514040858125655,-9.548922301157152,-6.433335345949136,-1.2100707686815455,0.860099425396148,0.1307522210614105,0.9333632499859984,2.232625729396262,6.942685094133922,16.169730735065965,17.818117087173597,9.261633476525976,3.1315042279073704,2.5704335021981124,5.3047867933854675,12.911032962565562,16.96337744918913,8.972951763745492,-0.9485951297778588,-3.4223198206600034,-5.247359446335733,-10.882973308557677,-15.035822765365399,-16.009421622511525,-16.47311697480251,-16.33627451360143,-12.888511642238756,-3.1518624127885353,6.76687925840733,0.981892619511159,-17.99049518710409,-25.303781187714907,-15.666252625692527,-7.537287100741363,-6.072915944002599,-5.174516374850919,-5.304555100038584,-4.574047381891791,0.20563700392342543,4.361939619947041,3.545834070112468,-1.3927202411810207,-6.353148644821264,-5.2174323003006045,1.5833605687385792,5.652687440892227,2.7637104399965073,-2.2961715508613025,-4.210834471023501,-4.918409691753276,-5.986647166741221,-2.6514694395417866,1.0427136063854938,-4.4393259840725126,-9.97955688406798,-4.521049137849998,0.24264143865572674,-4.7271632349648325,-9.498806483572356,-7.698229880412333,-3.348647594714537,0.5102267422393507,3.685558298995414,5.319073033301062,3.0706065842539862,-1.9786188566130516,-4.767110287879979,-4.0607573140853415,-1.0772647017001145,2.420907507099246,0.6316731541534129,-4.187437130728139,-2.0579176441025417,-0.668943425226022,-11.792340725517732,-19.983493501513585,-11.87494785959196,-2.694640581510175,0.6487060515976664,9.665836555425246,17.53599102791314,8.02318667834351,-9.382519010740872,-16.120460845104553,-15.428172631117766,-18.094167459697335,-21.486477744738615,-22.55678141304777,-25.18890755861047,-27.509692479294074,-28.304014440342385,-29.100498321718504,-23.418987219657684,-19.216922719986016,-29.050155208676927,-18.684927341972575,51.05763541870196,162.99970987370705,255.54340695792962,211.40075131267542,-28.407436971437683,-257.74325247937406,-230.58802875658094,-57.7077578352899,13.32927819408477,-9.366801717340952,-16.565073798694286,-12.295667033394444,-11.156397567493103,-0.3419765091917233,5.199242372335084,1.5541306266259554,1.482737386383957,-0.28243576921145674,-4.406619194776136,-2.1071929779890866,1.3190730440539635,-1.9107428756708007,-8.096192360681306,-10.456556986243564,-8.616820618123437,-7.895899515765356,-8.920261138318837,-9.129057579639063,-11.057995054666904,-12.503655562230064,-6.903789698207375,0.5972550377507568,3.0613710363764124,4.826004885883739,8.437967032708126,11.283552186436113,13.957039652029216,16.7810239721817,20.347218035894688,25.879867284032912,26.173580085758807,16.309865008327748,6.883020048158008,3.098837533111437,-3.7742645086722906,-11.865217789204968,-14.21401255874617,-20.26998852217228,-32.38809365760362,-32.865490620910585,-22.26024218389719,-20.25639416975102,-22.16480391539627,-12.227826443025915,-1.4412009873033806,-2.892060666762699,-7.564744658744949,-9.54776389698392,-11.073383916846106,-7.785354024815081,-1.0124364131472277,1.1757182092307197,0.3098634075003144,-1.1960581887486672,-4.478187286353995,-3.577819820146387,1.574377900480016,1.8218824832177338,0.6146536121444885,3.5492572655284005,2.7107532651430586,-0.027004622964355462,4.738915330705927,6.391104294787066,-2.797621129284492,-7.315579654496219,-4.0692535734421345,-5.383372137300882,-4.917500083126074,2.045686057322113,-2.44489297103992,-18.192565888611554,-21.12127770917949,-10.912237361898098,-5.42648280620285,-3.8703859123588735,-0.380042215330306,-1.253024925565775,-5.4813972522090815,-4.04715446541484,-0.7661131597438278,-2.462715945920646,-3.0486354457455604,-1.2805493373585684,-6.691426495927587,-15.866596694478059,-18.038560534200826,-17.219351994139657,-16.69510994247714,-10.664872091628506,-6.177681527282658,-11.054587295222483,-11.66714835915763,0.7122826091231307,14.62461090080488,22.294131759244927,22.69131187436026,14.20195179470065,3.2863038960173503,-3.2563788268783718,-8.650218997436538,-13.845149230985037,-16.894903922079756,-23.190355702426743,-33.09186835929892,-35.58452001241143,-32.22392861185786,-35.130649092768486,-34.381400436146585,-22.417035118690073,-24.531472558410435,-34.657563798110985,-1.7294819557117407,82.73490276755733,188.28968441997063,252.02150903554715,141.76371070958334,-132.30486637236788,-285.45237234518584,-173.93473239252646,-25.570947161172345,-4.421123496989477,-11.806300854520142,7.408681477633451,9.117862091767709,7.521212123469018,18.126759535555546,12.689687470943039,-2.4655055341999574,-4.367132454888843,-0.7167338817846955,-0.7833925435951059,-2.3349371731767263,-4.16475010900926,-5.0544341684954315,-5.67492257555711,-6.153064770203725,-3.0345985874455845,1.3039627283594335,-0.16631763444998526,-8.825251307689811,-18.69717912036272,-20.174201956124772,-12.35302454987912,-7.042113728810277,-7.36067901561857,-2.674633458486416,7.8533135466253725,14.503442653865765,16.097576563307058,17.329746672741365,17.90264829506544,16.55558393918033,14.961711529665116,13.06166066971073,8.884666192400756,3.3468403326014764,-2.263029525790718,-9.719756212721363,-17.96893497091778,-22.8136350293788,-24.35127340111108,-23.302594448506433,-18.12024896212784,-13.554167683194112,-14.588500761862713,-13.412187180568583,-3.5386266286412607,4.036707124888835,-1.660153918931929,-11.939765121069765,-12.540009458031216,-5.504576335365254,-2.098828711371217,-3.8165319292163904,-5.498461165079155,-6.091033308720908,-4.582711075845206,0.00454918829883777,2.175939807781239,-0.8273886790200367,-3.0323430684266413,-2.4352956722226553,-1.5640652382615272,1.406909855407922,4.683711941608386,2.4952489961292263,-1.9248242705873118,-4.079038862514631,-4.997979381367208,-0.7256499128690228,5.80286647555406,-0.260496359361424,-11.848259148825544,-8.24584210155648,0.10584951124222819,-4.016734230995828,-7.04082881438997,-0.2258547034685563,0.556469113312918,-8.672194080789982,-12.643484720240833,-5.534691206931889,-0.20670171073496313,-7.1951437230373685,-15.029867412762341,-10.99207394882665,-5.26439247131867,-5.301773056864125,-3.1577742821213413,-2.3456029773139573,-8.796986813115815,-12.07810392984563,-7.250724538656264,0.5660543481855242,5.609761554186388,-4.888610464397397,-24.83816517380718,-21.93515758833043,2.5614586277522235,16.072846369782063,19.48833836249601,24.826336803738933,14.825265787492071,-10.403561191611084,-20.99498421626123,-15.02218069257157,-15.156326504922209,-21.800973833293675,-22.92500614106776,-19.31630451107117,-16.46936974120484,-17.732733746732045,-20.53589135136626,-19.091764141891318,-23.12402676807939,-34.73833388236953,-20.6635765713417,40.253452784484786,137.68328627910932,232.78982154637367,201.8879457296231,-30.159156126762895,-255.80965204140404,-229.5599312082085,-65.7719775616865,-2.264512270984813,-17.203139960753152,-2.919536062308275,15.150771170263177,8.800564098652654,8.670815768793693,14.004741955472806,8.582024744439918,3.733498573350738,5.902348956579518,6.274841812765777,1.9090854554276664,-3.860042416882811,-7.127713589077152,-6.624996251588911,-6.809725794244173,-10.467979117985966,-13.878804939167242,-14.021772354580417,-11.206511814138704,-6.834150150335912,-3.9746161996128944,-3.4365077397315518,-1.9809478714060398,0.31413138114989736,1.0552775484978518,3.724063218076434,11.417961467818127,17.090136479262284,13.956479523579688,8.845824663139576,10.455510731919155,14.607800632224102,15.754280331595682,15.010453932773437,9.283908249580433,-2.3173570696744763,-9.905623688880855,-11.536042815816812,-14.316174906983399,-15.044199268036909,-11.77615303107392,-13.592549101751178,-18.27714515016076,-13.499126400600396,-2.815792896873182,-1.5482772264611278,-12.545211899597227,-21.717310469529146,-16.692731590671585,-3.732464283610053,2.039958194706454,-1.2310824559703608,-3.699120630928906,-3.555552349778347,-7.261095853360992,-10.753195839374595,-5.092270565778177,1.571793910696984,-0.6219165569434413,-2.9522519145825505,-1.7333893975708978,-4.655488696182664,-5.438638377976169,1.5324953354359376,2.283582505772845,-7.45817833739064,-12.492735139499421,-6.717033871624249,0.14529386137376754,-1.9605981087848843,-10.563781672422305,-13.156294729780711,-9.334646641302262,-10.736399479741792,-15.001361005521877,-12.833467637203466,-9.419637795213445,-10.836264439079349,-11.367391266652529,-6.997228419848639,-3.4791574185641174,-6.338398694157881,-9.26744824397364,-4.408672646329414,-0.8607480115750725,-7.084967526105508,-10.106928152904018,-3.497859355962719,-2.7765935207256973,-11.13324680809436,-14.041783890536564,-11.466204974794428,-11.64005049688658,-6.786826236593772,8.473132915102394,20.50936186317815,22.48249169186947,21.188105960390637,13.225799499197946,-3.6973856691444524,-14.664150158552728,-16.11920733543748,-19.75016157323516,-22.39330565742725,-17.68781523473347,-14.456323728084508,-20.37011696792247,-31.745458228192398,-33.67731577243625,-22.164933393008273,-21.7586300643777,-28.05288765436252,0.6931218344039252,65.61221580613622,159.2949361712167,258.8994776337137,209.17589823419343,-60.143156813073716,-277.10903799414837,-221.86901084317356,-75.29223118371635,-28.72649050452508,-19.848496196906066,2.6469241455230055,3.5071686859371916,-2.9080533635348456,2.3777146422332622,3.7695874552436948,4.674490782547387,8.993352977825705,5.947354759164369,1.7777512178334334,3.911960884936571,1.5451809113182886,-5.577459161804972,-4.4698082539251,-2.2337439868354725,-10.08868130164539,-12.43510419420502,-6.653257803835444,-14.485890744830748,-22.61569284091699,-8.813410376086399,1.9809941584024724,-2.627729693421471,-0.5666913992354625,3.440189934221829,3.0290332000406996,13.22776405395632,17.61469890692935,2.7865332219968217,1.9186123292859887,18.892131553030026,20.4271557861947,12.218815078089964,10.156547621012741,0.776981927813936,-12.562345004393718,-14.21558316407203,-14.30807979929239,-19.72321284675259,-19.960725377328927,-16.08423036390282,-15.106265551899332,-14.547548376359112,-11.931492938581586,-8.978462574414916,-9.511618307441482,-13.40082502436539,-11.21768632356818,-3.1231740732113877,-3.372850050571005,-9.547332560859282,-7.836479103099923,-2.9766869374829232,-0.818333880153598,4.054143474272944,5.295037944595771,0.01698637825058036,4.441534909317982,14.117103140948405,8.389435727787161,1.0594671062624954,11.622280983679909,19.312839646347566,7.390342633518679,-6.63793635574565,-14.80101410390464,-25.873760431255022,-30.180054998549572,-16.973650815287712,-5.6593353169890825,-13.086881916410547,-24.493095770912653,-26.76765988151185,-24.10150632792668,-15.023717090710889,-3.915688155342231,-7.890931300305137,-17.845841112299812,-10.759100963247633,0.08057936945612809,-5.846006105193148,-16.07912338851999,-17.96164236337795,-15.24746433837733,-10.12675732004891,-7.9813224800344145,-9.695976146238934,-1.7356123540983832,14.91475805887375,23.686680307571486,22.028529895146647,13.06073985563548,-1.4663076241415496,-12.072500238097637,-17.423810120122152,-22.67262887748873,-24.300607858481087,-24.437424356934027,-25.906999908369563,-25.079908558072926,-29.80755091217944,-35.967622393372196,-28.546421509575705,-26.137351374305783,-28.551343795103,8.178327599476713,86.45899242728892,187.26471828427336,265.77626959695607,168.05253587080512,-122.58230817800501,-295.8156605453394,-182.92427712787506,-30.673503443953702,-13.481586242528454,-17.88799825879247,9.87159636923202,10.062642864318125,-1.060155788175777,8.2158403744082,13.454885074203133,8.998857902259829,9.124518943099677,8.860643618339044,6.0501442430860495,5.811502686212168,5.304822495652855,2.9121392454230777,-1.8432487753019293,-11.921194486870403,-20.484156671028348,-19.225460734012074,-13.534845822780454,-9.267094129600007,-6.938765383735406,-7.412523797322007,-4.4338109275378255,5.233327589446226,12.84738338414288,19.240486860151627,25.960262486452947,18.846975945533437,3.128804835261215,1.3174713721427849,8.490397458184686,11.12942791749369,11.5170767292285,6.513152485938321,-4.013329586838756,-9.766661109680562,-13.140716807853021,-16.85123048613669,-15.40188296083765,-16.386972438031318,-21.931466690410087,-18.83343417099108,-12.132419298930945,-12.362477110175558,-11.137370776558654,-8.574044409034794,-11.629939760006016,-10.180033093073156,-2.347745405067762,-1.2835822503428158,-2.9904966743518138,1.6516850000189738,3.327910765053727,-2.484251539523332,-3.9065307189453495,2.2671814135509623,5.112051803249446,1.0542298734778308,-1.5487713753786139,1.1517314035195154,4.253160801790953,3.958536679228967,0.23987045073421331,-3.868072722873679,-4.144133489044811,-2.4768831041492962,-3.1763444751892154,-5.157170043141919,-7.149717742486633,-7.347516520709972,-3.1130772962636435,-0.9342395572195734,-3.8627427193211687,-1.924264019526234,0.9026499407326334,-7.96621492773958,-16.16226781519956,-11.100145911253374,-4.975782555702827,-2.4299026384127878,0.24440426578385122,-7.314800086783169,-20.64048558653966,-17.743669898719332,-7.075728664432718,-10.502805702314951,-16.861931036023865,-13.633074266592432,-12.518694224375967,-10.950697862112085,2.4946528453829475,14.821005207017711,20.28325399668372,29.307187575955453,27.400758248685875,7.03995993243937,-2.730795225185778,-3.100828049677471,-22.756770947502275,-42.98860752748298,-38.53407548049961,-29.829806064693493,-28.0419242303404,-26.40016625145548,-31.542731960456877,-35.08817440608823,-28.385962006267665,-28.13853310155324,-19.007292104581012,36.434102787301185,132.77223085841746,230.2055629288505,228.2315379614017,27.482691567923816,-226.28262471085424,-255.6519694186187,-97.3925527084292,-8.01333320195971,-15.3765529419524,-2.110980695872467,15.478964988740096,2.8318194175315696,3.8050316398707427,16.684744908900136,10.21262451128794,2.530493680432703,3.0525288600096703,-3.4602926228586846,-7.676407415355824,-3.045332560695785,-3.6584748279285364,-8.382227915730912,-9.928367324114916,-11.3879058477109,-9.845511138064317,-6.21190723943788,-8.915450652667435,-11.420791648950265,-8.027717759908429,-6.556699770718754,-2.9170976532931867,7.520931980237389,11.644470803770488,9.53531533887702,14.305284597031918,18.051946837910176,10.0444947363542,2.631508124723207,6.184465907943112,11.87786207927946,11.874504998283916,9.37660923154634,4.621095779612925,-5.419177065525765,-12.928065170147061,-12.747663015601656,-17.399811267074814,-28.068448424492743,-25.52960215665792,-11.170341435812265,-6.449845093386216,-11.294672293029143,-12.573649444341822,-13.792525124413132,-18.091445298771166,-13.737084590754796,-2.715794455080614,-1.879231674073928,-4.7630560271220865,2.541908492126458,5.601489850432539,-1.2335525011758133,-0.8551738166835872,-0.045803619049888944,-5.310628515684627,3.0694630341698863,10.439171544577887,-8.734680696992157,-18.93518354114959,-0.1736051894012034,2.955042767821441,-14.713003981615493,-12.056593368598701,3.0624645925605556,1.0217655953506828,-6.87250559464605,-4.781205587712732,-0.7001186863990441,-0.8302613613982555,-1.6539824855394674,-1.3088473375013425,-1.9482159539592327,-4.371093352215787,-5.372506914417295,-4.898449478346928,-5.80687838677072,-5.473017296212237,-4.707965630572929,-10.169130064388916,-15.369911200168348,-11.03901409087597,-7.71440391792237,-11.722134436776903,-11.633600684380506,-10.691651782976033,-18.386885685262,-17.282322081667242,2.0267506156993775,15.151275450034284,15.955329039591533,22.82000336809645,24.852099665304046,5.362486908031084,-13.547008759368083,-17.16659138738102,-21.958643009599562,-27.60021702643464,-23.830872140641755,-20.962314076177513,-21.32240080278974,-19.19564780660992,-24.51911788514864,-32.7798902294205,-29.491209846406882,-26.46437075651705,-23.60182922273728,10.120624333025244,93.83921916275688,207.40024124506522,238.9265172039376,59.99578068830286,-204.36122247860555,-262.01349472246915,-113.91067046668769,-12.241479039308835,-11.303524452563737,-0.9399111747636191,15.674125781929849,3.4342530869084733,0.8418446838555496,15.443447018195242,18.413436972163836,15.773011374788243,14.769577187037612,2.335449917446743,-15.000814460473865,-17.409013179207186,-7.6762634016985265,-4.174279447123162,-10.800778678088152,-15.581612764760948,-13.933525157557442,-11.146168712018422,-7.057190135842655,-2.7685153783758434,-6.241572536032548,-12.906690201928374,-10.780643370117367,-5.105715726549128,-3.377716050000129,1.181248470789075,8.450237895523617,9.77200073165307,7.761857264806657,9.25219010431907,13.634722333508204,16.16254367937382,13.673641168341765,11.045550961489864,10.42718924683646,2.794853588149988,-7.749591805304002,-8.844946405074097,-10.906864695359513,-19.50957141955683,-18.2995025293503,-13.80468726238673,-21.572345197853835,-24.298614554622908,-15.086451173621413,-14.162802852626466,-15.993632798361343,-6.650185178631666,-1.6401735711050698,-5.049093242600744,-2.3805834823064203,-2.3635873711850532,-12.236999282211286,-13.142507788112109,-3.4504135381702365,-1.0436850921564744,-2.7535379699119513,0.25212849019563954,0.9904659496483248,-0.6586049238507865,0.8956607368950049,-0.3086086204068028,-4.3384438142774595,-2.6742644213341515,-1.7756877493346561,-8.831540472280462,-11.366656988234391,-5.248256200875041,-5.411098750110497,-10.484466567864073,-6.013147731329394,0.5403229199299062,-2.3831184134222374,-4.436987551837406,-0.46747154411891323,-0.07400645352359092,-0.9563890791022018,3.5368861916394145,6.6914188903503184,3.6886753764720117,-2.159158938031771,-7.744053982290988,-6.932116454702436,1.3619222106463038,2.161097425545572,-12.316232131931368,-23.404764181037113,-15.576363333511127,-0.4692257654766223,9.684703072891928,15.757178458330516,10.459910649566208,-8.14187154377475,-18.706338966924783,-14.726137524910262,-14.54420555390729,-21.459078355613304,-26.688236667864576,-28.260324465399606,-25.312107152395676,-23.16288225782572,-23.214404030979736,-18.29858506444021,-19.9942843672505,-27.480088010552066,-2.9842182212443653,65.34278499165926,160.85055734777524,234.96158139812934,154.40250762385938,-100.7664338708928,-269.9378283737956,-187.43370526781405,-45.523466957359126,-10.805210105236018,-9.942460475833983,5.592089634231776,1.5638446166332827,-3.3211873273370696,6.641370920308642,6.330517805557565,-0.1433597279204335,0.04755407033162129,-1.6452138021080795,-3.1645392847448406,-0.7667006804601488,-2.0106906367965767,-6.005592072826355,-10.096195789696175,-13.034058472177275,-7.235715119065353,-1.0247633898252992,-7.981610056314043,-12.533509934981588,-5.461504224906043,-5.108000501870297,-7.941511549861736,0.302824729267825,4.09430605446639,-0.4949126273319573,4.467469999820693,10.164315114983573,6.394264545012047,8.469719068114326,11.697716985287842,4.492409381609573,9.215300057233154,28.56934317587817,24.75353420678848,-2.3803982429106103,-13.63489930012333,-9.129105838215315,-17.11574470520163,-29.771067554008223,-20.70757740633458,0.8849672401035313,-0.6680768073249972,-31.609799947476432,-49.294530476908406,-23.385554096285507,7.356286808886647,-4.257691714823778,-29.84663755400046,-18.08317970006133,12.25396204611995,12.409304913857168,-8.196824735896644,-11.81053795816502,-4.98400856717519,-6.134139998832412,0.4977708656571176,16.21210217838029,17.621141583914365,12.645110138220064,10.932526614548213,-6.612942620800084,-26.45754905289221,-21.32000533265282,-11.644631762114967,-7.1987253979786345,9.904497120339492,16.57107792236013,-9.058391514687962,-31.527125853836964,-22.942927607635735,-3.479430794847646,-3.198296465115007,-16.80564250142541,-6.482301726019943,16.33132035271826,-1.889362857384306,-26.430270263585314,5.7515152573115085,37.355458658213806,14.721075784189782,-2.875755781564564,6.090236891421,-2.2614340482809165,-14.07408192820271,-4.647510626192338,-6.219324663358748,-30.1070579000591,-38.15013895071398,-20.431702888410367,-20.840120898506743,-47.91371364389103,-44.12173395250633,-17.30058897484206,-32.83139372786396,-36.79955851819081,54.18626148796557,183.63857467843647,269.6189281768794,236.85633652529765,9.30049724664719,-243.19185003552084,-244.7809912970779,-96.88785932436731,-52.82980727591181,-48.61656426920449,20.84028976280737,43.1959769825739,-8.786528597617156,-21.796839088250074,8.282293933174866,19.728281937876886,12.0460987459286,-7.91582896385614,-25.906534581131005,0.32315681297952636,42.28200239119235,13.784015637833285,-55.563046863455284,-47.45933178890127,18.43136518357202,21.64671413289887,-17.289161227795642,-6.602550431223644,17.406024086769463,9.7116862767636,14.852153241187036,23.453156436002388,3.531876445259762,6.06965282701808,27.612594350308566,-2.645677740465013,-35.25464391798815,16.563809696797232,81.74271571794553,57.41430484103836,-4.805913757265202,-15.00749115628313,-13.16768668507936,-59.237594330105665,-89.36860931274809,-49.3834803576638,-6.950751981775786,-6.405182492370502,-8.544006592560237,-3.5486855711719993,-12.420953558961907,-27.52382231577422,-29.241555587937178,-6.558933342786339,24.607822697497,35.5394546701166,38.79834857302356,45.784508245618646,28.866525451966467,3.8843637131539923,6.036286330738655,5.342813009663335,-8.097508244139235,-4.641764729017761,-13.607088923513675,-36.045434701345414,-2.0439636175463107,49.427002045172145,25.301423906776925,-21.540957036689985,-29.628057286820116,-39.80351755041972,-28.84197672465565,28.682686257348948,34.14612997250269,-12.10323797291575,-5.857560429758184,-9.518457626043569,-67.23266774575731,-30.157565111409966,75.93482219066858,50.243412160475096,-46.94931882123054,-39.10190200131815,18.709993351159362,26.92629265239288,12.882754001062718,-5.856325580026457,-42.35169837850375,-71.96329579879016,-73.05027862422706,-58.37160705045077,-37.65186838681135,-18.7437008967272,-29.899380548586425,-44.04729585835422,26.5030328226567,162.7940037764647,259.9026989765952,265.3407046423659,112.02371098729698,-170.40209952635306,-295.5197807873435,-140.6676327127063,17.116392563531917,17.046351823524216,-17.172027035736747,-33.39938723947772,-43.811421951758874,-28.032502250032266,-45.29728371341875,-92.70891268611634,-46.021670686683116,30.028881298294774,-16.16163215477634,-60.33491219611074,15.737812145317221,66.33217658766003,46.269175006706554,18.710791294340943,-58.109870197037935,-51.8167395740719,134.8415627373519,153.62321392530606,-65.12347709370184,-81.06266317300009,35.36262649532553,-76.51560526773972,-144.14837385496085,49.585395128153294,120.90923757357541,-33.79230422821862,-85.54733809258703,0.006905482602133972,36.29209406084528,26.762120368504647,34.709448895050215,22.919977482442697,-34.66566597318558,-87.33542721997748,-78.25495909995121,-14.967390420304813,34.5101569211194,26.04317308359889,0.8332626382152153,4.447612503060656,11.508240834985903,-5.9465105810526575,-31.330321338068558,-26.26923790514102,23.379787336994646,42.54993427485138,-12.890501151609827,-35.02471939803066,3.145712160356791,-0.6177304600805786,1.5489362377075842,59.243280266402685,37.00280968440218,-48.83137654810021,-19.166731944831973,82.39206240004938,88.53480865121098,17.436144031818692,1.6466180185575752,12.245208698020377,-117.91789911295821,-257.5554922243892,-110.27663238338214,81.04597631583745,-36.83368314105377,-152.1627498626379,-31.08286750003556,11.403215044430876,-57.101844693093476,-13.391358353388291,54.925852892159526,102.89215608568219,196.98682772866482,193.91686916216105,98.27916438606977,105.83790006875964,123.4246356941984,14.536167966025147,-62.271311342731835,-30.426893273109574,-27.704964585141013,-69.17321257762568,-59.11739330373726,-35.0357722592854,-80.09432670416038,-120.75744375932324,-62.40248116354615,11.125818846862337,38.595033184787596,139.241203372624,287.8699145997663,232.2329294943184,-41.32867818397456,-243.56632667431577,-240.1285008958428,-135.98407577760528,-32.82771558826289,18.784191681060275,17.248821383751203,12.269395592641075,3.7578030277932584,-29.58886572772654,-36.772481812624505,4.223555786367854,32.3281918493218,27.981206692824937,25.41997050912002,15.50023815713154,-25.61141399020377,-54.442157745790915,-27.53848127717648,-1.2263566328852704,-22.422746284041683,-27.03452066927079,1.4277709700668808,-9.483988148298867,-29.81738331652366,6.622707228140686,32.691216017534295,4.202714310827702,-10.8748285051897,-4.501050976844322,-19.953579900754903,-32.16285018908159,-13.89580715705784,6.106830574002245,1.39712741914893,-13.692725174103614,-4.800801896548691,15.031351728270861,-0.7624385066570305,-22.280029033830274,-4.466560704632595,-4.660102132048479,-47.61067571525857,-52.520810918106946,-15.23467072586427,-13.24396607298474,-35.90112480765818,-31.503878620619467,-24.92546061131032,-46.90157090484439,-52.72208734986337,-3.6642456063683753,38.92131367777297,8.739805351753407,-37.71854791414034,-30.037542777982775,-5.649727613982169,-0.9534915707667331,4.373631262560814,4.10893352412149,-7.618189036586326,-5.1484075660193795,-0.7501636196687791,-17.23874282549113,-29.439582871080034,-20.885719864525974,-6.691608949895556,1.686714197320132,-6.698822173103913,-24.021592867513224,-22.76498271334648,-16.5493987776754,-28.505278606486886,-21.042985489471242,26.183531422118996,53.71265874478058,27.21704516106743,-6.435127341804222,-13.877467077057918,-16.953175903473127,-23.690022361197585,-21.38294117053863,-26.099262357817594,-39.68184581029036,-29.556831082119494,-16.22816117624408,-33.34548634595211,-35.90129681981206,-14.784951356365944,-24.503360103993877,-15.862977693323067,94.62560943452485,239.5143466882816,270.5619222349079,106.20964289353705,-156.26488242207245,-260.3524373865987,-136.47907298199834,-21.92029229946486,-30.481364603385902,-31.798973447041586,1.18839282802427,-1.2121602089022865,-7.527901639813518,2.29506698827241,-12.13427303808994,-27.788589327038377,-9.386956389932077,13.819865100976665,17.498952978626388,9.969013285579518,2.749143734114556,0.31903720166196337,-9.058588846415685,-25.075629198485895,-23.163483314335757,-8.129028772822851,-4.480454038280248,-6.8409107900328525,-6.355724858263319,-2.435121778782892,10.72203006819299,15.053513430222143,-2.6464810834738026,-9.331049353309535,5.275547504600599,9.30202754784666,3.093877530663824,4.988066009846361,7.002475499238213,3.9738185548067055,4.355064951958131,10.561249016290478,11.918614482635101,-4.114447814701633,-18.365923810770205,-12.72250855767656,-21.571303037868553,-42.9069752676221,-18.352925696805215,16.181338857524032,-10.000923883056785,-34.63539233042091,-9.954121765350273,-9.746548352883345,-30.157370808511654,-4.205570139484177,11.172736236284361,-24.68203563976143,-25.855956131008764,9.986931751586129,3.750198627446638,-12.148492065891407,4.0900664667056486,3.3556593200576135,-10.043610736518966,2.708461827688323,3.6008498883652464,-16.518586572165567,-10.592188898731889,0.5619768009688038,-15.542750966494026,-22.661290189520567,-11.46034280800868,-13.080757242798478,-14.976556185597566,3.8404343599054984,20.755703855334723,14.178514392503585,-5.836939737269095,-19.46173424778673,-20.328256850953835,-19.79891075628497,-26.00054493627215,-28.91670313944725,-24.097118672524193,-27.60698706017046,-39.364744791839726,-33.62213195079404,-17.027014608700508,-18.477016875770495,-15.291127700231277,29.935073934894234,116.03315065870363,224.96839037067437,259.2101325477898,84.34721674424986,-189.0540994750597,-270.8998113302981,-142.49641626393293,-37.22519304100306,-24.14424609931687,-11.77371523407242,5.2027692472981535,-1.8119029755627238,0.30864924838172225,12.887685758794856,1.0813904428234213,-14.250937223675752,-4.370915213298575,6.748707929302411,7.519525974649429,11.867435678227507,10.517009356470117,-0.4912364650596359,-7.12468248366693,-12.805792056829544,-18.25395308794907,-15.491349626027475,-12.487075153000905,-6.551193141540756,5.142108516417256,-1.9720624351245233,-14.443741954381903,8.469690389776332,33.489815968230815,17.491516149353757,-0.5314087632735631,6.506154696951496,15.154584779984704,28.724245166815784,44.53893804832947,27.558972111489545,-6.218619750834217,-13.930098043451983,-11.052268823270646,-20.67919470078208,-23.9098731357021,-12.827577286133966,-12.6017243911012,-37.07654165031514,-52.21100103489269,-20.578219193536906,15.04632459642787,-1.675184695250465,-21.766040756246248,1.0576786909484817,7.848302320250082,-16.194166919090517,-7.920952990364301,11.58826596021165,-7.579321120177584,-14.83550188487828,14.336900914209188,17.68431813917523,-2.1683292691788623,4.565359480748284,9.310105735264713,-13.952394705371242,-17.864034927875906,7.7158926249874895,15.0429508593094,-0.8812860171522399,-10.128046891542464,-12.749212026822203,-18.104610687589016,-17.413200827511147,-17.455379927351526,-38.99681104903958,-56.55526898570022,-23.62096444328735,30.502913203235963,41.209690721128325,20.275687679609792,7.342123161616634,-9.514465719212652,-32.38156046377382,-30.859981152151015,-16.400036202631433,-20.866618119765604,-29.56692657104489,-26.387739461449904,-27.39800679283489,-28.246358054561803,-21.98053911252105,-35.882739334134534,-53.449948017927746,-8.123682119117028,107.12273235898816,236.21852036124187,278.12619885031654,111.68062412785096,-173.1310785152859,-269.6024136432245,-125.79319011347627,-16.479832271329546,-33.766500325925165,-29.434152991593315,11.879095398123507,12.150864254541954,1.6775955430600318,10.097854745456639,3.9225006285267554,-10.369427075531503,-11.594340783082435,-13.369261943136886,-9.352366579701226,11.075697912800287,17.79372175224126,-0.922499807448375,-15.611461766340314,-15.668987953820965,-12.445412772662742,-8.77192159562388,-4.560323404622364,-1.6205519883106572,-3.468288480694145,-9.56644322514614,-5.811398784736101,6.5162752631675875,2.2855810989594136,-9.991646626817463,6.808386411572664,37.06593082766882,31.304777444281086,6.068799899534456,16.061501717423447,40.34551399514015,21.972404028351384,-13.89589245263414,-15.988639766746473,-8.544965650484716,-24.520551526152815,-39.790990293770335,-32.0014188604254,-13.29956668006316,-2.821151671368707,-7.779701751919532,-14.11012442162143,-8.31312121382874,-2.925999594576158,-6.071037561705802,-3.895065652485868,6.19223277338417,9.901380980587938,0.0807452642639177,-16.141776043089852,-21.55628600048229,-7.615541133800631,8.271486643568071,7.640332092807254,-1.3420820786891614,-4.939097813620197,-6.055656833103895,-7.656471956648668,-4.69673967460835,-2.0702383520824625,-7.3533316434445055,-9.312862117786723,-1.3222305002194261,-2.823374382586275,-18.848885965496763,-21.319257919906768,-0.31346613512726407,17.362736094873767,15.611888015370223,9.090016813478064,6.299047835153877,-6.589309616317639,-25.736349127555066,-25.638441526336784,-15.811994353018846,-22.97690256480612,-31.42967993661786,-28.81908249807642,-32.67251763647899,-31.278488200564198,-16.9464368199042,-20.002449066438125,-23.375946038306655,27.339178715448007,135.18514084453983,244.12266086047646,224.73022948193915,-6.005147768987108,-247.6334904328122,-234.57319790370605,-68.21963220900916,-0.7366183723031643,-14.726857698506656,2.426601355276638,20.170631363504544,10.303711311146952,4.149630703916909,-4.222612853364861,-18.58625038758022,-15.346664872044808,-3.646456124700956,-0.7312367037970535,2.0450565630168214,3.9454112538428276,-4.495703323734153,-15.855593990253617,-17.76140392808349,-10.765164268979923,-6.742042892380702,-7.552614948732261,-2.5315773223143747,0.5155850801987976,-7.839157358595344,-7.342763092156067,6.564956943502571,12.529787738608672,15.340053527075442,19.955217121808687,8.57993449986494,-5.241172274352035,2.147009534325453,12.68738819010476,11.866900168528321,8.433316955992824,0.6911055335545999,-8.190970869563854,-9.3285194043554,-13.003794917276272,-22.559890654520668,-27.451751948063297,-30.5721283976227,-30.221646983993352,-16.614435468774317,-4.241507334364915,-8.733353203581878,-15.697554439879735,-11.692894199816042,-3.742269031707673,1.0695903255273311,3.3443542136675166,3.47194912313826,-0.6448075078892028,-5.885739508678435,-2.2721607516551936,7.53193756116862,8.116458964335106,1.5110118969371493,-0.3054659908694042,-2.7289764012731723,-7.615951418889097,-3.2851818750259802,3.1904236721535266,-1.6612751660305314,-7.681308766874821,-10.264300822439438,-18.683077464700432,-19.631297981592418,-0.5525733397119943,16.62787383180246,19.09842508775803,19.0025098087694,10.964083456803849,-11.062770053900058,-24.067067340991798,-21.893590460711806,-28.091837489391498,-40.32840648000207,-38.25185273233808,-31.155069207588134,-30.457252857398625,-24.994942559832246,-22.717196520775822,-36.25190889294399,-34.30886410084165,7.494418091257284,82.79482361311813,196.5723081639371,265.7110091123807,119.810137282198,-166.8110556298928,-271.07799356714963,-134.4765613544708,-16.26347742190862,-13.220415888299152,-15.81354742304665,0.6420930673748053,2.9381811543290013,6.993728099106223,14.13172303719239,10.760183574792709,7.8606280553214205,9.630131881590021,9.904671745853992,5.795400394932997,-7.464427980657534,-19.979305506041463,-17.41626833970449,-9.550587075821047,-6.274220753259355,-5.0549597864169336,-11.485576352258011,-22.55441906339679,-22.05981557410483,-13.33731574006325,-7.547626531142156,-1.804714318005379,1.5252828538089531,-0.8323723412409372,0.8400979543327436,6.4130358443673074,7.829560585469862,10.051963269361007,13.830902351839104,11.840617172962737,9.493941788204365,11.494407746184066,9.570096502721885,1.2262853375038674,-8.168429671495694,-15.024415275191034,-16.04159304542359,-12.915235294529484,-12.33961004991423,-14.919641374606918,-16.19286443339557,-12.963515904892322,-6.439650092841228,-4.961942863083678,-11.632685488149567,-15.155118416488321,-10.03583063545443,-6.054454473509367,-6.4930438486374715,-3.93735935228891,0.41408508463580773,-0.7875695110190684,-4.235937765142586,-2.7352927423370623,0.8353311610520855,1.918595303495061,1.6486683595290597,-1.6894761891139733,-8.1738280752617,-9.342934725944357,-6.004281756885636,-8.990674452157048,-12.261190237361374,-3.068023523947571,9.642761409707104,14.109146520200019,14.93543491749808,12.310640539858653,0.10003498454912396,-14.162892331249466,-19.283002142747698,-18.958926761140162,-21.727214091273947,-25.31267652552114,-25.086204215033316,-25.990732409666535,-27.093020352717893,-20.24503699104873,-17.785648468733818,-27.23254833260423,-19.557328299795216,22.210178906976186,101.4060004068107,216.8074434851819,244.43887656872727,37.923708772516314,-232.7495973317728,-257.31476830413317,-96.45245905092173,-18.438187774819895,-28.9947996923835,-10.215030304068748,9.943640593774152,-2.6783606423639625,-5.456215831549195,5.927317338010373,7.308447246715526,2.944325256066584,0.32343204835011186,0.6336188206233686,3.2167440180870326,1.7840560213664816,-1.880577995962124,-2.422378398632178,-3.6364917213973413,-5.806348712645008,-4.277254882693414,-1.2836966354067947,-2.0313144728026913,-7.283147093709369,-11.786758391769101,-10.636980130436356,-6.980570744642227,-2.6196893820585725,4.649533353658549,8.133192239309016,4.0725560488379875,3.3183591500195138,8.069016000854145,8.940753395858735,7.638509026357871,8.125611086764085,5.718975423013096,2.2355837928364166,1.4583181328375039,-2.9897905855323135,-12.21032288051078,-17.568042820749216,-17.815498939940383,-18.0885292287385,-17.79704149394833,-13.844661520007042,-9.655492832058496,-9.688752651708526,-8.216116936416164,-1.4986870498249836,-0.4125408549528018,-7.036100421193622,-7.661166689309725,-2.861283702148503,-2.1636737698287085,-0.9946514866737042,2.953453080386158,3.6227285522953885,2.4118858713831557,1.3030105419733067,0.9768182160625232,6.3900295401424305,12.020200111528483,7.939497552018187,-1.5380752169825058,-11.517719536166055,-18.332594573992054,-12.392087587507273,-5.588938623130645,-18.98871097437034,-32.37186140975547,-19.365545171167174,0.08990362342330904,8.144499374411467,16.724177330562597,19.54601724141431,3.7469859492766577,-12.329265777179677,-14.825503422824877,-12.129078069316067,-9.350394119664573,-14.464482339818046,-28.937403608639944,-32.95459605825027,-25.628858397808294,-22.988429331082997,-21.194752869709923,-23.927793163900418,-34.43543813013869,-17.196398949876027,55.90665888518484,172.00432387705973,251.67511684695245,145.04994911937786,-128.1370649997358,-273.41483214237746,-160.98802901364806,-23.750449104982415,-6.705811527984686,-9.853701072023409,4.223084930922795,-3.818445618720194,-5.813102297132963,9.5803519103967,10.767798424442777,4.848817127417737,4.440881695634157,-0.05586195326965626,-2.1770349769753876,3.096221870418301,3.701920125056793,0.09062753606970197,-2.1738080493044176,-8.885072562850015,-16.633871135603183,-14.43368913133156,-7.9693609907159875,-7.772162430658797,-9.759587007986593,-8.356035870921318,-4.114583463695041,4.142873683566041,11.534994628817111,9.117585377634986,3.5331724230427124,4.209517612169158,5.383128857199254,6.9016663988271105,14.897284143799448,19.695710216626786,15.022509773735326,10.273132915254699,6.501629015639597,2.0428405709964936,-0.8798474687937663,-13.309789199305992,-33.543546294640436,-34.999028225882896,-19.948162610380933,-15.054327094074935,-16.70407525014584,-12.852944554112462,-11.5566595776117,-10.807425798215192,-2.2548836081809664,3.3459687761388075,-1.2107159716377769,-5.289696255934288,-3.23212245355644,0.5945769874580407,3.9065834053626323,6.493366554961778,7.656052307460336,6.697996813413635,1.0853573943257189,-8.132675767726433,-10.358406804804261,-2.590826003126095,-1.5700852149386595,-13.245286506043882,-17.04799995063595,-6.213034702377431,-0.8053992417176055,-6.8230665868050835,-11.21639085731692,-13.337839828990028,-20.09823397358076,-24.809878544810537,-16.977640184725516,-1.2130414905809719,9.573855152889776,15.207500365435326,21.169716359084802,17.699783680467235,1.3235399105871934,-7.715680148132478,-5.273266229447614,-11.698235604447394,-27.783722858473396,-36.84226011979683,-34.022110943111656,-25.697328493746987,-22.453041510545646,-25.764511504668356,-28.00328528302443,-32.00232735302652,-30.2309182991264,1.0319482694347357,67.35758315889382,168.4547471826773,249.24440949487487,156.06680205334334,-109.1772880063595,-262.3219037109844,-167.48539308009492,-39.843994244018845,-19.57313131379365,-14.705586800335013,8.874069668787737,5.192502235520671,-4.358468501908812,2.6093687620818073,6.695752879405052,9.83277589680593,15.525577790775086,10.529055399013123,1.1389817551086114,-1.8630581408304883,-1.5905442515073194,3.5600904086213117,8.364799806519484,-1.8101667123826317,-17.34824367523712,-18.927587552948044,-13.364449673850821,-9.813360249730529,-2.6685465204077836,1.2001449078133213,-7.205224365338314,-12.815867804884913,-6.618334948327744,-3.170270404823322,-5.656916977949235,-3.2585080014475096,0.615154090947204,-1.4189985769684483,-2.37231083152534,4.065416332506407,10.13001053455933,6.641028941192457,-2.459184887610329,-8.606823072653919,-11.804491481643085,-11.892589594758496,-6.909321285941585,-6.717000755726771,-15.90660412457223,-18.55730391674767,-11.5273248196281,-10.340574905160622,-10.619453590523076,-2.608244908503016,-2.0541470440995564,-12.207592545443138,-9.770119588572445,2.6632793275261157,2.5243412608645697,-3.1884589233432923,1.2681255736816528,9.303968275693165,12.061736911282775,5.779498853412985,-7.779368711153542,-11.427850359713025,-0.15547087742874588,5.270903881240438,-2.797282013753012,-12.606544233491586,-17.645437616821162,-16.71305052468925,-14.071242596412759,-12.986000313011857,-6.670419039059066,-2.276749029500369,-11.380936281208449,-12.516668780311653,8.65959773052285,25.813888861837917,23.729144476778885,10.78402655309761,-8.56998725060557,-19.394963229098188,-9.396023919740617,-0.9899493898448863,-16.110830405363174,-37.27245552907616,-34.735296146808196,-19.525966960521764,-29.982232136108784,-46.63705355381758,-24.693011173673874,-6.362228175642045,-25.51563168903299,-7.9753203854301375,82.75474393361876,201.77610993963626,284.62802594073133,187.31628081228342,-118.21300237701249,-322.72032577866463,-221.55014988907033,-52.58121221621986,-20.753231818822318,-28.537342561521363,-8.101822123246258,1.3353895697123193,9.100786585912171,16.677251615938076,1.4885587196931667,-8.632704209414843,5.049133712108214,12.29290365205388,2.3507628113120225,-3.190771196433305,4.229836051236562,9.515461508149881,-0.8454466811654999,-16.448014415082866,-16.480963652144595,-3.7401519230907354,-2.3298159847877074,-13.840059467656552,-11.780500568137743,3.7026273923494952,7.210289308486296,6.084911258328644,12.320551386224112,4.571150327812848,-8.834012504049191,4.41099207532328,19.077256657314955,4.932104840799721,-5.846238876133234,4.767202588319064,9.649388858020902,2.8373600192798225,-1.071149702803301,-1.799637624478045,-4.5851701425474936,-10.78779018382243,-16.149127925104537,-15.900034778446212,-14.358448676568056,-11.70256509679211,-5.210127202810714,-4.162595358359437,-6.972430107341879,-0.8777922397228144,4.197579198194463,-1.261534558970947,-2.7215783162378795,-0.005888518176391244,-6.094703516226941,-8.808741327039096,2.344882729261858,7.026558390554669,-2.452590089044504,-4.485982516628685,3.3223318917722486,3.9471617978322415,0.03714879857160014,-5.113728896507606,-18.766571085639008,-26.09127726285838,-15.853416824019789,-8.90093035112498,-12.044037833964044,-13.028039913142337,-11.960093895361192,-3.1630881653540506,15.106100521907303,23.523203674557408,23.86177975731647,25.043304955696726,6.165017358811383,-26.70825677554488,-34.042469492539446,-19.518123733916703,-15.25184260747894,-23.81380090365714,-30.299545030612077,-31.489165424524156,-39.338444596311184,-54.67304507843777,-53.568403813554895,-27.8533283768694,4.832437007284829,34.66682268015688,77.16430799144194,171.616434230103,265.1626640410622,161.77222966908053,-137.72376255927742,-290.0745901670796,-150.47362549267933,-1.4212400708474533,-15.17887456096722,-56.52043085830027,-35.70601530296632,7.081896010852079,32.10419758602075,20.78509490672777,4.893590976673061,15.502041074244262,5.578831890133932,-23.1889247751961,-0.047362885664244736,32.73707831369047,0.738704843563676,-30.05421156774937,-9.30560889804614,1.855806091715293,-3.308164680385876,13.150023768466504,18.45352167266522,-7.595028367138326,-29.508673143065373,-30.62090443173325,-2.2520443143367856,39.087365537819544,27.31473937563939,-18.3409588991598,-1.7014844401930018,41.81138085291186,22.304696119704065,-1.646518938789761,25.217306896280416,27.902284268261326,-6.505565592799541,-11.440937872563865,-11.249115067157366,-38.609063758848514,-40.71795081626732,-14.408385777122238,-10.495544065667307,-11.561695343677062,10.247092327611266,21.16521022620342,-1.9229043870912346,-31.24164790592461,-28.846438258993672,5.82894965173519,31.238395089215814,25.077514827035458,2.7283963434029257,-21.99003597072396,-22.118512105973043,15.7106087924051,29.973041949776565,-5.927828222221103,-10.228905255242456,28.010811878478613,12.500281731375964,-41.121909189077385,-33.02746378759171,-5.764027238279649,-45.516703255147284,-71.40044615311129,-4.755957665104834,45.67678130758952,4.859580456675069,-27.136947730549743,-8.684855726820567,-15.45978635052331,-30.35178812427056,7.380061318044931,39.46282512281008,20.67714006679303,2.9351739410663598,-15.129991522978063,-53.52452768284501,-43.32694381504868,11.151650847344623,1.9247055257890189,-48.806820245309,-40.587819912513524,-7.8634593118487714,-18.558178543295593,-46.40557584101147,-55.39066155205183,-34.98487395515888,37.23886887010498,178.19171226074877,313.17266224054106,249.84504382967543,-44.917010160951094,-264.86408369308947,-203.55433182803063,-54.679180423594914,-6.305171536919232,-5.328066743976862,2.6911876233520715,-10.505073276167323,-54.73739315539647,-73.30476695312299,-31.9296600397563,-60.0063707913392,-208.54707711271766,-234.2967714865368,-82.52731579771269,-27.640622488687438,-49.96033611907401,70.33506083157278,198.30102277439127,165.56073697005863,97.97551233197913,75.63789119477237,67.38660953652891,88.01083525260853,105.93286596814893,81.82482501064052,54.167249526483104,45.58759372262375,65.53754773842344,119.03272631594714,158.75486102680821,162.74131585323687,133.65725893621214,62.1930836363813,19.421904063040742,41.253683746160675,13.431274142743572,-63.162683076794934,-59.91674786265265,-39.38408128739539,-95.23675422161327,-89.65943161111551,32.68892938828702,76.17929026782073,-14.792323190013898,-47.78056621686636,30.129187774656675,56.04841942238026,-3.604854303221492,-24.373861572775418,-14.43424311483966,-54.84638440996665,-79.24368361806417,-38.58677972405758,-28.894918293605038,-61.77854792637403,-43.25217943192945,2.5479339811606607,0.27779393741177216,-18.01290879809615,-17.684673230768617,-26.63776952238205,-39.53626527692393,-30.548761794580113,-14.464689464338178,-5.503573902754553,-2.153130115398014,-12.805377175258208,-27.645811102339042,-19.98322608677475,-1.495964603337267,-7.723383508849793,-28.624905709331856,-19.553997413377104,11.87618559886478,8.683816857202675,-24.418255658987025,-25.673600253638373,1.0806276129492112,6.4621518589460365,-6.435037237673207,-18.880832082386767,-31.459313988966777,-27.721666046340786,-13.9724140906281,-28.094519436526873,-49.669596574455426,-35.808851873945926,-18.386927143900394,-32.49009282908348,-45.04894282126186,-27.820475204757173,20.61760522455748,125.42201383393211,264.5369876905683,275.7016343327865,42.16723922336421,-237.8123309722614,-268.4259991632435,-110.4097000939116,-29.649439428712675,-39.101296143377134,-12.101006054875995,17.46707535673619,-1.9455472584188414,-13.483926112716404,-5.5145330249992455,-18.259757723609276,-33.508614643819364,-26.84970235381971,-19.462965347179882,-18.08237008758352,-8.805915012369496,-1.833186318722749,-8.430954481542045,-12.561789566860192,-9.112926861632879,-13.575576122122754,-20.79152319950023,-18.35906768346178,-16.249780486969065,-16.412076801930873,-8.470843043501285,0.12676225063070312,2.7435238411383676,4.178148138354231,0.3951292984110655,-2.6438514205822194,11.017443077776527,26.031342680732678,20.745603346672382,11.70247427726549,15.295587124581646,14.965898973868407,-3.313001724970089,-26.70488487115348,-31.906595015684758,-13.506806541203538,1.5017940747485348,-10.053081507881394,-27.647885878717126,-29.017193805141307,-30.889883046429844,-36.27277440343619,-18.336166278472167,7.799124750245614,2.7324118963636614,-13.548493611054703,-7.938880906382071,-1.9714863423397553,-6.224997655152851,1.4905308991009356,5.831855376163276,-9.363981072191462,-10.158573703966589,5.047027236804947,-0.7115371648150983,-11.014071624359435,-5.260583895951488,-16.229096201741342,-37.92384100342704,-24.5219259903756,6.324310484616522,11.541639975291261,0.8385559997423186,-4.092431625249883,-6.04636782668309,-8.824906773312417,-8.631180332972267,-6.224963272656902,-11.26537496436897,-24.24939370285771,-27.230100426298296,-14.875493726186075,-0.5744441073408577,15.185236373168344,29.373858237518206,18.42225570414653,-11.931237986715221,-22.3346457219893,-14.427568715758772,-20.78415400458114,-28.85904200508454,-15.899594141040847,-10.62558594289567,-30.35259451880986,-37.80278910403939,-21.53093128578451,-24.465339115144005,-52.504893213411435,-49.46266139748026,9.71664009917842,108.14579558388478,235.69811474034196,287.0431507093273,96.45052432650877,-209.53210355195216,-279.1841524713643,-110.01586280408921,-9.180812954198636,-27.755043899664123,-16.56672008387786,11.108449544176803,2.5103023998307634,3.988713855307507,16.616200830520018,5.466401411552383,-5.761940874911843,-0.649817952736659,0.8183035127051923,-3.6971954077713463,-5.869984507929765,-7.923074457789646,-13.322264196699738,-18.044873774856704,-10.034190089741362,3.9473729597573843,-1.6167886340270883,-16.330594328430646,-13.034331892088879,-8.05217722005897,-12.645473384224783,-3.053519784764636,11.496818070629356,7.303293524419746,3.583272445128509,10.681502325974588,13.962160318439878,21.271942033780896,30.420192646687042,17.979840426628428,-0.8514782705738999,0.037670979610640476,4.425127372546932,-3.5548778856916394,-14.516522408849188,-22.904848233543177,-25.596456012850894,-19.76200665504173,-14.543837305528001,-14.328894265853352,-12.81546909293616,-11.405781052149045,-11.923155582184279,-6.398864857198688,4.757651898605253,8.616322707273927,2.2659467092031225,-2.131246520911775,1.5063774527991622,6.857158597447885,9.826203298212432,5.037377066618898,-14.31811532854986,-29.01633775891685,-17.099887302303916,-3.8148394631936515,-12.31616412063171,-16.981637416815307,-9.44944586485881,-11.32562576017584,-12.544622321381393,-1.0885603906236767,0.9766962251910805,-10.531006865777641,-14.863598834830466,-9.184777949475961,-2.1731971750079033,2.5079453285918785,2.701035547142178,-1.44483978808627,-10.116009564661766,-18.82384424403883,-15.508220405188261,-5.66656627215545,-8.92813159913077,-17.525169136012664,-11.43277744218657,-0.9704674437189675,5.562300406760904,23.151938718128967,33.645143672328956,6.875220882483683,-21.34189915696423,-15.836853765644003,-12.713323026294812,-26.247586262755572,-25.433610510038548,-20.39752372231822,-29.538998212781856,-32.17450678705903,-24.048450629731065,-21.1349868792322,-26.515573826495434,-34.986392693386215,-23.94319520789184,34.04857063928171,146.75839843863275,270.0639417068645,247.42306976925445,-11.950275706040593,-264.47359314110355,-237.10411792267558,-70.43295071118135,-12.516195055041749,-20.534905312818232,-0.318176627226169,6.061613822653737,-4.862476413390109,6.476537940781511,18.190269498580854,12.309809809794764,7.381741395413984,1.7771076384026552,-11.112866001978368,-13.912314535165777,-1.5747449359801404,3.8902500268894658,-4.458605339494401,-8.473151004376547,-3.299539320888133,0.0807184560693246,-1.948084920899233,-10.335196661003451,-20.762126004145383,-19.832403331059226,-9.89672100987979,-5.090479955003673,-3.629477716191207,2.1706412496571708,11.463169373486792,21.230330635272075,26.675362509196532,25.211449795193285,22.679382446306853,23.617543290152213,21.949945468356084,9.257665047793404,-7.905997158878818,-15.182911818936097,-18.059797402796853,-27.478103313340732,-30.759620374078132,-19.298776121557843,-8.769340397947836,-8.978106928832766,-15.64821136636069,-22.458447462985,-21.117230090228723,-13.410635604558495,-10.847328993152894,-13.016440564625817,-13.365771608009823,-12.518002025458916,-11.518415445032307,-10.478387166734507,-7.320466123185424,0.9918413833307032,6.746093041880105,4.422331877987766,2.538438728721429,1.0104017031413584,-4.981914486656105,-6.5800223190494265,-4.569664178931424,-8.814903778270246,-10.313249006024389,-3.9549075507305,-1.723492947024491,-3.3270810463285514,-3.963723885388161,-5.558036326275619,-1.3912586989302778,4.211378645729869,-3.4523542667976255,-10.070266228188041,-3.647833175834233,-6.194668671608836,-17.883995088797246,-14.548759505770217,-6.522008744082623,-12.561420355587103,-18.315164959859835,-12.81416419867039,-5.375375666384085,4.683301831399032,22.762397306133877,33.48721015744887,20.480383132538662,-1.8301867650275518,-9.881520737036485,-6.3089163697653365,-7.887610737329933,-20.749302433060997,-35.616666947835725,-39.250294552447045,-35.32657508451011,-32.758470103521056,-27.480017987510465,-26.067797017330733,-31.271059526251825,-9.517745070425477,68.6427476455705,195.816950919689,285.68602393781174,168.19222120870882,-136.31694490712,-295.86046321673336,-163.93983655486528,-15.54129719866447,-19.084045974243647,-33.481207580084146,-2.7885769932317928,-1.1549198680765471,-6.953226263239786,10.930959002074147,8.231454005739733,-12.324617511987583,-9.567708619037445,2.4909370340723536,4.170112869608863,9.419367783052108,9.336878001699311,-9.54718977119749,-17.39206152180078,-3.535553981377906,-1.4621393946471954,-10.448235510961762,-7.871891717835488,-9.3271649434641,-18.49446154485562,-7.7562677484410685,12.421603332807269,12.136168204036695,3.7242195095263395,7.648172981321915,16.72753781298963,21.900913206282357,21.874682099207718,17.480805925431756,15.789058681511156,17.69775206252504,13.17245847444617,1.1680477123475637,-10.716692166515237,-21.161811489358858,-30.01224098943975,-33.09254171991185,-28.22396061104188,-19.270566010490732,-16.796534632857526,-23.654045377358962,-24.409037214887906,-13.26814517705781,-6.842552541819991,-8.890303203088848,-7.132878742840395,-4.306490884482638,-6.427270624395945,-5.173823694695326,0.9298091224908731,2.610879177578342,-1.2153378781705193,-4.198907233316618,-0.5056199236056376,8.182872528592508,9.537228529091562,2.2994862907941815,2.295727834450952,7.997363547148509,1.1923177565773884,-12.921898974006664,-13.548867415778592,-1.8293637232247288,3.4671813709377393,-5.7944722133018765,-17.453926105930694,-17.673283071821526,-13.005995658910173,-14.148864219521466,-15.463602675091595,-15.529189727733138,-19.263428045456166,-16.64704103065318,-6.289613482992213,-5.08012470071764,-9.049001692008392,-4.784910080827685,0.4359268473905189,7.433438040350362,22.199154153304423,24.87674887035243,8.813816717955405,-3.158022814570807,-8.839608802415873,-18.58863607712123,-25.113290352822254,-26.182238353599747,-25.480452229159106,-22.3098537591235,-23.83568086756227,-28.513695586030654,-27.156260046475673,-26.422957409889417,-20.988156432210722,15.814848368796973,107.37242330765338,238.94014743903426,270.030348188312,55.456614568220395,-229.46290390453296,-263.1428249274206,-97.02108951582625,-10.725102369979297,-24.364624618113652,-11.455393414434326,11.054003946626612,-0.5371936841057945,-6.895791672833116,7.393919050148256,12.415371758435697,4.349872631811543,0.6257939117538336,-0.4639379250076381,-6.899392260158363,-8.2794128071138,0.8837750856609485,6.290879243259848,2.279328092994721,-5.328526121867643,-13.19888480426851,-9.370645574459779,9.612297194302952,16.64758295499591,0.14758239884502888,-10.112379385544564,0.6965528966915135,10.521834401449382,6.680744520487384,-0.19166128534023485,-3.0243685910439275,-4.704202007017105,-5.212123059748347,-0.7401933092047415,4.949484005796078,5.927284217553302,7.418495104453957,6.180725724646257,-12.928094015163468,-33.69137041758107,-27.688132165304623,-13.150318568235846,-13.935954323247627,-14.870685562023883,-11.94300564858201,-17.99196943576917,-21.336811505298854,-14.777094416822294,-12.70566112073447,-11.936794886405728,-1.8715864810988325,5.397643623990589,0.103654107760077,-7.7352273874459385,-9.44922373223244,-4.118185677558075,6.350729023378624,9.864100169826804,-1.2929705976459474,-7.649429541079496,2.9169066609557532,5.623332477440746,-7.3310424509847145,-8.532798538532674,-0.9305547887914294,-8.176820002298413,-13.420450749653572,-0.6964030663526213,3.992349683576144,-6.933303523719347,-9.183189420517259,-4.656698569662801,-9.225853127215133,-13.44413068694773,-10.74435456363266,-12.670444781589818,-16.165797315699244,-7.7815344054387765,3.6967990426178243,-0.6507661113947307,-12.44313269726345,-3.8149362103235442,22.070595771302507,29.555516414875097,14.67820113358826,7.957819703039702,7.01884478086393,-8.563650427992439,-18.203962740656827,-7.537756313527076,-10.975870708593254,-34.18973310785447,-39.21151506544359,-32.69802457377686,-40.36926649879365,-42.00288714209096,-36.05407162794338,-42.025340898584396,-23.351165361765904,47.67724847341812,150.58575609801966,259.9894198146258,252.14733985208983,9.474729296064446,-251.70606042640492,-236.16445710999616,-74.8347458148981,-28.70308119478404,-41.79413001588581,-9.200625403629509,7.451675871160841,-4.313998501848083,1.3270290611195623,5.331101327560385,1.6754413742323155,11.777872854444166,14.970697967224574,1.1621647574657938,-5.546046149164026,-4.790502097275171,-6.288914384234994,-3.3288477571248762,0.5779089281544891,-4.578891888928423,-13.28961378793997,-17.374349526728768,-17.42418336781471,-16.41469229667887,-15.412009799806142,-12.714904137146105,-8.119970022249325,-4.186660306398139,0.6740200587273844,6.88920577563669,7.278763734589493,2.649383865651228,4.940282420625897,13.126118594950695,12.922084858165935,4.05541531550626,-0.4426316553986176,0.2581962155114823,-3.9997063313069123,-13.250953208002564,-18.621691498413007,-16.774256742436997,-12.115198214486993,-12.387512252961699,-18.72254669186014,-20.028142555078077,-11.19659416555627,-2.0940680911202545,2.2285595893161307,4.138105819790015,2.0348829159623065,-2.1592462439894398,-5.196110381723592,-11.637606459841532,-17.98731914119518,-12.66909701358787,-2.522836318686192,-2.4327059397282227,-5.194215708963426,0.9951355077434023,5.534677506991017,-0.4358786547197342,-3.632150305984732,1.752301108179294,3.5964416392512035,-0.05907112452434049,-3.13875517456043,-7.281330010127912,-9.582479841272708,-3.1743328653346543,7.495789987424498,11.562239769189839,2.662740392385585,-12.20909346678603,-17.263863354799597,-12.600957831235448,-10.34166070774885,-11.677868614590857,-14.325069753275548,-16.219401829559118,-11.472811286967083,-5.231927078206663,-4.479265271392682,-3.9210459022672275,-5.899583016327272,-13.309585817489427,-11.506820459492905,4.656813883432736,22.194216706324546,29.97007386980293,19.837382647273998,-1.477653172193584,-12.839231404586494,-15.248047390445588,-22.216131984478558,-26.879707348128065,-25.506864145876058,-29.725429585662077,-35.94876924231394,-29.687361052458908,-19.878303582939406,-30.62764847328318,-49.29491680891687,-27.781799910466095,53.16229512321823,182.2698223441012,302.1309376389112,243.00955072667836,-57.12393596146854,-296.80331141679903,-215.79847140914634,-29.835907510174497,0.15185036255538797,-27.22479381393447,1.258675140736532,16.95202369434586,3.7817945052909216,4.2675104146280525,3.4192156458628737,-6.273799693151684,-8.235652213059428,-7.17860491548998,-4.647057263816443,1.2913160583212893,-0.19872846487407436,-8.725732400944281,-13.200437032946434,-13.403016547701823,-16.21746308991812,-20.49076095504106,-17.15784123629381,-9.94115398791648,-12.25437417418505,-16.522804109333094,-8.117789009563825,3.9751001021742343,8.078279867484596,8.425956016058596,10.23576832379126,14.315740156551762,18.11367969628745,18.477227249299496,20.557202441358214,26.091885156254605,23.012767152780846,8.980490443758475,0.5361648727748296,2.616957562004668,-3.148338856320043,-24.993709994547885,-42.48795312134605,-40.46567863327463,-30.71539707547232,-24.066998417163404,-19.500216897829223,-19.498641256648845,-21.15697449673732,-15.440918600071981,-7.841008417157024,-6.559073958298741,-5.621459157306202,-2.4802021607096876,-2.5336269929714046,-3.4010078638597676,-0.1220923015910973,3.255450450644492,1.0846928483930505,-3.0677352416366848,-2.7142936999196046,-1.4436827304288329,-4.2746683876376474,-4.613130887893707,0.09925163066340836,0.6474019921229459,-3.3407174170209544,-4.2842369532636315,-1.9449096468990534,3.8550346391113948,10.905630776583848,7.421359055935074,-3.547461501593382,-4.434173917104366,-1.6474054704315346,-11.941241137806355,-23.261542445798895,-20.09687249370282,-12.147383441968547,-8.182179868667523,-5.429458625781702,-5.957137244942999,-8.85958450635899,-6.727410071367547,-3.622938511610295,-7.637712341449911,-11.64708722023379,-6.9021888655935,-1.0720061682102262,-5.215201507236568,-14.039329815362294,-13.582091859150394,-4.081265972109916,5.060754430265641,15.567711795004028,25.4088876718886,18.92392122324481,1.175482613678998,-6.126754971801753,-7.746673645833983,-15.198215880703419,-18.552060201308162,-16.694374306528537,-18.402569755030807,-22.66830840181797,-31.884493941045132,-37.677076342494956,-27.2815014697033,-26.335504546174416,-38.53857502335023,-8.122830172121716,80.8510999157952,198.8600955688154,283.3858056678299,179.274062120525,-121.79651491162944,-295.7963763374549,-172.12639647460088,-21.339854883193375,-20.905288824901024,-28.026517430196446,8.476429187216738,4.012260687068544,-13.187884070197594,2.632186648116205,6.701108599667222,-10.723630948275567,-9.618347610819391,5.01444657513768,4.078239219164738,-6.894274260500136,-8.500374458468972,-5.433446194131339,-9.391930534099332,-11.390412289392927,-4.631946156248368,-3.3903943258821236,-12.007426102804203,-15.015000008816674,-9.070801755565446,-6.949330919774585,-12.060096196237573,-14.52698226557991,-7.679274172785245,4.215324133993357,13.264268267027921,16.626108856074488,16.34025361641313,15.535714135630773,16.47138165655646,18.779958145658725,18.884383157804475,12.466048233819226,-0.9880671406577122,-16.20680103574068,-26.181921129112748,-27.169258839115983,-22.322429956608143,-20.484888688292628,-22.20888632787196,-16.971832320571245,-7.309186313805915,-7.866544611831703,-13.48667698456991,-10.219659236547834,-5.757457179560721,-7.013413019365146,-3.695008982615734,1.3605829016620952,-3.8585703329113645,-10.095676215057896,-7.29475282800383,-5.5717400713833705,-7.55629927681356,-2.805379013906739,5.016314529792398,5.345883917437673,2.388163710145834,3.149131991858431,5.3635208492494595,7.396789295642118,6.730152465906599,-5.191535046114385,-23.064746540009505,-24.68866404736074,-9.746403044506692,-4.428814423902939,-13.183438126764013,-15.41957271832565,-9.021260012483712,-5.695308381721034,-3.8398245597334135,-2.614334705249293,-6.484017470566039,-7.2606182405384905,-0.4945178101380705,1.079020003669667,-4.3783391604845985,-4.04989794462956,1.7670110419520775,2.9547750480285195,-1.9588429618776289,-7.082490333215169,-5.993886403506174,-1.1756635126928394,-4.267675453188321,-13.717166167809,-14.836152079967361,-9.363848611561021,-10.252496820845195,-15.194787850834425,-17.66480456650881,-20.89291773376689,-20.621223906445138,-5.369793685134643,18.8950989299009,33.491840916763756,31.42374096395499,17.92487198683252,2.158441664262898,-6.935112075730528,-12.121876940428955,-20.837833345889564,-26.00515883740936,-22.449057701254418,-21.69315261045346,-27.35912498387335,-29.37544414473328,-28.0322067306276,-34.819641220213256,-45.680477679175425,-33.756110195815495,13.556795145049247,94.09141961782575,214.34161337821757,282.8689698986053,120.78417394276183,-187.74465979928493,-290.5245805089429,-134.67586848220887,-19.227741272366252,-31.455777432380113,-25.08235582000351,5.25750601797267,1.6429837015420325,2.5492634169684827,15.384434847000449,8.740750891170173,3.759461661167374,12.394203210710158,11.29625969254441,2.3337762956557757,-3.9062645711874247,-14.066310245432431,-23.361240025727927,-19.750129079027335,-11.633179301533126,-13.008153494505374,-18.31968117555689,-16.58152222036678,-11.460935956906575,-8.180126607209173,-3.5556099133672623,2.2788269330297983,6.813037901484569,9.663149581789469,9.515381481324523,11.692083452673259,19.215330106811898,18.449518643861445,9.176999038213236,12.36091168606629,22.552414565845446,15.555830942545736,-1.5893333625984516,-9.474892036502991,-12.476700304840573,-19.94734820681183,-27.521259646552764,-26.98001605327847,-18.272416366200673,-12.792418150450153,-17.73061600382171,-22.30107996471908,-17.458532164838715,-11.167708439379687,-9.255936906095123,-7.028809481793424,-4.005297416231178,-3.422794288906587,-3.051250550983921,0.2332769899622118,3.8279815798939056,0.7884567178028448,-7.10112784658911,-3.9408763695518845,9.275657836349353,6.946505499091932,-8.896989214979541,-9.503024751038005,-1.069173784422354,-6.2940189601724015,-11.672237496882747,-0.8671022868162197,8.344188397479417,-2.196188652293067,-18.91013526004304,-17.256058063356107,-2.7206791926079728,-0.26904033474536604,-6.46253749311891,-5.159567902252304,-4.312324258436091,-8.299619937451814,-7.806890021137436,-4.699279550166457,-0.11487278992405336,4.56907946205815,-3.307165824460178,-15.265337028391695,-11.498194516282764,-3.4581423563282767,-3.6300622753877168,-2.9874267493767697,-4.82098943517231,-13.676258605239134,-12.935160257532143,-0.899907010636058,0.5682523883185979,-7.195121188984174,-0.9801463006868314,13.223058073145816,13.890095186814582,13.735366577459995,21.73472480724449,10.749685467608884,-12.621127283723625,-11.677279952628489,-3.95335672627599,-19.001762630652173,-36.633145330324716,-42.94767661028181,-45.3707147701146,-42.23801890980018,-40.54343539914059,-42.571229350545124,-38.50453458536512,-37.75401154271958,-32.82647056100309,11.91359244554555,107.04036895469577,232.89578093973265,283.1720242735078,102.28346400923905,-199.81791771085088,-286.5416822611726,-131.4479418386831,-17.99122015549562,-17.48591891344067,-6.038421294201264,11.700666159312895,-5.737428392178931,-11.855366507405453,2.9558167324849434,3.4945895087561762,-2.6709919106403888,-0.5365307209486776,-0.13825513952843593,-3.499151876936782,-4.4510129451914295,-4.998214027644002,-8.216611428777108,-11.461411908903628,-10.559099177412728,-8.211782099751524,-11.405102408813075,-16.702804209873428,-14.576514699905143,-7.579745606550384,-3.648908623392659,-0.33321398035818905,6.989469971686283,13.317965969876862,11.959385846848996,7.438717427465871,10.284540599360353,17.743499202200972,17.513476392250112,12.732614267328174,13.704459383988572,13.726402094777814,6.015102068850059,-1.2233956200949319,-6.208267361951632,-14.125456447233244,-19.57840092866677,-17.83064182427598,-14.25237388944652,-12.70019128440742,-12.547460673480048,-10.791132030753534,-4.016324684802374,4.173684593617534,6.934021877152456,0.8279945816702323,-14.696401814285439,-27.49347133501533,-21.006479131838496,-6.833632106296481,-7.837697153728993,-14.773765427339791,-9.495703841650933,-1.409957747594003,-1.4509107509965968,-1.6058671033890395,1.3812871240805844,1.2011150568415303,0.33766672871783143,3.0043992351731035,2.5683862990589237,-1.9628219916145007,-0.54496780769058,3.475380845681281,-1.7185012762309615,-8.89675798696794,-7.947250482288981,-6.866481242275677,-9.24186750702914,-8.248907693936316,-5.764046427884576,-3.5984969042137536,1.9235609745396918,3.899302156757072,-3.331738295810993,-8.740546203221527,-6.090600217490977,-2.763795838596524,-1.4535499307671476,-1.9444702538351102,-7.70742335477517,-13.351569437655742,-10.954918168640368,-8.079864532584207,-11.57309934101325,-13.780727732434448,-13.786533448713723,-16.579483343529553,-12.833044559442804,1.860998345391522,14.905259785899357,22.811469486684906,24.832173401211435,10.493147052265744,-9.157073088250248,-13.117007123846015,-11.310339832271755,-15.039043277282627,-18.7845923890728,-28.77289951362419,-39.75542739465884,-33.238090122704435,-25.824235799151474,-31.2462817247653,-31.461868340524756,-34.072833559179266,-40.24604366792855,-1.1569946768309762,107.10725573236957,251.09713864633656,318.33154827340593,145.14875473539757,-183.7182375576099,-302.8690930035675,-134.60007297219997,-3.2621161936051415,-30.144008292402777,-42.72711003280586,-9.021239414808427,-8.593328284995877,-13.691913557131013,0.7546155009285478,3.010574704994795,0.10166344567443097,4.93742213105933,2.9387103340800085,-1.6095927022265997,-1.530176767995668,-4.358152047201285,-4.868434147621063,-0.9079920470866085,-5.308724726584819,-15.184431006823164,-18.66771049351267,-18.184575647952798,-16.628224119951994,-11.441005640507512,-4.565418594956009,1.0329540788461342,3.455693858306879,3.2536779448966398,6.581388722668992,14.487906114015,20.278877147905902,21.97971910872439,21.905123478993865,21.048303100813577,18.61464431913459,11.900665993308813,4.35738194550681,1.6866974052953538,-4.644731925245612,-20.031221585302255,-29.01663564783552,-25.097227324855496,-19.995535846860047,-15.843153737349326,-11.231396441718204,-12.492810937504252,-15.354437326967464,-11.698619257689895,-6.836342555931665,-5.213659464751823,-5.230390511601433,-7.767497025083589,-9.811396608096766,-6.443262514713581,-0.9150147121271228,0.31646240046972096,-3.1555755822009877,-3.774607271526632,1.8362740313354484,4.769366175259307,3.4047497036494194,5.247522329590302,4.606893201010807,-2.006433069271022,-3.9654214299160326,-4.460055154679161,-11.37868890773234,-13.920558645125153,-9.157678679244682,-7.983712355367301,-8.175167831694285,-4.236678741866317,-0.38110651445402866,1.9440052159531724,3.2986094074297636,2.33431693966382,1.1970830780528487,3.574199564738232,9.539643186410897,10.190758785873143,-2.567269376572515,-13.896760153222488,-7.5492390571138905,-0.6221489785572452,-11.249066347681303,-24.56176981623756,-25.951853421033825,-23.567600218858978,-23.483954899916593,-20.751009149015466,-15.664210185442467,-14.61626940117764,-17.283291194570833,-17.387939249204884,-12.528433686093287,-4.073908091876266,5.675614385760755,13.787942186790925,19.445344821503063,19.705022833916885,10.06156193325609,-1.8455335174452827,-6.766643765569981,-12.563786592404842,-23.63611442278935,-29.432891520878417,-27.557603116315228,-24.605345750293697,-25.208087736222364,-30.45057509259102,-30.714796758219613,-26.78162645773135,-36.353159700442525,-41.148107619574915,0.3775930761356108,98.0767376177636,234.96289832271862,301.94750567199065,129.52071273779075,-182.5347959884799,-284.3720847279646,-130.73356117504903,-15.009485164168563,-24.679742391039408,-22.39938378602277,3.6854463862823152,2.0970747984968305,3.2142485421939906,16.243849391062824,12.857704448626091,0.18650085102564873,-7.745021483810681,-10.648587090637072,-6.144779798467894,-2.920300456838401,-9.560420970081951,-14.224723110652777,-9.281825224297785,-5.6189989183886375,-9.436619394077105,-12.806241158071119,-9.370900293013642,-2.569761675059019,2.2001962994881925,3.328055198349279,1.182631846387785,-0.7647102799798576,4.67413085169707,17.621708245109904,23.905631577561596,14.069110534530605,2.097205547686116,4.209370657380076,14.592577507996944,21.15999354294222,20.257445249160728,9.698530320231757,-7.196729913002862,-20.179892603341997,-25.34546915394141,-24.375747509208146,-19.865589447422348,-18.406711330350994,-21.335756095439706,-20.57882346851423,-13.723952315074246,-7.532167904975026,-6.235883809490932,-8.142918197974694,-10.618146817086025,-11.022642019256418,-6.376115054991294,-0.7853590948674167,-1.6869075829599574,-2.668993277705024,3.168051701904772,4.730287374038221,-0.6287206908569178,-1.4432339662293785,-2.3309373387472583,-7.739471091796144,-5.695030387330769,-0.022836090554254618,-2.780647766892634,-5.525959262557292,-3.2040241749880956,-2.323078738085303,-0.48832313070530287,0.7723671327865755,-4.194920491546571,-5.939911059744858,-0.6548263159260843,0.8938472802821114,0.2775150053243358,3.305714753430095,3.197357180233112,-1.907176682320035,-7.339980901743154,-12.522077157889536,-12.89114491091728,-6.593344030137559,-2.5810001292127307,-1.8541118283508489,0.9089801878868915,-1.0063611419123397,-10.78258459559825,-15.74365254210641,-10.662392132597201,-5.675193652414622,-5.694472050733699,-6.842580340503709,-10.488471720123176,-17.485078894296045,-16.99772713447345,-6.06220949970864,-0.9352632807482522,-7.400637800969701,-9.445731190617074,3.530099038343579,19.204765228083463,13.020678973784408,-9.002932657005054,-2.3247282452570026,26.682817079797434,11.694284228021067,-34.854558788888575,-37.38455155057566,-15.325712631091903,-26.759717903329438,-37.25689700166619,-15.41550045162028,-12.217885031550999,-44.593746339749046,-58.120495334740504,-40.36487627680917,-33.21569675908614,-33.37772326679,11.150193777720332,128.05955003940235,277.86220552670915,310.99088690865597,87.06667919002805,-227.194194485565,-289.88494772361435,-117.10686841522138,-12.628996833814348,-27.33536700037457,-17.48786047354997,4.220457036287918,-10.83006238727058,-8.279495701381824,14.582779825681998,10.356577588165395,-2.3054080928855107,0.17294773376626882,-0.7007056383982544,-3.7998790849485857,2.811995402089263,4.052735497721732,-4.764390083775659,-5.25890157484819,-1.0632663138612806,-8.516145164249666,-17.245432965606735,-17.173774805906646,-19.155064709976948,-20.088223828775362,-11.163900107761974,-4.808388324979061,-1.107158787330285,14.539469451122837,27.540933816186676,21.157443022997242,14.675784075042145,19.74785856444157,19.257165457996123,11.287184838543611,11.662029306352647,16.730001123302607,10.58804211112276,-5.014000679990231,-16.782002984728642,-20.90812290480728,-21.565535564534933,-20.647137470388735,-19.262469149167018,-20.061337632120317,-20.0958495931278,-11.232399956605008,2.3896234975818,2.437819625159248,-13.885557897951145,-24.787041144903277,-19.140595166032707,-11.279616992642369,-10.510676115553158,-9.210931125282173,-5.934733836807094,-7.266925801655928,-8.109051919806417,-1.119353775823095,5.348257333893196,4.736141984888288,3.2667874430145805,1.303653559259228,-2.385896442670856,-0.1304708621538957,2.6635013359676414,-6.6120462792947094,-15.391205384215148,-9.142922798258471,-1.7047460239930636,-3.824380861412214,-4.127900714269353,2.0279214192634907,3.1194533878833486,-5.136939740236809,-9.297764938043931,-2.006016672441854,0.7502574782049845,-7.374136876389208,-6.776236556758255,2.767194508117184,-0.0003323056909234623,-8.917964467558258,-7.176872102985328,-3.4735971438199407,-6.230486481221551,-10.809605488624648,-16.37925670564361,-18.190187623216666,-11.817117360203557,-8.982136034722853,-14.217211182204688,-14.148272709787694,-9.068330931798373,-10.707035572569,-11.408661311755548,-0.9717617230501432,7.617024880083046,7.08286109647293,10.595755091688346,15.169040062157368,6.043600238999998,-6.573260494414965,-11.158287937937644,-16.646787081298548,-21.37140363225302,-19.518977473780847,-21.816413638460446,-28.38453790330105,-31.437587802554667,-33.395224932698326,-28.419842011225217,-22.965434413285173,-36.674974152136194,-39.25221413768326,12.54229613364663,116.45679889371686,248.1715401325216,285.1581059803313,72.48027169756391,-226.24285080835804,-265.2269139863201,-91.94430550670846,-7.602216275788749,-23.59068478809065,-6.691721741943688,11.795401328557944,1.122513597563339,5.98888839497783,14.6990158185909,6.576324857643703,-1.0747122304076147,-10.377570932597548,-18.411728882951216,-10.245888855899032,-3.601135268022583,-10.459251230038113,-14.187623137360099,-13.744095955341734,-15.037229152189035,-11.363182063928296,-6.928147419663205,-8.92640371355012,-10.701103382153761,-10.117426703352368,-8.061912398664646,1.7811954657077425,13.251684287781321,13.335683269927802,11.752891745355711,20.57298993055189,24.686763555463408,14.416694446180678,8.854015832224462,15.296802557754171,16.392369370172545,9.596270038859679,4.158499497509304,-5.000094862288216,-16.265387838415894,-17.898846456696837,-18.60754136045015,-27.116756092079605,-28.29194444036667,-18.09896855972942,-11.442321872823765,-12.310085175494004,-17.215167095183766,-20.923802395230762,-13.917683529103401,-2.698978604438542,-1.7725190201127177,-4.7477647401529985,-4.2957745986068865,-8.039354633043978,-11.603729675380702,-3.7811562062497988,5.498046640813616,2.9140636870849512,-3.4267068790384325,-2.0479251770456717,2.2427279430267344,2.026974899178943,0.725230820552274,0.8021807569753641,-2.123552183184911,-5.408092527959821,-1.1857352416320044,5.829910900160598,4.605078533612807,-2.24379886620523,-4.775859258361552,-2.303931272691054,1.019151718143359,2.1325762718028383,-2.3194174084211028,-7.059027302118597,-4.404779355468495,-3.6081951032926547,-9.962109125791931,-9.485572462535975,-6.108562003025961,-16.3871879258939,-25.57914062629497,-18.247028316086862,-11.965548980005408,-14.549929078319332,-12.974136526919992,-8.537729678037808,-8.585402236104173,-9.465793711201485,-8.808340204938393,-8.234217256279788,-7.906787706166561,-5.832089606254801,2.9624640732435212,18.765929165944364,30.49292369361923,24.528138424807267,3.329305279079046,-11.062577575434084,-10.948317881943076,-15.542930212605551,-25.501131100572593,-24.486702899347318,-24.852887871010793,-35.59476408986514,-36.08309477358966,-27.706355644858427,-27.89596014338678,-32.08193434067785,-36.69885568081248,-33.51272395627424,2.5004086696685235,85.72453262406242,214.47824564825967,292.9792598933565,141.0109606555459,-166.98889506945153,-277.79622082801234,-130.8516001962664,-21.70071880121828,-31.73146843936514,-20.20569920633548,5.866153241700484,-2.872987140957001,-0.6597472155957771,10.881075296134851,5.599749137330818,6.660424269210155,7.684084981977418,-5.093114648472422,-4.49382111507398,6.083001451432371,2.2305128327866868,-3.4865955980440626,-2.990759338864823,-7.882712639908279,-14.92346308407869,-18.931149523329417,-20.1905215459257,-14.305867019952696,-7.283318892460416,-7.642121794467422,-7.5785726873139385,-2.5212415354691657,2.7417877014204706,10.843362690266492,21.16468723196785,24.5896031144014,22.81832602139338,22.082681620326255,19.40172401726906,17.277460582991125,21.79875767878004,23.542181365736234,13.010750177146932,-4.308190142823543,-23.402277927488356,-37.125060899035105,-32.91152123286096,-19.29993518024824,-16.92661024206033,-22.560553885498816,-23.663208536808533,-20.93756397512361,-16.138161000513286,-11.225667638878466,-9.858456057602423,-8.056176034039357,-6.870215696905962,-12.042737621983088,-12.4970619706294,-2.260269645370073,0.6655126397741746,-6.571114190308252,-5.886958169104491,1.380841953825378,3.555120602878006,2.9786134481712008,0.19093469772590232,-5.719490940446491,-6.063195711286793,-1.379152148533798,-0.43341207162063,-1.3586422782373138,-3.062842583707238,-6.0756299089952925,-1.3820618664816298,7.286590277294072,4.057766898716152,-5.2830416862773415,-7.289517176334066,-5.925244179999943,-4.784561415583361,-2.51937796034378,-2.465782853800448,-4.2785556054646925,-6.810642443403626,-11.1875303879281,-12.2740687240156,-10.153905314698967,-11.217327163090362,-10.642683622362213,-7.317595030507718,-11.248528904065497,-16.353737385183713,-11.19652888320362,-6.61841592173873,-13.068042814401444,-20.58231384191113,-18.76528240622764,-9.37451483238403,1.8445282392091782,13.74260517046083,25.34173093234005,25.384382007986044,8.638104989182052,-6.3821048484125935,-7.5397340375314155,-7.761093488411111,-13.27567428797125,-17.420818144049093,-21.635128569056857,-27.71411534874011,-29.94273844623492,-22.574555099588487,-11.072955204901724,-20.027116556347767,-49.112748768257966,-46.88186242234606,17.970976192508672,137.59762765440308,268.08560782113943,248.98470979530032,-18.614377256634143,-275.23401641024236,-233.86840906827294,-57.04349063965459,-12.38230662705783,-35.21563390056548,-8.733966247289011,8.776242331707003,-4.328674949712198,1.7092020080168036,12.330886733121023,1.2516017545323823,-7.654152739911735,-0.5159377730972681,6.5352051191941225,4.804663226784909,0.8572053008888929,-1.943910403271122,-7.002805897085263,-12.817132533033732,-14.400003437917844,-12.20502562848381,-9.980902751858423,-10.09579061312817,-11.126444023658568,-10.549639280343523,-8.885042971666733,-3.511396560353693,7.814409161286141,16.019304647634723,15.604325302259424,14.508442781760412,16.619846716963746,19.536632341305122,21.860166398667257,19.83203709884593,14.927819980108755,13.080121760384245,8.429321610972845,-5.074210677286934,-18.29296538590291,-24.302147334914604,-26.489114872195714,-25.924314676894475,-22.303233178175013,-18.94569690875401,-16.662319664141425,-12.66611057612702,-7.973474530384294,-6.931454398903469,-8.241261026750468,-7.745600832958072,-8.018991502618759,-9.261111644122536,-3.3288260450227067,6.268405163134842,5.366535013726324,0.021737693302711136,5.918068276771815,11.44673705672213,1.8356722690467802,-5.870051822172668,-2.2952223865267776,-6.21068249013565,-14.789511842354287,-9.34381758242022,-0.7340500200859399,0.4189607711694219,3.334692059778539,0.36411787123318895,-14.269393939570865,-19.191540314472615,-9.799616198604097,-4.494366460010179,-5.893232672140623,-6.971170669629204,-4.896705965464868,0.4868485502483857,-0.42569432578502564,-9.832021875499963,-11.278371129266095,-3.273680522308412,-1.5831325484209007,-5.878452202962572,-9.91816954421822,-18.316207006848575,-25.18444665602188,-16.72562815448486,-0.6148753499695481,7.850247159622279,14.848036764926924,25.249513855458492,22.930421149791172,6.952613104571817,-3.1576456939980098,-10.686846759653958,-26.256386386307263,-34.08688338618067,-28.605886099652167,-27.39531148027815,-31.948806180799615,-32.86509259342854,-30.285040793752938,-29.743183018002107,-37.066320827767676,-36.598221567307604,1.0283138114438728,86.91380999498364,215.95348377144194,291.2948126396459,135.13103457108406,-176.8247110495493,-289.6862770867791,-135.84154821836648,-14.007865620107502,-21.012806851086285,-14.856976389296761,9.92145158072486,0.3068520701828561,-0.5793373713589438,13.10524203020806,8.80785344110001,6.038248299200024,13.449219097298673,11.817823877174575,5.048168593879286,-2.5293495665004535,-12.905368447287143,-16.40222684223314,-15.426098924580579,-17.032334883454652,-10.421917611976875,0.9100595474223638,-5.349506982027638,-22.79283343248804,-24.37999449981393,-12.784919501855104,-8.426787508842672,-7.825670495421718,-0.01939585838188762,7.106715538815871,10.372497724014153,18.797484538432688,26.1151492665499,22.4253948685198,18.375689767356008,21.33521239094627,21.002863993434612,13.245001570899237,3.231826160734867,-7.902923351637155,-18.109179339098993,-23.64911672904691,-25.441113748481285,-22.760049780287872,-14.901755509944996,-10.345294030810157,-12.848403701632018,-12.747162911282466,-9.20765222170045,-11.55599416545061,-15.029622503080347,-11.890723739218476,-10.058826752469772,-11.366147380082895,-6.600628982066846,-0.4988038766963694,-0.49365460473966394,0.643123876248568,2.399208283954053,-3.2098812325935704,-6.414585960278005,0.34813449511246386,2.342604561033081,-4.678256184602578,-4.339302896295386,4.243819422239471,5.056648153973611,-1.9295246848165721,-3.3483423047282557,-1.0222406865288054,-6.5727501565724005,-12.631718992031416,-4.76649211705968,5.480253941517729,1.9311706767255927,-4.228008923611942,-2.4522322062683983,-0.25298212345827675,2.4257619978197367,6.053778808531365,-0.9655348708866889,-14.646548363790384,-19.167899797024475,-15.474267312661102,-9.024368871835126,-2.6027396159439267,-4.940687954645991,-10.596246194257798,-6.440713720030175,-4.766716169671275,-13.92777555117296,-11.556974418525654,5.3647090417697605,12.26359930793649,13.30325276156264,24.04893935072407,25.667073922689717,7.980334056145021,-7.357006512468221,-19.34118667194368,-34.40036352081981,-31.66529177944821,-20.57069282009467,-33.804316093860365,-44.67465686475198,-28.562029776238855,-26.12937586380294,-40.857178997326855,-35.25138735843724,-26.30051293542634,-23.070105934239958,16.35654622623712,105.21407354931348,217.86138495403804,259.63241298699586,95.0020651054329,-179.6968484149117,-265.25989167120997,-132.1061885947611,-27.934248946884352,-25.042665471119967,-18.001856583043754,2.710969803260035,0.3764229074055123,-2.128185706342612,7.422652129591574,10.825880609710188,3.514439819180761,-4.039209223787229,-0.5496420909643067,7.909322973510313,3.4905981280757814,-7.439630516404195,-8.97320539787069,-10.077094437766846,-15.956285551835919,-14.190041269072484,-9.216691727200807,-9.364266477598225,-4.5025711254091885,0.7707632483562641,-6.288801144129284,-7.926867737284411,7.763494297090847,18.489004086758534,13.743359210434477,5.261710432250816,-0.6829066606590786,-1.466671672022838,1.4858003083295217,6.188776614316744,17.56552484075948,19.97359856827166,-3.25745537512001,-18.115205016592043,-4.108082221995495,-3.9217815241804086,-25.78321268451303,-27.382550740100775,-14.529107810832516,-16.33065731333011,-19.683305085576023,-14.222052994940606,-12.085848812675307,-12.706998656615148,-12.789191911402522,-13.3112643618831,-6.353287024133742,5.432794899841712,6.273464879321802,-3.338543306086809,-9.536285948678763,-4.651938928595776,9.569018991533568,18.29047357183999,5.874998286234563,-15.311424839983932,-19.438664750562335,-10.154604715567313,-7.979796592424858,-10.236940326687511,-7.499210749136427,-8.848965195678575,-14.974623768109257,-11.828564280778771,-4.752148569428076,-6.430101408328401,-8.214527392177141,-5.579663204927879,-7.596388570261389,-9.852045499197224,-9.048874836499746,-13.5574358339564,-13.351248306992495,-1.402165084005098,-1.1721734074906873,-14.355288407984919,-12.400738973565694,2.5814017463933734,12.606989000990149,22.976578564430056,30.963886750780176,21.296762749015368,3.2095292697826174,-4.700820101496694,-5.99605002178823,-12.01142911066598,-19.730803426146352,-19.11777869983507,-12.691475925143397,-15.317167628247365,-30.416781242331,-42.674618462019296,-47.79745647303024,-55.34470722531896,-47.23898726255434,-0.12218927162717108,74.02004591105575,178.87686298018664,276.4653435151699,188.1684058258076,-117.53748146800868,-315.2863154771407,-213.8233941743458,-56.14669147742539,-23.11035142562823,-10.723445507398264,16.86047300839992,2.2283639287158152,-13.386847727152745,0.8179814051426888,6.261420561946621,5.341429466397656,10.422852735484248,4.667500550719701,0.3111766314864113,6.971835585815534,0.2137574960788946,-10.934376408820974,-0.2494533589431427,8.401439929798824,-6.5747552655113,-18.628527240874448,-12.289683118209446,-4.260302471829747,-5.391132782979873,-12.7352530318095,-15.051142132126468,-4.979495271882028,3.732578971109836,2.172897434166056,5.117550702438612,15.194307557179705,16.89546107475242,12.11632250998995,14.497473944983092,19.925578932047923,15.563014889714935,5.1992534024615455,-0.9390246100080661,-8.297464411935596,-19.68250386802027,-22.510349169397834,-18.98865962179714,-20.93854140229424,-20.04096035252791,-13.917716130486838,-15.780746878427976,-17.403785042608042,-7.1628878538706156,0.9300501079423107,-0.024558379584490808,-0.9454023453818916,-1.1080279157012285,-2.2218424186227157,-3.736320542900952,-4.676764607097256,0.2834661973689361,4.1225754494075115,-3.7356165870671205,-8.710078459922503,-3.3162907940683066,-4.443586841396259,-8.39062440972362,-2.668426835749651,0.4112966555100792,-2.092859036570225,0.30290042057027033,0.36625849477631167,-3.803461322135486,-1.8124245791508855,-0.6090567981669661,-6.22338427729042,-7.722158357644457,-4.72252704605793,-5.0311311125032985,-4.610409764721425,-0.3703155465318906,-0.112917081424456,-8.170612267938894,-14.328112305893388,-7.281569461893824,1.670930658101132,-5.576458509667784,-16.577180759955258,-10.158517799906596,2.310629866711217,6.6141796679790055,16.16317197776009,30.550259357696156,24.431752736723247,2.2778009406936923,-6.708488209381994,-2.7577713984477166,-2.0943761146558497,-9.273625571534927,-28.25316486622173,-46.27881854380681,-41.62783051604833,-32.26438252693299,-37.17305614556215,-37.48129453142353,-36.221581461427064,-40.79838494035448,-6.925595001191773,96.98834359829533,243.29804544632722,323.0105398684251,168.6048362132738,-157.4731508385804,-298.9722861709228,-154.2826909851205,-26.304332479160745,-37.58163112409611,-31.274739374182673,6.786837601265116,0.5784442781180168,-5.722132202800297,8.947136363572085,4.185350497961718,-3.632996085290239,3.292294755823825,3.981552546018758,1.6584837318108256,1.4249178739591564,-10.793187618440424,-23.434098997398838,-19.8761220216662,-14.689761061099663,-16.772820917339544,-15.655989640783584,-13.73441767343541,-16.673847478729108,-13.720945041604779,-2.697948421196955,2.5924005795910503,0.3057656921473013,0.8600151513647141,7.8459620938794306,17.06966205629832,23.042654005193967,25.37533387111437,26.961385275299925,24.648245233602218,18.342184645313047,15.612127586175134,12.950378290552123,2.0244118219601575,-11.785134387149135,-22.572636489916057,-29.47893342431837,-28.944250368033238,-25.055529477049262,-23.845515809796343,-20.42492040367064,-15.994596573438233,-15.876447698050843,-10.773144757279562,0.98714146866579,2.67083652835397,-5.7083870372827406,-6.8664387967193505,-1.4865533932225041,0.586490902038789,5.420118675608368,12.847950348996065,5.104239778312488,-13.39254273447362,-17.534135726861642,-10.241967232550714,-8.548523916902605,-6.7841364603019665,-0.9852685738356772,-0.577122218855413,-4.535321420020452,-7.1791204199078305,-6.055617016287691,0.26998205059994973,1.8478748373775646,-4.728196364289467,-4.0370712516154175,1.775995908979711,-2.3405914756677078,-8.161519070464777,-6.9939407918653185,-5.521823888290779,-2.516440510085486,1.8212472577565224,-1.120583912881571,-8.35725884482934,-13.363803460106043,-16.25542034123311,-15.001669616723168,-10.692707666410527,-7.027197661127891,-4.815156749116834,-9.32823725179636,-17.736835114416294,-12.911034331360222,7.075729552551346,26.08496792184569,31.914740586190185,18.627944953162505,-3.854987750746412,-12.764922973047122,-9.272169526754706,-11.187755225535629,-16.33339873319757,-19.017557470556522,-23.295624427991314,-23.47839179714061,-19.440277728684414,-22.523050919495446,-27.550886221088184,-31.880548278568227,-42.20668181068194,-31.90419099433929,31.934549421506183,148.32445892582683,275.04302784555216,267.27308881289434,13.082218124023143,-267.3798277754786,-260.75238128562006,-75.40596409304243,-6.219933368682145,-33.9001312254744,-20.868720167094928,0.30156894515396715,-4.460365246017311,0.3893629465312962,6.375820593082384,1.0497783763826476,0.20881322071494957,0.11394796998386614,0.05592716600023451,6.466544254879802,5.81272537625893,-3.856456329955872,-8.238493889510442,-5.878875038055589,0.6843468437489708,3.540753648321177,-9.82060455209275,-25.577405004586453,-24.17970155277788,-18.05264344842877,-18.235326232216014,-12.591526527015032,-0.3138126850472718,6.815967582009987,9.890528052676636,13.65567489301383,17.850660154240163,24.28933906188736,26.670977456916937,16.8929244587642,9.122602949938774,13.07030117273526,8.00968611496311,-11.529775362538889,-21.140203347204537,-18.75367273104559,-22.235699727168562,-28.45802413352,-27.436298923193597,-22.731744621822997,-18.716042534513097,-15.661214217020941,-11.650225889792168,-5.589165828934956,-3.461793180917512,-6.345576719275535,-6.200186707198672,-4.5992970742678345,-5.767464346124603,-3.5075896402550093,0.3973059383606401,-1.2768731795120125,-2.944966924165044,-3.2393963219106876,-7.093174852289911,-6.026164848564526,0.897975953084992,-0.44862942479573853,-5.233840476751687,-1.9787334694590424,0.2589050132035364,-2.5816380281841242,-2.8142320418884506,-2.779984704318295,-5.060783735672848,-7.065067947312316,-9.429776147591731,-7.911470486862221,-1.6548102550998411,-0.9582897503107741,-4.3472809678654585,-2.183623546572049,0.12543510339291508,-4.450855930018285,-9.278688974178383,-7.205876031895747,-3.6965190765002154,-7.237515770940664,-9.775915010017336,-3.706387557141623,-4.523052778635439,-15.334962300527788,-17.112332160193326,-12.95846706742571,-9.599081390886143,7.50380462129399,28.070293032149607,28.888312178596443,23.51842361198013,24.114161193366563,17.832694438975867,4.504069178387141,-10.29140224467931,-26.207640222936035,-32.03443647816378,-27.758017929383477,-28.10287504318925,-32.48587388938061,-39.6903667016046,-48.13802239210666,-40.2166653128142,-30.180910162033975,-45.47848904219259,-43.46076716150224,23.46506053025248,137.32147857302635,260.5254371608223,279.69550790933226,63.11346978814545,-228.54518782817297,-274.1494314617798,-110.77221718690366,-16.383687656571222,-23.39537368099733,-16.38819331233278,-3.4332653330374043,-7.431916261451942,-0.07132252005754047,6.70514964568743,-1.2097028378659154,-3.2537205946777004,1.5129505840209472,1.186122340855169,-2.5865738320677742,-6.906730365986373,-6.383354862346335,-2.025427837871641,-6.691073277690071,-14.903412481524551,-12.894966950130001,-11.023196081930138,-15.349774666827749,-12.928424503311177,-6.558713680643765,-5.80975999301285,-3.0324604251738667,4.014835667563484,8.14106375450667,10.879522000095902,12.235332054900672,11.461712995625508,16.3475850453224,22.635818405928646,19.241431014625526,15.55129730272898,17.964948388801833,12.856277364111502,