ECG,-2.4795747678673035,10.421530495192576,20.89210335325034,27.067097687411547,29.370093590493347,30.130313243227388,29.814089224691088,25.59002291997556,17.47653040893024,10.312723733174739,2.348681444381371,-13.095583923585433,-28.584171286330893,-32.690344102604854,-33.089340351462525,-36.290952141902885,-32.209861555675154,-22.5912841379492,-19.263867934846502,-16.096531322512764,-6.8122544399019205,-0.5699577706529784,1.3036236627851494,3.762625163932972,3.730138781162726,2.251123830326165,2.299865358255728,-0.8788608266157727,-5.397138200838313,-5.031733628422677,-4.797537035644936,-8.388651125930178,-9.796499174443042,-7.186865841680673,-5.314831087635131,-7.019575207927531,-9.255609521355735,-8.026377659238122,-7.144320136557026,-8.652595943650848,-5.488883031455602,-0.7793519762905206,-3.908754145826025,-6.876749786787493,-2.4750660527938013,-0.3073428881572333,-2.6145394281018746,-3.1459794990681864,-4.362877817327892,-7.407354421549224,-8.053792853406687,-7.127859555602447,-4.63024065340778,4.309853651094174,18.641707369708058,27.426078755679548,19.77547234339541,-1.4558616181681518,-20.537291282984935,-28.19619752973749,-29.89753468405941,-31.3328641985705,-33.17170823318337,-39.38120565719317,-47.48932780289553,-47.82891938571352,-48.05022686574699,-54.71244421035812,-55.00002513964627,-41.41924020027334,46.54568860845143,275.44225692527164,432.89402920355127,211.1911145497994,-168.43176976480632,-228.89404718584086,-61.91431117426036,-32.33500045394371,-80.63942076798324,-43.4112875011171,-15.513515636108224,-33.51172684390444,-23.021688811599343,-13.806794224583857,-27.582967268865247,-18.267987871543376,-2.444323183817958,-8.446798395611575,-10.651104855020005,-5.341589954377955,-9.350397464901771,-14.374394286789293,-12.529703045759337,-7.478957362378593,-0.7766288989788236,6.0332841213953365,14.071800506399567,24.25836389809757,31.26965832980006,33.68864121007938,34.89963624392179,33.83859471887824,29.189168621559354,23.363297492410027,17.191190772272396,8.362264063068956,-3.80325521625744,-14.549701020632106,-19.558999037192365,-22.21026739500298,-25.687362376383444,-26.634730323939177,-24.375723780547098,-21.123956589494735,-14.460022316508141,-5.777219790921253,-2.5399083727589975,-2.7765004868443306,0.9019055631725719,5.469189208094122,6.837976656319764,7.960185329079249,6.410044403648432,-1.51756560429064,-7.883725581894067,-6.8015637226782015,-4.932595330086345,-5.879904438180244,-5.679625146035329,-5.068210775870197,-7.478848469664788,-10.05386521975837,-8.220089467712064,-3.963019897573856,-3.353403325133371,-6.831832422957368,-8.07774766674202,-5.374928758193267,-3.6631878926857144,-3.449068573942565,-3.098581484109994,-7.248590262439386,-15.145872670296402,-13.358915992984668,4.295614264875478,24.559226247029606,30.307616231585158,17.411001840094453,-2.388041110849761,-12.802587093986453,-12.966089931173972,-15.298772927937016,-23.002517149754585,-34.11788883180541,-49.57814096985171,-56.73481260818484,-51.19651189973993,-55.4953256468127,-66.43722226594596,-63.00820958408653,-29.804695872324512,114.60077274234892,355.1920561463294,373.3184127331758,25.514835913265316,-255.03438114142935,-169.10370493065875,-31.812121692473823,-61.93348002807861,-74.26980080521815,-25.281415826055934,-29.88636475208365,-41.03113215142342,-15.46936349639256,-10.9507859999887,-16.80375345514944,-7.743804924800957,-11.664444874615796,-18.3211067497853,-10.05241689627962,-7.915469775553902,-11.266432681266837,-11.72339952653013,-18.764960914832848,-18.704626219956634,-0.39019260764548314,13.468120085112455,15.306034683006477,20.274585152385278,28.619110418149972,32.603514324634496,32.562473589872084,31.980587602425352,29.84483978567739,19.713080740497197,5.057312227522937,-4.846378068895923,-16.99333162378055,-33.77905627382434,-40.831344155284654,-40.932510380868635,-43.91459866823014,-41.470885617642196,-34.63058335259227,-31.592398558955978,-24.26730524261732,-15.872798264611596,-19.809659662133555,-24.103246366694734,-16.349796309877334,-8.819069298547255,-8.52635800805104,-8.891590333520302,-7.662701067522772,-5.505301082634247,-3.1951306306321285,-3.6999195662348896,-7.569827554650836,-12.912899921405995,-18.21141822823492,-20.28244500931973,-17.149054309266695,-13.892663186370314,-15.34168335561096,-17.45262363368775,-17.61904495671523,-17.452409582655026,-10.295477830367687,4.03923491236748,8.595378942095884,3.632003661220317,3.740692944404426,-3.736927428773839,-26.656689432477307,-36.379377134168415,-30.128850625736646,-37.224515110864274,-48.93773940484026,-46.384035824108636,-46.37132533000007,-53.93443587624155,-59.69935557725941,-66.36092721317345,-65.53004729327874,-51.84904775553832,22.075649415077734,251.4670160833198,470.8208620278614,300.5425805037544,-136.98952524610226,-281.02417455279607,-105.04656058115864,-36.8583951084016,-93.52227101915707,-63.06447339094363,-20.714476080352682,-41.02600057338659,-33.393658164573274,-8.88819564364713,-19.39460667304032,-21.41297021534733,-8.209579210381609,-13.152510651450111,-17.17136942169408,-10.83380768496183,-15.491017700766719,-22.280819261168904,-16.468669893849267,-9.139466675418955,-5.472050179970143,1.5531509040918623,12.701654572526273,24.767431206932304,32.317085375020795,31.04352236243293,28.037302279007754,29.021247243784707,26.658426889198527,18.439232981309182,9.083989644848375,-3.2940677885073377,-16.613247422712924,-24.18506834586262,-32.35820513104163,-44.419037299428496,-46.96071082737663,-39.00017839473267,-34.15898356637053,-29.873933495219102,-19.403811689990462,-12.364880260339437,-11.461816937643377,-7.535091518815303,-2.586641397913624,-0.7745232907529029,0.6395293543769967,-1.1330641832316886,-2.702138554687238,4.803801579372243,8.233766464055442,-4.092568798756913,-13.595439930427883,-9.816448194905899,-6.205406672641093,-7.186613821656026,-8.580491109563617,-10.296362458839079,-9.476155262973851,-5.956199441285566,-4.868895997028886,-7.519609051009725,-11.74881541647769,-10.18497688038887,3.6351374150450715,18.447883107118454,19.573508682189924,9.091645937376967,-8.022088039245695,-26.371684765050695,-32.55982678094114,-29.48239461312606,-34.93664450312382,-44.26965913014247,-47.67431001007736,-54.90082629965842,-62.669140901404205,-63.80369104491483,-70.67607383320313,-73.79705828924062,-45.10099064983251,62.77166049208816,308.71521960380676,519.1469001737702,332.74882054501626,-129.19430153459876,-292.1364437958474,-107.51364400381328,-31.445390663829713,-102.61032353690118,-77.96976547493016,-28.7276963695218,-54.61984662897927,-49.97491165888793,-10.919938276757257,-13.295052754338847,-19.561969438028953,-3.536046919320416,-2.139894217248539,-10.68989044044112,-10.980021428501443,-11.006656833808062,-10.764618062085905,-8.026164168921959,-5.461391136602526,1.9521839238187058,12.345632397917486,17.604738579235878,21.293323281064524,27.913606424240946,32.37267223560007,30.883581271431254,26.75828543254171,23.38433925838529,15.636179941459506,-1.3544821424059048,-15.864947785555334,-16.671784082952552,-14.998333948634082,-22.525038938452628,-34.69257267003067,-45.7831368729724,-48.28090482663813,-35.0261414683974,-20.610941156766547,-22.24022606114896,-26.692016560187614,-16.535874511381934,-0.6870587448567882,6.731173262724818,5.54062544593782,0.41173902592157674,-5.756603209960293,-10.414935062855225,-9.834765472834604,-2.5771260026929674,3.3561253794186285,-0.019465666537332282,-5.838848263195182,-6.619453679359442,-7.490268464471763,-8.122199469180082,-2.7820194649833248,-0.2984050959322442,-6.54428389206336,-10.081658103853568,-9.494806226891077,-9.79979629329047,-0.3377978143561453,17.158461066622525,23.636915400844863,21.603833891155574,17.342448502991353,-0.03723978322589794,-18.495658837750774,-18.385478948551544,-20.927181719490633,-38.85286407549903,-44.98542470436722,-40.40717516278339,-49.19877928562477,-57.437856043749306,-57.160508458349334,-67.45106184405226,-72.875328451183,-48.334135804766426,38.788041992121336,251.586576923051,453.73825606265825,312.98274716818304,-94.12175988234836,-260.00377748483,-108.04733204109289,-31.01747579277575,-88.12670316552905,-69.7051340772745,-19.734924393133205,-30.36451811687376,-29.772657014909036,-11.599926540320016,-17.456977472327992,-10.774276610229949,6.1821795271138,-2.031621248291669,-7.741633120944491,0.004302104678751029,-6.102626247018522,-13.380016725715485,-4.487399775937418,4.544758453576172,7.696222343433719,13.13563478175531,22.506995891603236,33.734291682055954,42.26185618503882,46.71523303793576,45.90622237677664,33.755430927245996,20.57040276981927,21.24723837668206,20.89856500670114,6.787909324406572,-6.480172892881654,-15.680356502202242,-27.768331160635576,-32.86399443872918,-28.122444634332954,-24.534866572179876,-21.227218521599998,-13.936511305003094,-5.1617558805054395,6.404728568674484,18.86083312576116,24.67151258514461,24.050555746927948,19.27748075573577,9.064595544462644,-0.5226431043698507,-1.6630467390883399,1.0160087437299408,-1.5535868363909433,-9.281102718816399,-15.393469024007171,-15.41862435029981,-10.075535232045212,-3.7185992209682777,-2.228651584373786,-6.390607978080489,-8.389878445620148,-4.359476598180431,-1.259149550130985,-2.7456455414531815,-5.323534419123105,-8.08254756817308,-9.361379523321414,-6.822195908061849,-6.3068624746697015,-10.720589387160327,-10.499050838097936,0.10483308689425841,15.692457173392057,27.954487616688713,27.04081274426926,9.707258634058952,-10.518438806561258,-17.936772445932803,-14.371365724016101,-13.704860379526341,-19.65485939834447,-22.729842705658307,-25.002262457007,-34.75089057750013,-40.11038420107165,-38.434178921836775,-45.557992618521645,-49.30443960304829,-28.692469055930793,52.32076270053611,254.59792085213732,435.49950457967304,279.3775378576677,-109.87678368684908,-242.90397186263402,-86.93157002381615,-24.894811884292913,-81.36562029958415,-58.445666325653264,-17.10820558937863,-33.324884058235305,-28.616961931910208,-5.839166405428768,-9.137381878708332,-4.520444326672326,8.394737628517714,0.9264539325329619,-5.2873604790114035,0.388740820562949,0.8532795001657956,-2.127233170009911,-6.6279143587732,-13.132837475243836,-8.279966871613997,6.187568357705924,15.105832742530113,22.219211729215278,34.675665086288994,41.97065514273022,35.94711316506513,26.459692375927816,24.835992996737446,25.028821773156334,15.03529819873462,-1.148726667220753,-11.881763112152447,-17.121314830760156,-23.0029021279162,-29.481181345493525,-32.18496393117801,-30.486200489618877,-27.90906202629715,-23.66446922459878,-14.94230725238432,-6.821757176205182,-3.4131118362044113,-0.616473301987229,1.721208925473384,1.9316789490958426,4.5278212258023665,7.3849536610877955,3.9227418999996457,-0.43572726246819116,-1.1806465280651715,-4.485566587710538,-9.09150345327056,-9.243998884038744,-9.61372140432194,-11.72757064675847,-9.168415505120036,-5.683058022815539,-9.277625809866354,-14.088264766339194,-11.308337924056607,-6.301798572279385,-8.073697261136912,-12.405096836556874,-11.627622768668108,-9.492340055901105,-9.706209653895014,-9.043671659518086,-9.181477862845357,-10.626601572808305,-8.889775022316522,-10.097352545590253,-16.417480978127642,-11.276868790506537,7.284629012023433,20.071617457847896,21.2778746194394,15.211737758074378,2.9711357920978045,-5.064241125852891,-2.4693463076570623,-6.064440485764308,-27.208403596501434,-48.62023738152601,-54.87034146778987,-50.941381177977476,-41.096886155719496,-35.62486063295397,-49.01405843803251,-55.96782955694456,-33.2039391738993,14.415612658688154,153.28637568277045,367.546616090697,353.56519338310994,-2.5169794816416555,-263.77493037166533,-166.04682405148083,-37.07941014174649,-73.26381248229775,-85.0386307245561,-37.813243639754894,-41.60770434975005,-48.627947109417256,-23.049240514923177,-24.541968225394342,-37.56285722920015,-25.526621165776575,-18.180723655177363,-24.044370638171262,-23.422312711795314,-23.358446898671197,-28.432438643444677,-26.72526063985515,-18.12257572809884,-10.754193422859625,-5.974983051112762,0.34429513574402293,10.485773486984543,20.08500839525801,26.378178624775593,32.18408019026244,34.36617426758127,29.322897521468523,23.39929932097543,16.12990379641689,1.2522523307898243,-11.58257723167697,-17.63989242075094,-30.72313722986896,-44.03371116107772,-38.45925508276231,-28.48528696365964,-30.377978804241415,-29.5380772095247,-24.19735040921131,-26.670412386656203,-23.413709935106688,-7.685494370109087,-3.0218939419755912,-10.433600619106933,-7.020624053855705,0.9654614338230694,-3.32938701078157,-8.431302877711481,-3.8208244812860492,0.4791849356898261,0.6484938497649413,0.16747509181347908,-2.9204216491149673,-4.053060304285289,0.3739265730443009,-2.823380093946678,-15.928699152535355,-19.460378959093553,-11.724856730225689,-9.569901559503109,-12.939067048725732,-16.20466587040304,-24.373809483942743,-29.809007314512847,-18.19333458774493,1.9034603367285552,16.196622540891344,24.580926330986173,22.352897049102562,4.425340153403212,-13.762392552385531,-18.247906175223854,-17.572751177603365,-22.259012107383167,-30.643389543704828,-38.00621323901569,-44.01533950319808,-49.35670143038253,-52.12660962276891,-57.183609799619916,-67.69589414510594,-69.29405321513455,-44.668445024477485,61.41785680864784,305.3559638369394,491.16904081811447,290.9869747910409,-131.7106007217571,-258.70300595936067,-92.44514705637955,-36.65845070994877,-99.44199360455524,-73.28023922047544,-28.251867782272853,-46.444117533862325,-41.00762296963472,-10.523273799831276,-13.879280638421093,-19.55593522119988,-6.066334264738749,-2.0816772333847773,-5.653606739904486,-4.729314857003901,-8.014594160866674,-12.925422168145115,-9.000196652831674,-1.0223877195234503,3.7034907752319985,8.098211150959518,15.560828534316684,25.00893058087768,34.7564365989908,40.65902794506601,39.07566159039169,34.23894353564206,30.780930476682098,26.00234430536516,17.38926056813938,6.641163942317155,-3.999262629764683,-12.732720910345193,-19.761180902625767,-26.665803998281973,-30.114737584040768,-24.79404175690527,-16.564943750240726,-17.250796681083052,-23.657299631818546,-23.011938929829,-13.94650398269059,-3.0200173860352884,1.7282584291288767,-7.462714114472831,-20.221769100692182,-17.486897440680774,-6.252400780995373,-2.901596742032485,-2.895957269235433,-1.440955288783119,-3.3487306313925718,-4.508360412781732,-0.9145702501472641,1.3038138612133583,0.5455524316529576,-0.3599503226215415,-2.39355154607599,-4.0815633211696465,-3.1122612327190353,-2.7424624297527362,-4.1950611373335285,-4.611027059055248,-4.991371685410083,-6.707375085547833,-6.732146267677177,-5.057704001008942,-6.338661471654632,-11.249202610726122,-14.510418290418198,-10.451151767493844,2.815331195685114,19.86049445396018,26.83792541639544,13.173317595157796,-11.817053895425445,-26.16670127300229,-23.83825297449716,-21.170952644778623,-28.090787977597298,-34.300594277626274,-35.77070821586887,-40.2930399823182,-42.626159566268214,-41.21662451100358,-47.620818155105596,-51.29706867713155,-38.53569665392095,19.96034931755078,200.23904188656664,401.83391961232303,304.25289668583775,-66.50079580032894,-241.44403220061935,-107.43321565394726,-20.693123815781462,-66.03558111974797,-54.980954882853126,-10.890837441480038,-19.81542333284376,-20.262947239901553,-0.4305025794107049,-8.120813467972429,-13.980074830248316,-1.0712117369944743,-10.599569685809966,-30.574946619292266,-17.803723352103326,-0.08149422402329876,-17.11976899507551,-34.212222758432176,-19.54138327751728,-4.636487657143352,-6.248263216748914,-5.292051987282397,-1.7700430921162837,3.773492516237341,22.10137161943942,35.29496526599877,27.409328712913787,21.28730456240174,25.47252440451989,16.909034748406288,-5.292613067812223,-21.65303991599814,-31.68952654388052,-41.84364170361192,-47.405702146321445,-47.40516190821878,-45.94287437700453,-44.20459087808842,-44.88497580949612,-44.12625318420789,-33.28341750739837,-21.776605522486932,-20.140141202049318,-15.975811480713595,-5.828977530964199,-3.367472826709715,-3.36632597737745,3.887324282065075,6.765953330877059,0.7979861410466995,-2.005906221954035,0.4644906788782386,1.9060900931601061,0.7766461831549183,-2.539901186231482,-7.297488981380823,-11.361462270321733,-11.480177762328786,-7.154826058492835,-5.949058581775727,-12.247135995452657,-17.36862400128014,-15.005208679627842,-7.927873698767865,4.162840930180027,20.176152356943717,28.062505448995154,17.28386959365755,-6.002563718161527,-22.175113435802118,-18.92767030568924,-11.412331040475095,-22.43656737208898,-40.97060332585424,-43.50038481411901,-42.07795393014926,-52.72876591700377,-63.71584044567088,-71.50087480678721,-77.3010430540954,-68.89693173480241,-15.871050244351494,165.36410532750264,434.92685464031194,448.67006444791036,57.79432547876172,-270.41579846965743,-192.44270126729765,-37.67050463303955,-68.4386052620525,-91.28410166992944,-37.998118940392814,-39.899103941699344,-57.0100645791394,-24.574146163348924,-9.853650380483305,-22.037874694147185,-14.469838667791834,-5.007409063835766,-9.315989926359116,-8.43884122579538,-6.039434840990463,-10.422420416634608,-11.937003387405662,-10.587680661749085,-10.50011699305954,-2.155528649047597,14.782982140808512,24.73610927463862,26.926459659753768,32.7692435048034,38.25576553901628,36.66478062899172,33.33198154035849,27.358265015437855,14.689688054965115,1.6905019811108994,-10.396837249610105,-23.888381102564804,-31.649506605558834,-36.5324534675341,-46.29039702803465,-46.91896691431081,-33.41363859338289,-26.463913984320207,-25.14697110985534,-14.51364693842865,-7.959002605551497,-12.117052149784122,-6.416281347236115,6.9232694247050794,7.1723699645416,0.7194217174993796,2.469959179561222,7.018287954298248,6.935307028499024,3.718400622787449,-1.732947070282746,-7.727186658975139,-9.28734886250304,-5.7451803510425865,-3.7757359424896055,-8.449972714176855,-15.02612216998462,-16.36410412811794,-13.622472460229124,-10.651839447688452,-7.344220445468501,-5.241653330392213,-7.511386595057633,-11.966749345835144,-12.766148693437414,-6.8145173140611375,4.5002794060637274,18.193146695336928,28.95779069178918,25.47546963175462,4.21404271949579,-16.227044793525444,-19.087655433207583,-14.795696299376125,-20.643791337694616,-32.9351392838183,-38.6550191933195,-42.68264000958443,-52.32705965044422,-54.3043984995422,-52.434897565244476,-65.90423626627208,-71.23159983783454,-35.437118587090815,82.65306247382165,336.8061017899823,534.9413851096176,316.5358825483588,-151.8217715579449,-290.18064969621497,-102.11788630242856,-44.60483822547828,-116.57722402276003,-83.0376725688215,-31.262030145540777,-49.738654000855846,-40.23798854390273,-8.417080521916866,-14.557019023738835,-17.673004965311783,-1.5788607935182402,-1.2339550266718398,-8.440608062376928,-5.936032567517884,-5.143701031236005,-10.213668280101892,-10.699353726298476,-2.6755720233341336,7.115242753435603,13.763503178888698,19.714539269389014,25.876950039478086,31.136454712488195,35.54849920521225,35.99911374215512,31.28048658096334,25.583704559716338,20.134770272521067,13.862400430562042,6.102098930522872,-6.783271938539128,-24.430151691565342,-37.823196754003924,-41.43534567190513,-39.746967276987036,-36.51262249611521,-28.672109512366767,-18.460808352653803,-15.348895856420842,-15.71855235593809,-7.740633520462861,2.613780965986974,4.36915438454716,1.9523954187569075,-0.05411352204735209,-1.4235695255340328,0.4152876960973053,0.0838438099571075,-5.490833125062839,-5.2137003888504445,-0.05662191035843733,-2.4325767816380974,-5.610475796224315,-1.5948685995000975,-1.1361758004985134,-5.15738678537512,-4.0143270974413685,-3.6996304075616546,-8.40995618614305,-7.411037066547478,-1.6550232455959843,-3.2391202937520447,-11.693056923267209,-17.269264158015964,-13.766801941123223,-7.725853959471149,-12.565208465525794,-18.2567484999815,-4.3653547706459115,15.252185440371978,22.36484809409523,27.93020975392796,26.467097942160883,0.057908134260928,-26.195571489758088,-23.06012459937456,-11.34766627188474,-15.053988766220751,-22.804833495944223,-26.144639346407224,-35.0956199639333,-45.75555252257735,-48.97325574578793,-54.53336024692594,-60.406795568429644,-45.900886307019334,30.62578675401464,242.74083567413822,484.87106938115676,400.8724374298657,-27.004171033217688,-271.36032831888156,-136.30718251671948,-28.24832234812557,-90.19086559133807,-85.34595048511414,-24.80003387032707,-36.18306731558823,-41.6575792955602,-9.72350964574152,-10.299091103569989,-16.765667911087583,-0.8738599256762578,-0.7021110159050776,-9.61756830410662,-5.3366590911003025,-3.435641508933549,-7.454723323251534,-9.558170138886984,-10.8851575441651,-5.960168412772067,5.2623391867230005,13.48723879375165,19.415886753927524,25.229138805474,28.176505275699768,29.755142857869032,30.0560921383448,27.178584127123784,21.903107811276094,11.429412544030704,-2.910796706844857,-10.43814310325249,-11.354742274985092,-16.214868782548926,-24.759546424039524,-30.719731091665313,-31.907791507339798,-27.231864542181302,-20.376632353756918,-16.571086741198986,-12.693230764100456,-5.923229684863443,-0.9152916915956162,0.8370724664146643,3.6051160985763033,5.757963894632773,-0.8795012995875986,-12.901417026954146,-14.92143249403914,-8.051775997683617,-7.140200270118978,-9.88653312759476,-9.011879199793398,-10.57657845635062,-12.661956654673805,-8.07669875179959,-4.284764794926456,-6.808283243148466,-10.866880444343838,-12.608632258957552,-8.587469879378514,-4.756483098957581,-10.844812996619599,-16.508832436922198,-15.14066197230472,-18.09152227910606,-18.88765473826539,-11.676122272546056,-15.022706208424928,-20.607585112930053,-4.9306080681,10.311232863889659,6.282343260991389,3.6863537385373277,-0.00030078717281512013,-21.607018963275095,-36.92245883086767,-29.98936849243343,-28.139453833822024,-39.55254173018552,-46.40991515068518,-50.56062807007825,-54.86778609446827,-55.14223439577051,-59.22497575350617,-59.55687133583227,-51.733025219658245,-28.713355747208375,108.97068507451951,350.48453830929697,361.9185902807869,13.747259149773434,-249.55410610788405,-162.5210256842193,-45.05189978820677,-75.0429462950265,-71.0446415792428,-21.215126702848274,-32.008848151904,-42.83846128924389,-17.950419456170792,-15.575670693079882,-20.453403625209226,-6.4624430338244245,-5.37076050113593,-15.189680685306655,-12.226453747870467,-8.168886914294692,-10.202185726424727,-8.168385840310444,-5.1512204104634165,-4.764800362465924,1.0066599010297295,12.776864589551462,24.594093207707857,35.731631075390794,40.55446641276937,32.410906681591165,23.050996290693675,24.95066162946324,28.58837344591124,22.65575531999179,9.61850069431949,-4.787664325597799,-16.631126675065374,-26.757976456806247,-37.824505690409545,-44.92622690119069,-45.47705892705773,-43.21189074058864,-35.31761830061717,-22.4398226473102,-14.35085555337983,-11.295423211572665,-8.955079102379603,-8.052371611907287,-4.312070234285546,1.8271381667773134,0.08363288360141397,-7.830880022592943,-11.64036458527806,-10.467968385456276,-7.639324110745903,-5.379612971953826,-4.592916011257767,-4.900350008749278,-8.877293349219794,-13.239433045327827,-8.988432534581257,-2.7877574516383135,-5.6168819107037535,-9.581805576531476,-8.766744831672426,-10.15830611437464,-11.875691377075832,-8.22783307445694,-5.144784624025487,-9.125072875190348,-17.79013726252501,-21.75542147600369,-12.83876590204451,2.961212423818191,14.30247118496365,19.605402891085042,16.27197101792679,0.2604428200069435,-17.10902689209472,-21.89981992412808,-20.356415991698842,-26.244603512399507,-37.08957409799637,-43.92921375825722,-49.38049814347218,-53.15102098092258,-53.671962904939555,-64.42931900097973,-78.1231710723517,-66.51290558437634,-2.4183790505086336,186.3065775106468,449.1561200022135,437.6060160378307,30.31165305589399,-277.078147791937,-174.42757565514077,-29.986395119300592,-76.82809197870358,-93.27189954355256,-30.815699283929497,-29.251341528975523,-43.435361991934144,-16.577783718865874,-10.271796965839272,-24.03906237444246,-19.57129861614426,-12.902787224262251,-12.70110151455767,-9.073452119809808,-6.374428331095558,-7.378093369989788,-9.18991134208503,-7.481978358826602,1.229879075627144,8.20110283758555,7.391544653198281,9.92033190660229,20.636327767106312,28.64539367359401,29.72202751268844,30.155085443215516,29.639513304460536,22.894619168188324,13.569489147188847,7.547032304257934,0.25627540007163674,-12.299636370624619,-22.855647848967926,-27.98716272940528,-34.27863722881833,-39.24708085221552,-33.907378386387336,-25.603005012992707,-25.159230753084096,-24.76645518818653,-17.122783572201882,-8.886599355771445,-3.8261878043115605,-1.464678981869536,-1.9635859091922132,-0.5106419772271735,2.7130489868541776,0.665882512031228,-3.073828591036712,-3.019309411086878,-3.890812728903498,-5.461378537215207,-5.219354222989228,-8.569306549322686,-12.626588031980939,-9.150835926610911,-4.024245602908076,-4.379132292824158,-6.761103562090645,-8.100461760700504,-6.947879479464454,-4.031650315279903,-5.382084396910793,-10.96660443885121,-14.349189123391714,-13.894872517260026,-7.8978043425724485,6.682686103952173,23.484750889180738,29.201176222549485,17.973184023974973,-0.9463273270605885,-14.478779912309967,-19.63161347170432,-19.79872121135469,-22.961918921168987,-33.73551691586333,-40.11670983794746,-41.84864714144874,-55.28533355061867,-68.84338354975628,-70.82584960276374,-75.75856993514714,-72.23357235337461,-24.465146787479142,127.96557673472361,395.4943522140138,504.46710222741405,179.85590929902025,-233.61455949306247,-240.5252922972544,-55.516635137355685,-65.14073382297664,-117.5238785684515,-55.45812170554882,-29.792612197665626,-52.634479999349864,-27.016714457651446,-4.951977406519504,-15.11771216239341,-8.970237872913085,-1.5449762345965645,-10.913278577418774,-12.838307296044785,-9.204205762358745,-10.532590107967007,-9.476446364744891,-5.784864693406925,-1.8758583798832,4.61712828098939,13.420832356843903,23.519066721652525,30.710687089004566,30.449730540699832,27.95810369963079,30.104137970091337,32.74687805549005,26.55880271976107,12.091907258293647,0.42041029665797947,-5.553177378553279,-14.472127881018936,-26.52291871477834,-33.69462830600868,-35.30955206519975,-33.023935858319774,-27.105192996434667,-22.575458855742294,-18.983945997665323,-9.756998722188094,-1.2237482716653219,-1.709863144414907,-2.373126436509107,1.4338397295796828,0.7730801687868833,-2.3605422459806302,-0.9608616392110942,-2.108758270771915,-8.86985117726806,-11.288952047178682,-6.995326600125365,-2.519886315339722,-0.9613873580196355,-2.891768859171636,-6.096358299641862,-5.391371115756822,-0.3852831409404214,3.7784271328209584,2.634062773167063,-2.326617406315762,-3.6261970452939813,-0.8148555924345775,-2.671970824836663,-7.045846862843618,-6.032892441934752,-8.226375100104825,-19.541526506149495,-25.340175263799956,-19.231014722023705,-11.126383437355418,-1.7972850506135316,11.532931276348943,20.04337358382648,17.460367213175353,6.469753725533131,-9.225199228081763,-21.484629820618395,-24.155075814462066,-24.783118108928836,-28.54247906550609,-33.16762445758009,-43.52699920076579,-53.53583634618755,-51.91915759449939,-56.721554891632294,-69.19824323784758,-57.46491805480979,-6.035319086103414,146.53908491788533,405.62951639925666,463.6938620084421,105.60681901425029,-249.57989261399769,-200.00396517445716,-43.495152835665166,-79.50916107303425,-110.86383203377983,-45.63742018874933,-36.936866894814955,-57.469667349603995,-26.21592733421027,-8.932456864814895,-19.186299720134812,-9.71891272198096,-3.4058075060412065,-12.889830752481728,-11.844565646804448,-8.493956806603247,-13.99547623271052,-14.898660342251365,-11.482591228444274,-10.158491624288404,-4.626290809481409,5.745017856638581,14.908176829390051,23.57577433388775,31.16278532199241,32.27617163055341,29.146379358597983,25.817097275997206,18.157388161655682,8.60069470589638,3.9958035865694796,-4.370820425216603,-21.944484302951494,-36.56263542005329,-45.79238320255939,-53.17999842196886,-50.666587079964884,-42.926860215486876,-41.29090799741023,-35.01328556595789,-21.7226513278815,-17.18925429839014,-14.88649948822264,-6.165789619873117,-7.396449516551236,-16.023542338952716,-10.137424074310758,1.8201010313301254,-0.7327604426889707,-14.554283107008963,-27.77389925879239,-31.740985593550427,-24.541536087034903,-18.31048286710014,-19.463199658273183,-20.02875402298269,-20.211536993576452,-23.023822536612627,-21.25234415086711,-16.959372320109296,-18.723786765110777,-18.19985056859577,-6.041814758625797,9.572495473769514,20.03170148446536,22.19140463579864,8.477386613681318,-17.938451653267173,-32.88246066434664,-27.53259563960647,-25.551508698018704,-34.58205100799748,-37.2806639388579,-39.645789439860806,-50.01996680485347,-52.71066602764581,-52.86993321378792,-56.61992169604842,-52.10735340391707,-44.222545088649724,47.910172121162375,307.1849167455893,454.0976444461711,167.1249199542815,-223.01016902551126,-233.19031831856694,-61.059864469388586,-55.05811551667304,-89.46221985107633,-38.15818369808644,-21.32820759128259,-43.423573558450634,-28.540969143157803,-12.931623575823693,-15.01078211437078,-5.924404913522807,-2.2694129522752515,-10.492701081578595,-9.464054380551701,-8.947853577475339,-18.019777595302575,-20.612669587027913,-15.553610287459737,-11.906570212981197,-5.170219806155062,6.078400500592511,16.031740176643815,26.163570973182416,36.1508163567021,39.69657066812233,39.47283174633739,39.91726677362531,34.321545563892556,20.63348594359681,8.487732576487968,-0.16752861223397097,-12.747877340828786,-26.183262881004758,-30.603158600416688,-32.54947104196679,-44.30308077510292,-54.263234319890394,-46.01273772432413,-30.60543368519015,-22.63103095379832,-17.11184440276325,-12.080606499161057,-12.746947989828023,-13.043550536451129,-6.458421366891191,-0.16179691612535763,-0.6148626405195081,-2.907750573504149,-2.411381265384936,-2.547701637568519,-4.360607585989559,-3.766888813149066,-3.6073477676592667,-7.648527494649603,-9.134133972419574,-6.351385006256157,-7.10731143213734,-8.661363686095406,-5.423800352152313,-6.138918699930503,-14.58821805446333,-19.15510578351068,-16.485477585796755,-14.198358518305785,-10.45184611898113,0.7766729559049779,13.73744830520199,19.18267258651874,13.808413102779856,-2.461088744494365,-19.657691107278982,-23.476180902334118,-22.527458638401406,-32.116842247732585,-39.85960365473795,-39.43794999343169,-47.415712430733876,-56.165618181988286,-55.710274538325095,-64.2504394128888,-74.29739793146925,-61.38123425828176,19.73193591567717,258.32399966571455,513.4008768244673,381.4229351122803,-88.671036256824,-302.1430831110713,-132.33358982337637,-33.59828631913629,-98.62451129830107,-85.19925342618708,-32.81657069217793,-49.39475955769588,-49.02050585544184,-15.919045241101301,-13.995928773899827,-17.291665455725564,-6.156644653207993,-7.3755623592717665,-10.466566542809842,-3.3390898518706127,-1.2710124939816279,-3.0144662693506845,-1.2642561926894373,-3.9578212349080637,-10.100523322211377,-6.128297091734673,7.667471150197652,17.5310171100733,20.938683859740834,24.932536557106264,27.82405819606904,26.037865336225657,23.22922082576019,19.89254946250259,12.01768171354004,0.6691719010931392,-8.601987922587163,-14.358281266732668,-21.43427066149541,-29.603054396834942,-31.379827167884883,-28.76625899120648,-28.78565187378966,-25.366495448921526,-15.155086005375617,-10.101275641133352,-12.85659936141988,-12.226951087251459,-6.826885440861169,-3.633340669438738,-3.4681028593832792,-4.34647982469567,-5.8314770756133285,-6.390953527711574,-4.775167032256848,-2.78885459966936,-3.548558862368173,-6.682859557593424,-8.316255263880368,-7.752544682830713,-6.898272799775674,-4.279450916121306,-1.3945584250146617,-6.198926873170679,-17.135646161745886,-20.11419141972787,-12.11769863528059,-7.177723772154772,-11.577141000024962,-14.531463862494597,-8.079667586302829,4.391305686911821,17.92699303018413,24.368157627964543,13.922783774977315,-7.05261108324382,-21.79427162309959,-25.33550132175648,-23.79163483930768,-26.36185950119678,-35.0979680808113,-41.03622780888927,-47.301411335706405,-60.271618761302165,-65.87773754585481,-64.92860577247406,-70.1776716768966,-65.72024106555534,-14.71474307821589,162.95266617642648,452.9836076545847,514.5593971698643,121.22612306754269,-275.0964266666932,-230.6578795051484,-55.50751176330988,-84.62325251819107,-116.86704802200653,-46.53510129053508,-34.810124867696814,-56.56434169640148,-25.57637946065393,-9.4470753565321,-18.213907463956318,-2.712106287317452,4.000230308254477,-9.795194202821502,-7.080317354426164,-0.9925632072793356,-8.247527119578013,-8.00331078271111,-2.4695311543987337,-4.21201062189789,1.4206891598534788,16.572600121237773,22.142887754537362,19.75350236440878,22.297554962851073,25.04483446379554,23.330872022309396,24.45666339593579,26.340480300136406,17.983318469265225,2.5905980958109622,-7.784312595255306,-12.780413730326986,-16.751149773658938,-18.060312094486633,-19.96337058619259,-27.455767891756057,-31.778783395432193,-23.96372653271058,-10.891420074231997,-2.8709042710704775,-2.875131637252057,-6.031669738993887,-4.314669024254856,-1.465829830423809,-5.704448968120856,-8.565171203891042,-3.5172975862181293,-2.3650694137974444,-7.7198024403032885,-8.72518700308358,-5.84193928207303,-4.321787828836605,-3.5187434454337847,-6.543116527184786,-13.515695669986561,-14.456347633295271,-7.083009669044831,-1.6726841490241515,-2.7542356577788283,-4.5011314155688655,-4.218887806852237,-5.732605775016413,-7.394196426371034,-3.979197589838652,-2.4969396115736924,-9.462595300259633,-11.322054703237733,-0.06769962919465744,10.977666052194566,18.012776482422645,25.31122950924449,20.471578226906573,-0.045379594657889655,-15.34492192990307,-16.51636913412681,-17.966874946426238,-29.7528500904705,-42.1519732742333,-43.258165738543056,-42.73413941833645,-49.7916480959349,-56.525532569476795,-68.66008986392666,-85.6553117653586,-78.25132118992624,-14.98173077507424,170.42781850475467,447.53983909995094,481.4757132220757,88.28154671328356,-269.53552646784533,-199.11682343220974,-34.150540610910866,-79.39167818933552,-117.07755491326736,-45.20086580076068,-26.901478942483827,-47.18093430883779,-21.651386769162407,-5.578470787645692,-12.478564907148296,-0.2948996219135136,4.761237605892889,-9.70722016819679,-4.536722102745452,16.812774190560752,14.699272790016673,-10.834301016494862,-21.83250307082224,-5.611821726108791,6.588276406130671,-0.46621949566720056,-1.026277102598914,14.470508824644444,24.38908378724587,23.27475796187042,23.411526036443533,24.395695710430324,19.962656904944303,12.674105731099855,6.300659821423527,-0.7681311356028893,-10.19127363748102,-16.94605236712589,-16.579859252535314,-16.2806933246453,-20.959381644226944,-22.214364322198904,-17.92533537398848,-15.03806605277266,-12.609478550939194,-8.507523295372788,-3.640155773063551,3.508157621055066,5.4648470869036,-3.9206492141455627,-9.477621718131562,-2.796509678470394,1.742380726212323,-1.4430510211418497,-4.3692459696513986,-4.259512808728667,-2.792676693766575,-3.359084486457032,-5.565861225127657,-3.3152303732050292,-0.2744950734510869,-3.9911088415511493,-8.479799534965741,-6.959131557671255,-2.2895153394448933,-1.1662692605483969,-8.801753356196818,-16.580363505815797,-11.882571040358021,-3.841213192170178,-5.6323416630237855,-12.013363028967706,-14.53593322557898,-7.687069933078322,10.421667585037413,27.99273503347053,32.092088125252644,21.07849788124375,0.8936666879902493,-13.549013804521543,-16.919243272831665,-25.63359093620568,-38.642345221999555,-36.48275250743424,-31.77052283616252,-43.551094585103044,-55.72116265254343,-61.2116141148056,-67.20998985257819,-63.61684306915099,-42.85802291005125,56.30592876961039,304.00264832725026,480.28127441362665,254.44453410494089,-156.47111135629592,-243.25583862190237,-74.36535776211244,-35.45759472580847,-88.77410461155385,-56.36295732465247,-22.138973735332726,-36.453117879183466,-24.56415464160049,-4.6356987964826075,-10.246137205368107,-6.615361759028893,4.356826198411324,1.4384792941574638,-1.3118541374760753,1.1078343499599974,-0.6898066193929218,-8.008268340246664,-16.193817789721344,-16.102477478967216,-14.014979522873695,-23.70341500985478,-33.22297530874658,-37.89407846285607,-55.07407109423895,-73.39492564276713,-75.46109561100367,-76.9536128802942,-73.61446254557711,-39.38048389419296,12.986190997255292,58.9629382332319,97.6694323142979,124.99882080312338,146.34569545633758,182.27715520907805,217.01985551070885,218.65588160542612,198.48803126731565,175.90367155159706,136.91376090389363,69.73109626134908,-8.139566461531949,-75.5111405503391,-137.8597341101636,-207.23951367184517,-276.16805576178217,-357.9361597151965,-462.8430649754691,-503.4761255806608,-399.6193986108718,-222.47380285989863,-60.9034824152598,68.44926496961489,135.16416587611724,164.11744845681113,241.07576115004588,330.75072346506613,366.52102878647275,399.452412115504,437.8402822922664,437.6475853525777,446.565718500387,473.81074705761057,449.52323171366,411.100861879494,430.5478617558323,468.60715537742044,496.9807541964709,548.6266181975101,591.7071216795769,552.2508855250289,438.2744504044227,304.76335557226,160.35607570303108,19.895264567437493,-60.26744745770304,-86.33237812708197,-118.90985075851938,-164.63524427192033,-207.48624714577772,-241.57529381551507,-244.82045165172727,-222.6690677994934,-178.73756110062362,-81.10587454912894,48.759687159833334,220.2242245560721,492.7455899612907,661.6176462612253,459.93379807367666,155.04040656206143,156.6500744438285,310.6151618381806,337.34944115948963,331.60468056958484,354.82553166041157,293.583952711137,198.50753755125407,169.70261323353589,147.56708234347866,101.26860845157114,85.31655506719238,93.54215206948624,93.78353636409486,96.27906718751268,107.46246237639699,111.51317637217468,90.11461220635553,47.86601241509982,24.85749033706793,40.25795782106974,64.59083718014386,84.94993760922051,115.85949239291142,149.99056404875915,172.15403583657417,180.11713736657492,171.96080871982042,164.04592587334525,179.4150995891554,196.68176957085376,186.8806993512479,170.9464372465246,167.1048171950659,151.58420388062524,117.55139812177802,92.97268857667896,81.83088690028069,57.32011277033081,21.420447932835827,10.574704370426929,32.00268732480123,60.55306606679903,102.69807300805672,174.42835988458384,231.7733642555797,232.96768391420133,215.89288739215817,206.81999648638023,165.77741039672838,104.23603277077768,90.28743903219612,112.73089080531504,118.19915839164568,121.07527275004134,141.56717507601314,157.54385212068883,153.24878337409493,105.03046891706211,-2.5704614266299544,-115.12765748412657,-187.00726579131197,-241.06618115673086,-273.55280806852875,-257.449851210368,-225.96158149631023,-211.14732246862596,-195.55276121665935,-183.07944709308802,-189.2517924635402,-187.10377257529194,-165.08258175009968,-154.28384178830493,-151.8974368450593,-131.1010961835251,-107.87143865648758,-94.64500711539122,-75.06422701016639,-63.03318425615879,-67.63086765455313,-64.95835304587176,-39.69360907618422,72.11860826610273,273.04313774735147,292.1148068350484,-13.490795897068438,-262.0732246243544,-181.90245190688046,-58.92597180676475,-81.37202499281744,-79.23593072626635,-33.51432332477188,-51.4960009764024,-68.06660313489857,-38.56984519907935,-31.569197478184037,-41.92814171453695,-35.2643959866286,-35.89144963345798,-43.425509297784465,-36.66300215878836,-29.236837549547303,-30.70731571383702,-32.466383568918545,-33.780875840302635,-31.020119995033312,-18.849853742394224,-6.846973521392734,-1.719888673772104,2.7868342386982903,7.270973825410181,8.222883044056005,7.5400617710109366,4.582689494448623,-0.4540773252262227,-5.51463702061578,-17.78971015669905,-34.58288173348523,-36.61111575695404,-27.428122921488747,-25.61588974786759,-23.943247986814043,-13.983906162637687,-7.592356588025524,-6.312147496856319,-5.074694354970987,-9.625633637173472,-14.948607508680922,-10.408749694353244,-6.072963770681735,-11.555442819982098,-17.882222008088185,-23.86391831688205,-37.56534913584114,-48.46804646125845,-44.60103202758059,-41.69091490576114,-51.22279220206918,-55.799766890233485,-48.75078632236544,-44.72863939946535,-43.05412102678942,-34.37645794617363,-21.412211054977924,-2.588634628451227,24.378927887689866,50.21337650073793,76.69849686921049,105.65164881653934,106.81083014962213,67.3369037784592,33.606931611024606,34.78605149173887,38.095704196359975,23.088943951726705,6.885682525413486,-9.825538287245124,-33.52663375853255,-46.08750761523168,-39.28310308127489,-31.816595585004645,-36.46496562499194,-45.72287567051562,-44.729452079275354,-38.32452679516108,-45.66956189583022,-54.007043069724006,-43.897537169769194,0.9652036205789898,162.35389679493943,401.7241148084165,391.1063834577301,27.107986682763762,-238.19235329489737,-144.32733161204413,-21.887561287011856,-62.705019389188465,-75.53040634973948,-26.945939571049998,-30.470368154887623,-40.16988740402458,-12.616930649425182,-3.757331552658716,-11.420711753499518,-7.391691047149558,-8.685723238109503,-13.281127300204538,-8.549609613334784,-9.530899533467098,-17.81681731756796,-17.031131533856104,-9.209442484822874,-2.361205283662482,7.610276031837337,19.73205280670995,25.063043474060272,24.728167049332413,27.068542586277356,33.35598060966606,37.8835506554365,34.34533634769251,24.587262690821504,18.741736271693668,15.810261731463077,3.6145397212927755,-13.521683756983306,-20.246971188526953,-21.73962633819806,-31.443374322419434,-40.493740227078206,-37.824044396636836,-35.009568277711196,-36.714139249687186,-28.90650965665082,-18.43755329805233,-24.14041444208435,-29.64104956207386,-13.207697715124574,5.46648755828828,9.865791666687493,23.2868424629878,55.062752180540336,75.94863187041365,71.62052731190191,57.75199667614327,44.714579257542724,35.51960115910114,30.66057853683948,19.217013519330735,2.4150789150889125,-3.625317261023401,-7.0734570242028365,-22.01790914292497,-33.73679365826896,-29.600163670069566,-9.844765041470957,24.725220852081335,50.93071163297499,50.63100348750113,47.78909432186568,50.53260976884055,36.98083522013759,20.342370234646694,19.64581252138708,11.953208328888365,-7.353164721486522,-12.220437828167533,-10.912621826548524,-21.50836082924044,-29.511556798037454,-34.40652948961031,-47.23619298258203,-50.61433809406718,-33.66888764523604,44.95055296411901,253.7585051786026,425.7214838072727,250.67085283510767,-119.3028254864324,-207.73539877896934,-40.29705948147585,5.08101862465244,-57.551904605025825,-28.543724420802864,19.900220643690105,5.320633745732298,2.832725744873148,20.363522519109594,13.691472570725558,5.085481798470486,10.192802805138264,9.246094287747585,-1.5802932345186704,-9.991991518585067,-6.414607751318915,-1.0965956857462196,-12.59897683467839,-30.07406242855473,-33.58709758693418,-31.85893412648811,-36.321134168280594,-31.55642948253999,0.9886963308421741,41.41887271092602,49.219479293255816,45.83465039707622,101.9536730125589,198.71272352173884,227.77161501881707,166.11682216246038,97.9940007362036,63.511161012737375,38.653366867241516,20.47866786942511,11.493931962608187,-4.226788030433767,-17.23097615604231,-12.535049125490197,-9.331799889874333,-13.131301524769334,-3.723280233555556,8.680132899674199,4.70382614579734,1.437413878741161,8.83290099136893,9.338325490324003,7.1770932696897205,16.704033966960196,21.69064327631212,12.446075573875863,6.935320697212468,8.20747105446748,9.20124052105384,15.592067292791782,18.214747272134375,5.647488316365138,-1.428805489271042,4.111191356968245,-3.0752005336212633,-17.626628243790492,-11.030781307690141,9.64125215436411,27.990640302733226,48.704978661393156,62.34645768120667,51.310230537232414,31.21839935366824,27.01910250582887,33.63603849168987,35.1638889070902,27.222503557589164,8.993444515615103,-10.124579859646317,-12.537795209018434,-10.891010981928488,-26.98824256094153,-38.107840309116284,-26.76626874808089,20.51017057838932,178.01117944904223,371.16793239712393,294.22398503192267,-49.81642707716212,-214.7851793262658,-79.45985198760344,9.17464588218025,-37.64822844605935,-28.179710979601346,17.905582254110747,8.32534111617971,4.28198543279516,25.675337926652595,24.27578497275465,13.88324926182377,6.0848555816024295,-15.736850260898235,-35.081448326036906,-42.54559419429429,-53.47174704760416,-61.8155902081583,-56.627005113524966,-39.97107810618381,-8.66820951552954,33.91636650416359,77.02796110904814,122.09778493990713,166.43073181428002,196.08654553673006,206.19703841915444,194.4369701620412,155.84055282402562,98.13544202299403,34.25125226246621,-24.878103310914234,-61.854235354628585,-71.41315410181417,-73.5399971737746,-80.4482933047595,-81.28195153835074,-72.46861002683315,-64.71546665582729,-59.206148284972954,-54.28491351983773,-55.921940928810244,-51.48536273481043,-24.621310633372588,-2.034408061305328,-8.096937291849052,-15.91724682215677,-15.227633807746109,-30.34695000629332,-45.582140685895894,-35.33689270703943,-25.943097260775325,-35.0173487875137,-41.022138964560256,-40.68503889040963,-44.41875496713246,-45.105132549359524,-41.628735081139766,-42.10581698890685,-43.2262862093838,-42.59770547942307,-44.631640528567885,-44.43987726387343,-34.55206729642434,-21.266411401242635,-15.11539752058961,-17.369890194651603,-28.29801904515213,-48.60158090649641,-66.11393661598117,-72.28704763773047,-79.79235554527651,-92.02640687477566,-97.35518363291268,-99.68826083677376,-102.35108405805114,-101.094653875458,-106.84262010673228,-118.54597764896529,-118.0550318439421,-69.7492138603153,99.74916954620139,304.82600168194745,230.86056303196904,-130.69272256441545,-322.07742513963717,-196.22100625649725,-103.10260317917482,-147.3867783495136,-136.86321231656447,-89.76550011059942,-99.65175151672571,-101.77798041656644,-78.93185974727228,-82.17597374396249,-86.98088395632612,-74.85790535928302,-74.13839833350292,-79.67803659398703,-77.96464143855718,-80.095719123925,-84.71029641841338,-83.19195092267495,-81.63149565532757,-82.67143295892294,-76.67813426410254,-60.88880962711116,-47.02037983257992,-41.94593695422493,-37.41469096212356,-30.30590071395224,-30.62475968972832,-38.927106869196564,-43.985064487667586,-47.86318888496214,-60.81031646814523,-76.13952136648516,-86.0760734812147,-99.78046571569044,-113.8407274649021,-110.29185777575691,-97.44042049597653,-95.8243570771507,-98.5950548243228,-92.18872633779947,-81.45083120029636,-73.33539549097509,-68.31800648222057,-66.85186487051806,-67.44606686533999,-65.68555947001977,-60.371856046253356,-55.98835878966281,-55.705273281364185,-58.41790783975921,-64.27090779840586,-71.01051650858932,-72.89908819686804,-70.92262134717484,-68.0937476174814,-66.30720231346444,-73.53614687869,-85.69939535734642,-84.4756763426837,-73.04660406970861,-66.69991545048077,-62.784748944622436,-63.72221794522616,-79.21148048555088,-93.38090452759187,-91.47456499582319,-90.75089341661015,-99.48296331976596,-104.07474338347637,-107.69885712677782,-114.27993607964768,-111.7976703813597,-111.97751998271853,-124.35174650426171,-125.39304364203795,-104.78837421660985,-0.24936358256856295,261.3462530044232,434.4121937049947,175.71066271285227,-246.36607001302195,-303.1434623167009,-123.06292971279207,-101.43263168423171,-148.3602001591571,-97.21169209813695,-69.70439388800867,-93.89432717329765,-75.45741656228836,-50.17766054287573,-55.216345434086435,-51.597118198533906,-45.917033740292766,-51.34494028699787,-48.64544763477976,-45.106072831664505,-48.52891280245943,-47.68823620847772,-46.94586866907423,-46.921038760808756,-37.31927580571404,-23.681051963896635,-12.589990672554364,-3.4083440773548688,-0.36691217704310475,-0.26611790633525345,4.395482950166212,9.400146113178202,7.934808485370354,-6.081689799990812,-32.64571431399416,-51.22293569368814,-49.89523038082571,-49.47457451116132,-61.91842245371265,-71.43560252198802,-70.17091429539168,-64.43649588122456,-55.75003662052901,-45.07402748335386,-38.39966379905741,-36.816376162990714,-33.247006511515494,-26.24187410255952,-25.33940482330098,-30.372368372833378,-28.75187903115772,-23.478842864348394,-26.015708559959535,-28.921574032167314,-25.363914349555962,-24.8318332351064,-27.70228762625912,-27.243825649377797,-28.471437723777285,-30.752157401165704,-26.24910381556502,-24.06668174639462,-31.79180691669673,-33.417815386044694,-19.979876517990178,-5.004496060095249,2.352695091728499,1.4848588233758875,-12.667514060012465,-36.67655907134039,-53.392495346333696,-57.988368769748,-60.835466164417035,-63.568573166825935,-67.99629909141072,-80.51752359989624,-87.2893747805656,-83.61896656477947,-90.17288755375387,-94.16431365551772,-64.04745821712606,42.704187449711114,292.3919991626475,519.4049681643347,340.16031119083266,-140.27707659166646,-322.11539062594795,-137.26167421056857,-55.7873304987433,-126.50491900904177,-100.0334396483293,-43.72781924187741,-62.47794053224262,-59.309255577770564,-27.647939538761307,-30.192490444008868,-31.466184958855393,-17.37902911123541,-19.130524135213584,-22.568562604468234,-18.465529729325638,-20.888584404298825,-21.574515577613425,-20.644684081965735,-29.686750703875468,-32.16955923192965,-16.7594457366257,-1.5756338014580997,7.260196180896017,17.607574597548492,23.878411179477844,22.193125517872097,20.17847059475036,17.39937156745669,6.222561241650574,-11.414470105254757,-25.100340243154836,-31.096068882775633,-36.627531733925736,-44.337930709325626,-47.66618057187074,-46.190345211596025,-43.87216991958515,-38.535226267377276,-29.950014574412727,-22.398906577992292,-17.063572499932725,-13.927599934515186,-11.743042619379366,-7.836201244246531,-5.111795048508029,-6.609394023886452,-8.425059328410484,-9.795004249212766,-14.582682068947861,-20.320606400901134,-21.699026467934186,-20.203918938850908,-21.07605873258072,-24.168426635263657,-23.72950449557598,-20.594353462607103,-22.26418256945104,-24.80266957810565,-17.764216417899668,-4.6354549231772495,6.811175537642832,15.440981476898841,14.118290980893061,-4.164780742252539,-26.980770463870677,-35.23339309782508,-32.167373751356465,-36.44182412117331,-47.646898220748895,-55.97799223221011,-68.77445622945564,-81.1106604298619,-80.40384749400624,-84.2720815765578,-89.88587632989197,-62.769884534168845,31.222224914391163,259.25145677514735,517.7443552849528,417.05676473484755,-66.71621755176253,-334.9634194276256,-169.86978746279573,-42.615510907446904,-113.74300686633109,-107.58119288477863,-33.181734759082495,-41.64369389944028,-56.4437004574546,-30.804243150130038,-25.851046526890443,-24.70042590758396,-9.894392100634,-15.233439282550435,-29.643656747988686,-28.73344124138891,-23.068674589054282,-19.992587255656375,-17.80676032292402,-15.852278999006316,-9.987089590295472,-1.0236154739130754,8.274391292041832,18.249804252487802,24.142322897100627,23.891211177601306,23.58940829204341,23.266011499836804,18.87845026018607,12.589746922082583,4.682939839850452,-7.483606620342119,-20.704165525611494,-31.35054813820676,-38.521957433763134,-40.16461298331436,-38.9374864779239,-39.23294628884953,-36.70665170534377,-27.882641779537277,-18.215540112041666,-12.017669186518368,-9.315045405206604,-8.913721837722704,-8.239615069406831,-6.413448267488437,-4.071993781149931,-2.5938420737822305,-5.971491935395942,-12.681668751157737,-14.616252833751389,-11.879794109772458,-10.652216603962948,-11.125212578666854,-12.126944585848388,-13.935498169704257,-14.628618191674128,-13.572899772616488,-12.086520884098118,-12.3507974661401,-16.39564694658197,-17.95704578825396,-7.84469486565618,9.498178843862632,21.032606652973392,18.51114384128917,1.8492482871322196,-17.65123292788931,-26.41570920436922,-27.363272584301058,-32.93775620730857,-41.29954534847231,-43.53960853341159,-48.22521751512388,-60.79772312817305,-64.8090752063637,-64.90738739381598,-76.67901510158558,-76.67584444565608,-39.37672821233843,87.12947459748446,354.07234146125523,521.1935664589035,240.82959009618116,-223.01034632245523,-296.0091312713851,-90.23253512818688,-58.444488071033106,-123.49463105679037,-73.44626280908176,-34.04475555410959,-59.27510852558275,-40.87164409938539,-9.869065907432258,-16.772725278510258,-13.800357237822148,-4.628468378076086,-16.240678688333986,-20.95738315411842,-14.129147452171104,-14.748522082198306,-14.547001469941627,-10.77066236886597,-10.581842371110817,-5.8054037948793304,5.558168479066456,14.579506797652042,20.12675950197545,22.113978976493193,20.86038678135248,21.90468671539286,22.481880550037914,16.3196079158107,7.9859114433561285,0.251537478906096,-10.629219217305268,-21.35625322926341,-26.804607675570303,-29.6384010047471,-33.27317980352334,-36.78137892965859,-36.71402482813154,-29.7726890165677,-17.662013914038404,-7.990585714056365,-6.328047339478665,-7.59056799702379,-3.17088326373252,2.5513046831524484,-0.3630293062518781,-7.9897426691899796,-11.803172079522291,-12.690163479288397,-12.134473867168545,-9.8324700655415,-8.997946987235967,-10.1729950361673,-10.960698336189658,-11.625314796940462,-11.360155505594662,-8.645097423879054,-5.755882808514254,-4.990019758586726,-6.2177909567670895,-9.236222870296778,-14.298296844918902,-20.13818944790673,-21.093653470595523,-13.541376525822773,-3.5670889141676305,5.200719105262962,16.34604267680659,21.87459207030653,8.461298235956068,-14.431059433633923,-24.600821814214306,-21.61295176535939,-24.41253668928138,-34.96540272056063,-38.025471073140835,-40.658669690789935,-55.82031870257684,-66.44487010105756,-68.12440464958166,-73.4845811452621,-68.25165408186264,-43.611936206161374,51.62682887594333,301.516145782473,495.2787803517015,260.7831189631257,-189.09336222344626,-281.7203514868404,-86.01272745840107,-45.638082553188546,-111.02165515875114,-68.74035035968518,-25.690295781342897,-47.09901235699733,-36.632311356102704,-11.750129302028462,-18.599778420127198,-17.601329078749387,-7.133952333906365,-11.167366482924791,-13.192234558007218,-10.116005156625615,-12.278720416304015,-10.735179301922493,-5.725340949513576,-4.905604101827699,-0.6524976232766075,9.094816893968396,13.891234255431948,13.680124663161028,16.113669982438374,20.00551543821384,20.222681057317438,17.208285473478465,14.059012837690629,10.802412217797812,4.2347864248938745,-5.221980493610122,-12.378704390744774,-18.06304518298215,-25.928850831085025,-30.621405988354702,-29.46601876518695,-28.068288161837707,-24.140035811548135,-15.911194767435976,-13.594236449522342,-17.066356034601917,-14.969529629437517,-9.22148277532299,-6.385528558759898,-4.385722307213605,-3.5884778532866015,-4.944948767064059,-4.0533986471491765,-1.8853179804257145,-3.6760663240620772,-7.206390528364851,-6.760017460044935,-3.7580117888930324,-4.432284823826031,-8.238579155492008,-8.930645612397004,-6.188224678833141,-3.6969269415177735,-5.518624148528495,-16.175331356537242,-26.314026502411295,-21.221904289297555,-12.228294447483364,-14.64916620982871,-14.651604680414305,-2.2925853519960544,10.037122256455245,17.939860667363266,20.60457462197989,6.909303547179569,-17.07727861008609,-27.862515327219285,-25.997494093943885,-31.58710377402564,-41.81777910623101,-44.825276410731064,-51.442600872981814,-61.1107814826376,-59.103228833351736,-61.219050883954125,-71.04968840729275,-62.73990297928542,-18.858204205386237,141.89338341022517,419.984997407592,463.7898775041492,65.1030958793114,-291.72266832791416,-205.6887001298429,-32.39517396665203,-72.60687594203108,-102.93770249737204,-37.516609140632994,-30.367981291452537,-48.76842493024885,-21.58106210395269,-10.372347029605805,-18.868940994506982,-9.691214368941568,-7.305037040213588,-15.171988258505884,-11.654201707292064,-7.256328378924636,-6.921437063192641,-3.1419200147199753,-3.9117044109418764,-8.947509974430425,-4.552126829185286,7.39466118983611,15.737502772568114,20.17257069750982,22.69502332863265,20.497533970036947,17.214182999879824,18.645350777017402,19.010213086850225,12.156471500829053,2.189142041749146,-8.241070932326455,-18.545584320397335,-23.21314273749209,-23.329047186014044,-27.74838263099454,-33.529273023467084,-29.732381396672626,-19.367466112326614,-11.662258209682093,-4.921840620567007,-0.39256845197398604,-7.329595447750872,-18.085789674133526,-15.19755747752756,-4.698713945236696,-2.881526793384271,-6.441633565330571,-6.546532098362942,-6.023174940822356,-7.305643121422044,-6.926298962321631,-4.871803007263363,-5.396801594696221,-8.635465664118039,-9.236994804718762,-5.599566278399589,-2.3449495466639227,-2.5472767594426635,-6.019340905067221,-9.806805508638334,-8.984093588360576,-6.173000260938533,-8.325781165301073,-12.369800798623864,-14.387849392946823,-18.251574438945042,-19.98478139275212,-10.369240957925316,6.145216811720994,17.15607966108342,15.222191074156262,-0.04018655758261502,-18.23770409593373,-25.383940602371204,-23.577348859416386,-26.52923326243516,-34.75983488721827,-41.05385183233888,-47.851075758870934,-51.686250057441065,-49.05595017424499,-55.237496818018876,-65.83355366741179,-62.55979520725517,-27.560848211040785,135.5185307474723,417.5206262674956,452.04676190287705,51.33466300678575,-290.0550234803196,-196.5756085469929,-27.9889871281491,-66.31524230699048,-94.36683264386357,-36.76430026355446,-34.95968719298306,-50.382270540982944,-21.02768276575967,-10.443420407515198,-20.38967979344996,-13.347554435722923,-9.725461916255624,-13.396081854885546,-9.019037469399864,-6.3229171672566125,-8.026683513097634,-7.777371819602996,-6.750993700866463,-1.9963190921314782,6.426748352088782,12.599951225081927,17.18843540210458,21.68516277743369,24.662816642974125,26.344763429491927,26.696998605957305,24.630532838234515,16.658485228947235,2.0848757689219726,-9.109553112072607,-11.553049525437434,-14.098686634249601,-20.822102673912745,-27.01665673309293,-31.337731272162948,-33.35419021701239,-31.52391381508876,-26.92414681267351,-21.976521136825276,-19.16539306120054,-17.750664019855975,-14.285181680742994,-8.735731406493276,-1.619568770629197,4.593469460029603,2.269494763187275,-5.208555553368779,-5.718539273748689,-2.0864036074506167,-0.9118001034037437,0.6747571815678235,-1.9093435026452852,-11.444161445126301,-14.284806939666495,-7.733234527077084,-5.812163365055323,-9.444967224509167,-10.550349056790484,-11.297728933107468,-13.47309376901513,-11.695642172301493,-6.278530402260902,-4.597773765090654,-9.494280264187127,-13.874034332977766,-8.362338561934644,2.445227122290431,1.9622439385479282,-10.756944973839772,-17.67893379001377,-11.88993978582052,-1.341439423415574,10.086265579164909,18.680541044459634,16.467524096469127,2.346186248854373,-16.00384095383668,-26.845850123445196,-26.532069635263177,-28.060628717480583,-36.72564242514649,-43.825678573809554,-52.06469970928722,-59.70430405239616,-57.852664760281726,-61.38557854353424,-72.70501137697528,-67.63961777132813,-10.701571945097058,185.59454784380728,462.2371630687425,440.6489789921103,9.86956524283729,-293.7896989327757,-169.27176761557962,-20.618203197330615,-73.78448892100104,-91.31140408948002,-35.58720275023002,-43.83194500781942,-56.22171327168616,-23.80404644632064,-14.89696596547589,-20.645262587631365,-10.155593768141959,-10.189722462868042,-16.268037771884195,-10.680237017364869,-8.625600179056008,-11.164475950117826,-6.774018693420027,-1.3179540241272978,-0.12604749756322686,2.2381102984444676,10.08031921509243,18.890639826545396,21.236429383336876,19.659292751414036,19.19137315079768,18.297010632075548,18.653193709947853,20.104307444669907,15.864297453153332,7.647528159433504,-1.035891379146209,-13.574520380785684,-23.21686491640773,-22.602070326538545,-21.6922863425907,-24.853129892590648,-23.29756215238648,-17.40362810135417,-13.098503518633855,-11.596955872866012,-13.313696956493908,-13.216057587839074,-7.521873996206253,-6.8288641134269685,-14.881472527239211,-15.2899609401816,-4.028796469361755,1.024522682699157,-4.404387073913835,-6.7410795153504885,-4.69894063645723,-6.34780831189328,-8.193001653189931,-4.95545443177209,-2.3592767069017633,-4.657069812263282,-6.5917147762911625,-4.160797706548852,-0.6281295738861594,0.6569978676565338,-1.2649243976539086,-7.561789671603339,-12.583865333335705,-8.322754896094384,-3.2949917259081687,-7.38172604843623,-10.450067780497887,-8.541200566896318,-10.640885751840294,-8.951919582358375,3.9392530403690484,14.684530957508766,18.134579267109366,15.376904767783065,-2.252323507767917,-24.048188649085283,-28.569802146596203,-24.781467320949634,-27.871937517866584,-33.7073288327297,-40.24935422505908,-45.682405607818986,-47.20148791227575,-50.852796556343364,-52.513025996413276,-52.872634827453936,-32.67199081114779,121.56773774661588,392.4717250618736,421.7126900788801,51.11439829626484,-258.38296102938034,-176.73717607727716,-25.34937417473493,-54.86052426281166,-80.60271725127085,-32.52760062466774,-31.690318720319084,-48.61517002701939,-23.53694356549856,-7.5047441537155635,-11.244200144476459,-7.610787972083788,-9.933199796883963,-15.917822602189965,-10.625351639573035,-6.833672095722779,-8.588261188396611,-6.944606178149216,-5.267192909317334,-3.677719740451136,2.959059478252025,11.456272755903361,18.70640484604136,24.168034337896422,25.953608471371542,26.281355207896066,27.742130105098443,27.76370181271964,24.479041341571413,17.954128082714092,9.22699942249533,2.2879652770913377,-2.847202784364878,-10.970056278599337,-20.372073251556237,-27.283907702769312,-33.409256224417106,-35.37373405258617,-28.212273657160114,-19.548852606951503,-16.241786990720747,-12.821946432944523,-7.838249695187795,-7.5082013394490055,-10.159544784187291,-7.853906939229709,-1.7143781502556354,-1.211485462234391,-6.6408014891944,-7.044390843584287,-0.5733107747907891,2.794528093425498,-0.6270276108980024,-5.857242369959815,-7.0925342157650295,-3.0961007177256175,-1.3212833539075781,-4.453914471718019,-4.724371900378861,-6.500064538416387,-17.48532066706524,-22.246687469936667,-12.023300938794971,-6.301474535433684,-12.767179163098193,-16.87203234785127,-13.429573435493113,-7.050543159975234,2.3976559250401355,16.662577387347746,27.86467304297556,16.93482432749961,-13.513084439516351,-28.76403316558652,-22.873630799249327,-25.93225574017671,-37.583767149845755,-42.50497784683419,-47.90428829668826,-50.23972027047849,-48.18084003757114,-54.554114005422704,-55.313471563953,-46.40150577724044,2.8446840152430752,201.79032110128026,428.20971374332294,299.0942754230112,-115.43123395724999,-269.33081840486085,-102.10500835528643,-28.880004714957863,-83.13100049362446,-55.5782386899314,-15.720830492696138,-41.29355616762513,-38.339111600260416,-11.00667403456816,-17.403601758589186,-19.14093056751824,-4.496059555905504,-7.94877577760694,-14.870817368000615,-9.640773698661011,-8.255942657769339,-10.285463912652872,-9.824483550408873,-12.469585308644797,-12.792891445663969,-3.999667518886719,7.786495634317953,19.739976455670732,29.25130075004094,27.143334038514848,20.693903031254578,26.490557995144,34.842349420264256,28.657065875124633,16.884229076372122,8.933466690412883,-4.1466057744363525,-22.79938461484993,-35.295961383596016,-40.804449633916505,-47.022490439271195,-53.173926041553074,-50.1261175962013,-36.01440929847772,-23.598486361632034,-21.805159158980796,-21.710760988814805,-15.69699185096514,-8.868702421358066,-2.7701880846656977,3.4070224264354536,1.0982618895324379,-11.30067855719031,-20.569383834687358,-21.815789173035753,-22.189506853708114,-22.3301343958817,-19.587505646792046,-19.399827393838613,-24.5686058583129,-26.25768062725687,-20.24395969453569,-16.3633589452124,-19.210321796176956,-22.01140876882823,-23.602254982400105,-23.10703707654575,-12.975183055071945,1.6976524484866822,9.435467251044166,11.05857286994135,2.8336400584503743,-17.975042392971048,-32.26072067239814,-33.2026446327814,-36.57543580275501,-42.63992027761058,-48.122713262532415,-55.15178724736464,-54.01140554950294,-54.42682211645527,-65.57539310733308,-62.66655492053495,-49.40751634564725,20.275199463219295,261.2864712370164,476.777871487526,267.49262703620354,-175.5222938244163,-277.7561393213821,-91.59201947635536,-44.21783889002366,-97.71854601895498,-59.66240502319988,-27.497054473298107,-51.35032529202498,-40.25431645159465,-16.474911931385407,-24.09987407625259,-22.804550814769794,-11.482691963588461,-16.610071501114575,-18.07038644845237,-8.926534272637568,-10.897253831798352,-17.356958370826426,-12.728245034188907,-7.01567135006993,-3.6171187745453466,8.712551903488556,23.14908963573699,29.155627394611514,34.53528557657776,41.12420015420364,42.395941016028246,41.93780963377362,41.19055526602928,35.927415052968335,24.976014944180474,4.614046437617427,-20.075985126946126,-33.91686015114618,-40.30279756756879,-48.928402541572304,-49.41418322558253,-37.85532258832046,-29.361268365696006,-28.700546533584458,-26.587738830785927,-18.152458230662376,-8.544100460417049,-6.053090271841416,-8.121947590187997,-5.8270524338313425,-1.8557775024303407,-0.6710278855277849,2.106695998876015,4.703602111768655,1.8473473774678943,-2.688895241100763,-6.29161856387417,-9.078119266103391,-7.330189179643908,-4.578382907181448,-8.039762612255988,-11.795925882706516,-9.188594316200938,-7.255778415561425,-10.676370663856876,-11.21400021747019,-3.6922413866524284,3.849115658910314,6.894218844683194,12.578185428191802,14.381812089709536,-4.915160125423377,-30.396100175673304,-35.20043880640533,-32.56487134036936,-39.750941459039055,-45.48113499948997,-51.75492964112652,-64.81058803911183,-70.61092184586388,-72.19662421702883,-75.63672263219397,-61.21145325054027,13.445008046869077,225.88583463569563,491.4505561432102,438.60903222866324,-6.5632908292526295,-300.53254221864313,-171.08714194509125,-34.12960478636852,-96.30356681559022,-106.60200618920685,-36.999148587079745,-36.829436639161585,-46.275851508064484,-13.578476528931088,-6.696618771680704,-12.7719559430545,0.6241317730690898,-1.2712681357025488,-15.946852401496717,-14.514057920176382,-8.85439850521855,-9.283475497409118,-5.75642034955365,1.6992562160197107,4.710887752150524,1.6773401865358668,-0.09213697812436328,6.438891519184763,19.144806841864725,29.338298453700485,29.229163548294018,21.95428502560136,17.352281897747794,13.255583850427014,4.706412878371275,-2.205089797394119,-8.166343724872165,-19.065514004722615,-28.861021485111806,-31.741794154171384,-26.323920714614665,-13.376351573795375,-7.57680617373321,-14.144252128865649,-12.510776301251397,0.406586381735206,4.143821578976164,-4.358619929685688,-13.321124733039028,-11.783012648676188,3.6569532901846715,12.722263942981769,1.1301913809376192,-9.31618354442617,-9.031803678222076,-16.043101543929488,-24.994604251067198,-19.24302465646428,-8.924618174980157,-5.1186944193480866,-4.16799483176116,-6.488050423561681,-11.7943862470954,-13.627206655035584,-10.622688727243148,-4.3578531715762825,5.676727424263239,17.48215158638995,25.011964708967604,19.888765170777237,0.07849634046606013,-20.47546159532034,-28.27014965648466,-30.88842510958453,-37.74756226184554,-42.492363706684,-44.98982986625752,-52.45931714174631,-60.09600931864216,-64.89971144308882,-67.82183391061815,-59.66747705642317,-8.214554843209783,163.50596123643655,417.60176435549363,434.91163083553295,59.05940170561722,-272.81896529031116,-197.98108198565745,-29.451515215672664,-61.3461929973262,-94.91329630457558,-29.40299390673063,-19.12726925617224,-45.90688285787927,-20.182372718613514,-4.858872795673712,-21.60259263542197,-8.98054971371107,16.313255738472407,8.78028272317437,-16.60581104086137,-30.575749396451837,-25.65803006038811,-13.385420117855194,-10.104549164463865,-10.622637291318785,-1.1227627842784118,12.323580370544143,20.014194918353684,26.59722946220994,35.12515089452649,37.84998193279911,29.607701117574585,17.72891624171674,13.743346510633863,16.150775604436927,11.112964483581088,-4.84769948913467,-19.54530090621544,-26.003448592024704,-28.54248117301652,-29.9284283116898,-28.63442983299209,-25.046904686586963,-22.69745033693799,-21.96938123492331,-16.959442960864976,-7.13518247539521,-0.473998955973169,2.1875033440663945,4.601393997653709,3.9400251901736936,2.2747537486820635,6.0460358032211206,9.858235562065751,7.310497785910814,3.8260622031813476,3.2909770406628978,1.9086900378186842,-1.7452767620991834,-3.425882612327311,-1.0142282618871992,-0.14315064087711882,-5.557971783341907,-13.091984526711137,-16.392576109883397,-12.04656617715974,-1.5172693545495735,7.455637456362041,11.616195524320712,12.484826324515794,3.3935624563810336,-15.1826396962237,-25.263997368071976,-24.7589240404633,-29.90329242348657,-38.996251922710215,-44.49675332623249,-50.73836729922134,-53.51151013577796,-55.16689076117788,-67.41316577060718,-73.2465362601602,-50.442144761332315,47.68798057742204,293.5154419381308,513.8485839463995,338.5743890680024,-114.21308319623557,-278.1727344020915,-103.93708339968512,-30.660162154060718,-99.42818492420005,-78.99235938662797,-26.954586170133197,-39.81058755113527,-36.17013458200698,-9.727642735075735,-12.18433170858204,-12.507119382326884,1.7549652475626871,3.050060435917887,-4.469902655894501,-12.510512134551732,-17.914570946289817,-13.010450296820128,-7.425617477317724,-5.343969754807704,3.4166608061205253,12.32090480039996,15.635991093318747,21.97138172845822,27.93048169253258,27.451111996157938,26.3685583679527,24.99511719624769,21.000311117247747,18.235981565740104,14.279976163905545,4.380430006158995,-6.879403205082589,-14.939770334423923,-20.5378266861079,-23.111967863030067,-22.946528311323807,-23.415154164597816,-22.582086145748875,-14.516226019236976,-4.846604872318327,-5.052259913628529,-8.101462625798803,-0.4639618045082674,7.965002536196944,3.593913105486452,-3.4378854767254214,-3.7315424459050934,-4.11936898530633,-5.6023737324759315,-4.5117177075376,-4.726955362239519,-4.726031004732141,-0.6717310323382417,-1.0017810314069182,-7.986543120136668,-9.251570756913493,-3.8636093905583015,-2.366532840661872,-4.842891802800466,-6.961392678724363,-7.944103812254899,-2.1937384358364764,11.9212711367738,23.170613518867263,23.626595037032622,13.619159987433274,-5.2849957588633485,-21.47890814692877,-22.87732765171615,-20.068621059820526,-26.78588988045439,-39.51362503792718,-51.77035895531768,-55.00881511664883,-49.17410033595854,-52.6721806189116,-60.66516401143234,-57.30684568604073,-26.400455434933455,131.39495919639035,409.86768987324,452.8296014952923,76.6328211748185,-253.87462570076025,-182.96638062279243,-36.8814638663555,-72.6139725900681,-93.03730875862266,-34.47812208201377,-31.950062159306817,-49.16452920986755,-21.926976997764033,-7.636699799851357,-14.265555998484725,-7.601671183429914,-3.174925241318971,-6.70262024267393,-5.513739782386287,-3.9152826504613136,-0.8770131991652632,4.717313831115534,5.654559792995175,6.676466300372451,10.595637019413086,11.541840751864903,15.102125781687985,24.052624309169573,27.530081566585007,25.023168889771704,25.184112956124604,25.26932837073187,18.638971357262815,10.021142401107983,6.398843336723284,1.599485033642175,-10.056125857388757,-17.40569057279458,-17.421824314880748,-23.603882671044108,-30.542811157428602,-24.450336108224814,-15.719883243656344,-11.2277841035846,-3.4403247851239627,0.6018613050232897,-3.191047739628364,-2.042667452086086,3.517022495168127,5.542110670693825,7.404722234015105,7.648727096304139,2.711127955476184,-0.6974686654713858,0.41485558042305315,1.615829157435571,-0.08581199945159179,-4.621926344768388,-7.778734352949108,-7.95427878663736,-7.2788043811437735,-2.713163772199124,2.859363794439795,-0.8610225800585383,-8.575576834906132,-7.190853071322605,4.845458021605539,22.665963422017388,32.708393777116605,22.825861940973112,5.384666814216219,-5.64927060012672,-14.14518834844661,-20.20524230139226,-24.207555751230302,-32.79587388778614,-41.49536602305421,-45.61853292534782,-46.206770600207804,-44.6317465865141,-51.95620932350751,-63.213105370001635,-58.70025543244951,-16.53853117428841,144.9584948644216,399.6457841910924,413.46282065965545,42.82795217381606,-254.5973341007576,-165.96622191491068,-23.921586723224998,-60.24253965418726,-79.32341291807772,-29.129645272553457,-30.376323548145322,-38.588231732705225,-8.027312006152801,-6.524516224817802,-25.30497925442442,-14.842052084380029,-4.335198442976101,-12.706665906708267,-10.420522758680402,0.726868924439148,-2.342136049827163,-8.569573018168938,-1.8162511915380146,3.6412571351620873,0.9005326454057043,7.236388091054946,21.174438505073187,25.11934401826118,23.591353819931502,26.14677651571529,25.995613630446634,22.513640775876524,22.785260087762374,20.71639771535096,9.549253457182784,-0.4066172273836726,-3.225974640125987,-13.06434987271155,-32.10649364081093,-36.23311412586484,-20.87901360242414,-13.800955479482482,-20.6141568250551,-17.40551417586819,-3.2715494689989875,2.3017828162910003,1.5493361861698638,5.071025874336442,5.768037321177424,1.2311045441532824,2.3720751036183203,6.909407467646815,5.3773611831178965,2.5688293645852642,1.9712480557068064,-1.762743241408879,-5.070095626467905,-4.047933554734406,-4.266031667773359,-2.3004829732322545,4.993043753915202,1.2860119678004587,-15.957619442053836,-22.422646197472368,-14.433579020127357,-8.985479425387545,-1.301130686754897,16.404185774664615,30.10493680760733,32.25928971431219,24.511740362140042,3.4943563024207522,-17.23852058886785,-20.303895156215205,-20.944403010450976,-33.36917738920436,-43.15654510373209,-44.89776748551066,-49.900307780165875,-62.60407915406397,-73.88310014225229,-67.74665227498215,-53.760494911675885,-13.763739540263714,168.33361720766453,439.35677148183186,421.9515166267121,25.71697895794532,-248.46587587759802,-146.70253482061378,-30.214279070487365,-81.33021832002657,-90.35794099376614,-32.18210745789679,-30.079468104593637,-35.67316022158598,-8.527376336598575,-6.364217234678565,-13.9432871905085,-0.3461483059045456,0.9979624710522663,-8.957864151334498,-5.7225878424040655,-5.352142569273097,-8.703884751122779,2.0860818872803866,9.084692730913938,1.7379196882191406,3.997959924248261,15.642746898026596,19.16715108102398,23.672027465913583,31.179649159275083,26.36038552731327,21.634065754208137,31.51932430374446,33.491599463650715,17.2602675331904,6.0080639554858655,3.7711017962647713,-4.7336424536154125,-15.645656731450362,-20.267517169762712,-22.41476282448599,-23.61017427178809,-23.141372297587125,-21.51308544666736,-14.68336006887343,-3.986377535805654,3.6114617782407836,8.962176453506299,13.138439687971076,14.094104191502515,14.014212902579406,10.699815744710353,5.570501065664057,9.738631962659747,11.201393519914765,-6.601886112414084,-15.448507882920916,0.3433473859307603,2.836656235196892,-10.791253018762376,-3.1911942618552462,9.928710403499917,0.7765648828406637,-5.376139880550761,0.3353088378274456,-4.679910195745705,-7.72055118726704,7.9114767269739374,23.974441909384513,32.46329795753097,32.70485461211544,11.464873829919615,-12.538123147527136,-12.993142581296823,-15.640635806130955,-33.172728204920084,-34.475706795221015,-27.74741260566991,-34.5186720856423,-32.54160576961586,-26.72599861642783,-44.33460305450168,-60.84715105207083,-16.53433992950461,160.31887450272836,401.24998772127003,385.3178430567898,22.34776916929591,-234.8677279876918,-128.2723373158443,2.2721303826496335,-41.25405843888381,-59.40777303885554,-11.710253959591107,-18.451424435569084,-39.332055112313924,-22.144917968495864,-16.653936067442594,-24.883449848471173,-15.638221534168572,-8.981238732123881,-22.134974514580037,-33.06846386884304,-24.250722475986898,-10.655533540743985,-11.358591569110235,-16.089222839173935,-13.568643075203383,-15.891191627934745,-16.49708296924703,6.064834805606818,29.684460543520252,26.39732369177696,21.834445772551497,29.495230689653816,21.2055020652046,7.973539919670632,13.913967730766947,4.268862196206335,-32.1334427215262,-47.21097125311357,-41.52044719149994,-50.91729361333438,-60.13859848002491,-53.93770538081745,-52.49615123553288,-54.22360990245441,-47.84957258791754,-43.60848425500282,-39.937490622242905,-29.045531977850302,-22.360514496457938,-22.19203427038976,-19.89788622940337,-21.505507168113155,-27.04493437349504,-24.877877560451836,-20.577372743083906,-23.253891701619338,-25.944291012684083,-24.92616666294461,-23.26038822639557,-22.562594996670647,-26.429337630755988,-27.68143317224977,-13.392260895525364,5.0183845032476455,10.675330905677079,8.589206383400747,0.11600861054581202,-16.887661126332652,-26.123588990777655,-24.69774332338308,-29.81451696285035,-38.44104484836545,-43.26231852546341,-49.700514080861986,-51.97170426294865,-53.64620275485806,-63.25248557946309,-65.33145165898424,-63.85208598097617,-14.43068337113209,201.3835455891088,427.16889647879947,275.58025524101936,-132.9516524676256,-258.3556607044069,-93.02515415190376,-36.40477308811098,-85.68882113261785,-53.55518072121029,-19.851814243737067,-41.28613821531027,-33.24252309772785,-10.571293804418481,-15.446019971854753,-14.045717451619929,-8.228913340460252,-16.930928240071093,-16.505950520603825,-7.332720812777453,-9.32289541986735,-12.39838873472989,-11.016094525290807,-12.615125465812856,-7.434444306220419,8.423418297391239,19.74754121459717,24.074465993910213,29.485949109528114,32.59399157839557,32.23207068843145,33.791880811095226,30.762437490146738,18.837489182906058,8.556039514481563,-0.7025092917328708,-14.3109517159712,-19.200074117830074,-18.6499233270326,-36.26706732660572,-57.26024539727877,-50.719326358188425,-32.1990537588496,-24.89558273874628,-18.95973743750913,-9.387542559795627,-5.161315256453442,-5.459205360152065,-6.263853237936235,-4.884826353255189,0.43363130395355043,1.8182570305311305,-3.5150387278466653,-4.298829562092621,-0.02507606992334921,-1.8418678560178368,-7.282963786723492,-7.1137108228799555,-5.429935192845001,-8.770671102768999,-11.886811032860018,-10.911316920602964,-10.708416542248667,-9.130981981981432,0.8342535961210489,14.739300344729372,24.324379742167224,22.832115189760387,3.542380201385704,-20.20410632606339,-28.42384612212979,-32.32183803980352,-43.77020760904809,-49.26642174692965,-49.51909106308213,-56.128218849034134,-65.63364676402468,-74.3863048468867,-75.80833697938948,-54.75118793311255,42.427659035789134,286.5399921506412,506.47663661446825,336.94200115760594,-112.93085074629613,-278.6315435630279,-104.47536456017082,-36.15663705919394,-111.73206303968634,-85.32231969866899,-25.443126796778046,-42.7142824150675,-41.19993671029032,-9.775382084970389,-13.529388587170814,-16.102271322865107,-0.6463265285887196,-5.112470545893055,-14.64256792629859,-11.724177595902608,-13.390737579977527,-11.603081087849858,0.7843719545889325,5.4678255670131275,6.339029167424259,12.869307486850365,14.728988958453268,20.194386197390656,35.33927217624283,35.27223178433232,23.797702886968928,25.40942411234992,22.41512307708762,5.460503200861983,0.6236788653113193,1.4935100221133135,-9.387613913087705,-17.730910528598606,-25.08714426168141,-38.68699773647351,-36.60779256365551,-22.115995908130202,-20.84062868395083,-20.010441626353497,-6.281425792444624,0.3414768784723936,-3.8284236214616634,-3.0059059150949325,2.6651466288160135,6.26740657133339,4.327816244163034,-3.8656395129420673,-7.456142081333131,-0.5632652138022065,2.2261582878921864,-5.675927082085929,-10.946657035138005,-9.271913464663562,-8.001295315427674,-7.069580500440425,-6.466699210754629,-8.660982044625555,-4.730504945655538,9.928080588404546,22.555205875540203,27.040792372073014,23.18900678761144,2.443296344597054,-23.26684260404423,-27.65998461078459,-22.23262568086436,-30.04978537784835,-38.4827015523398,-38.62193589047432,-44.99819848744656,-58.47785413678414,-66.26754117913174,-63.731007749053205,-51.02573932244246,24.227673425754688,254.85912182540838,504.6391068924584,395.7371023685094,-47.8264866413075,-279.89632144343994,-140.29193170129702,-40.00175546627871,-101.0357807950731,-94.80871583549353,-36.75206154379332,-42.60506345468229,-40.804844537823676,-7.918708211004557,-7.564172758021787,-11.048883396681283,8.228558255628148,10.293647031750847,-1.4552569848816308,-1.169684614721449,-3.5299105286723513,-15.011327685472757,-16.728313810950535,-5.3176839154964775,3.9236569776054484,2.889841047710287,2.84461281257316,15.46636539346308,28.730530130345556,28.781318357485176,27.354608301858164,32.29621696521445,28.039810079770287,13.044253064727933,6.168943734708313,6.796787502461058,-0.9253470087261024,-14.747541163488236,-22.59064555702531,-24.317379475129908,-25.24852007800039,-24.66789339396657,-20.883574019326627,-17.409119690373114,-14.833885955931686,-7.944588041718629,0.7863571989379365,4.7582336043191376,7.773740992482704,10.243937514547602,2.931773330433801,-8.08297266894683,-6.733988696884006,3.2619599753198503,7.951161760483954,5.372387107696168,1.0678894757412833,-0.5169243583473806,-0.5869944401396232,-4.244444199311477,-8.246781554452868,-6.044718653701907,-1.2445775283052556,3.423894670859873,12.824262233500924,26.05398551647806,33.33771460380783,23.56320491691379,-1.7451804688778694,-22.026044685966948,-26.90794642559523,-28.36312166147222,-31.36117672817253,-37.32786997629165,-49.62257690729043,-51.936404958351964,-44.28647732046483,-52.48802732822129,-62.60844975973436,-42.96742697497315,47.36096136282811,271.2925725502343,475.2406942426457,318.9696506149272,-93.77379849193696,-246.62395080840724,-94.6460024064919,-29.139507159320342,-83.27154837259346,-63.69617965929193,-28.290959680177792,-44.75576456307063,-34.62073630404791,-6.64675693589041,-7.570791393970584,-5.263731008948493,0.04515488593892414,-15.561908644155222,-25.4658901007235,-19.719617533339623,-18.905163954905397,-22.631826233443604,-28.86046898569675,-39.20450944639516,-42.371304116557965,-39.68745743687997,-38.337475018608195,-24.73970045408022,6.288914556341894,40.35633320328911,73.25750841835357,100.76172982144274,108.80504488807728,99.5382077196789,79.55343407851593,43.33559836017608,5.299157295981402,-7.823425688593268,-2.7555853382815023,-3.723652087706178,-13.496915352399476,-15.988289279472381,1.1809844362940538,24.44904362504412,30.56198199900242,27.009058461881885,28.626458957866383,24.838093641957336,16.725800616515915,20.69607927308202,25.655247234679287,18.17942547121106,13.521326018027757,16.57837389852542,12.265562981154439,2.577458997047767,1.8823423664281158,10.693216798175136,18.743392082861703,17.91862507429621,10.190535264686178,4.043726316657414,-0.8691215525889078,-7.917024685196083,-8.007572297250679,3.010584161060839,12.93501218186486,15.580079294271739,10.704488886888823,-6.777394026470979,-26.692552956300705,-31.739705077760622,-28.614028119437172,-26.718472462973594,-23.337886822970667,-24.72413283586757,-29.773283715122457,-29.884211039852463,-34.26286406319225,-37.82439380445515,-28.574217902270327,5.258893623827262,148.05803176187067,372.89848106429633,357.24636784614245,1.8678549831560005,-239.38804995117653,-129.4377197350651,-16.21387367562269,-68.47458359889853,-80.44134439291243,-33.04190085971406,-37.16230773135013,-39.86358453737975,-14.928165638621977,-18.73146661832242,-24.960589693482675,-7.8808559283289075,-7.692382762906945,-21.573225286654882,-19.86890923391166,-14.462835997704694,-16.496441301383857,-15.702994623777421,-10.626906766341683,-5.514280232818827,-0.7080688475831636,3.1968843538362943,9.446419515483987,19.707707165576956,24.936274863176266,21.985115516646456,20.516479593584673,20.124541375679925,13.195484522117672,5.76147365050403,1.7140990461774308,-8.0593085068762,-22.266719858308146,-31.90739094304177,-41.42482598840789,-54.385560568481516,-60.3463530965102,-55.06643471474682,-46.756067786683175,-38.328638282822226,-28.637128492996,-22.68647571340582,-20.730547680909197,-17.655717740433715,-18.32702180774818,-22.951683666279997,-18.515441580222575,-10.927476694039619,-15.873525235570646,-20.388426705432295,-13.9346529956319,-13.75122925913579,-20.392865609897424,-17.53337200249439,-11.93758299588087,-14.480883235634195,-18.398522499765196,-17.5660813443696,-10.70237032302613,0.41697666472033745,9.851447930041628,15.710394147260562,11.682602818024382,-7.696369235991799,-23.550915774465707,-24.418022473864312,-27.91781282348862,-34.63494502166169,-35.14950322948968,-41.220022785311414,-49.310568423804234,-51.64500264826535,-63.221075382950374,-73.45529052731342,-61.242122846863694,5.833970086504543,203.31127241707821,410.06079474051876,288.1471973217994,-97.31026286731151,-247.9678278728698,-99.14098900634306,-31.522559359934114,-84.63944695681354,-63.4189284845813,-23.966432351311553,-42.32203873548253,-40.72740844022741,-19.27163433219583,-23.631310687094306,-21.74400532663911,-7.597378340104875,-10.334270885100246,-16.396201301577705,-13.333180713338017,-13.828511667665175,-16.112175048308767,-11.417409304440064,-2.687615911804418,2.6012350302552907,1.3632701578707067,1.737374202146242,11.637597198341808,23.10097499391823,27.895890699865042,30.439107089599737,31.900211967041944,26.39032621018863,15.526276029560792,6.226221498748904,-1.973202669957077,-13.62585576574333,-26.282373377358155,-33.76227971374957,-36.7787238005586,-39.01769799133197,-38.885098397370726,-35.3089163176558,-30.780581854922538,-25.336659502591253,-19.018947731686072,-13.154428781723382,-6.402970389874675,-1.8747303481997086,-4.991084526609889,-8.657668196556425,-5.647351777172965,-4.032550632976864,-7.801333674175023,-10.181268356084338,-11.90119997047523,-15.555426041338116,-15.082861792956301,-9.319521140436656,-7.108681410357274,-13.653914960737836,-20.245219331059822,-13.423769550070336,2.9846588555105136,13.840160075055874,14.950575724613167,4.110707878254683,-18.397799037309174,-34.353054695324545,-36.50313037293915,-38.18270154570031,-40.30725380074265,-46.20115242060619,-63.876317367502,-74.33568948197598,-72.208900255035,-74.21235479109181,-70.55790537079264,-52.13758588907931,34.50167761701625,271.3721161422988,456.17983590489405,244.94887609311874,-160.45466760669734,-248.88430390351942,-86.3574684801279,-47.9564877015135,-91.31845576048039,-56.61286370232429,-29.698112674317848,-45.555150265870445,-36.75785028323767,-27.278007614667494,-33.70205480510222,-21.269408847948363,-9.635259045161934,-17.030295042687957,-18.188921124390934,-16.103698226882642,-22.31663344978474,-20.41562503478154,-11.720236656886001,-11.928239137553467,-11.285168712109197,-0.06747031132232095,10.910297626618494,18.629049475055275,27.5555203081234,31.196789011703537,28.264745763183107,27.81478353538346,29.139603402347387,24.41866779931702,11.21692229632505,-5.33604427853998,-16.105093089103274,-23.94586480296381,-36.501980626314555,-41.510731206036674,-34.23293586011937,-34.815451057570215,-39.828705157306054,-28.94892124558375,-16.041044143658343,-15.265697114938789,-10.580509719708848,-1.1580074442843546,-0.3475330725871473,-1.2782569615667967,0.4913840118982691,-1.991041282699987,-3.927150926109803,-2.525647819967606,-4.668952510121759,-6.625111099139195,-4.08907734555892,-3.89223649633818,-7.3874298714419595,-11.293775282356883,-15.084837329720683,-12.59046482848558,-1.3177456562218897,9.630663993443367,18.259654210544543,24.845058473638648,14.617210160528048,-11.479244145741738,-23.912965076999704,-21.418581195911678,-34.04105329636932,-56.16879079083542,-62.82894669686327,-60.65642308356412,-59.68847311013759,-63.5216031563432,-76.97078888626693,-77.81130319569351,-39.334646730972096,87.08784358724641,351.5184843226043,535.8916707510085,290.88275425728875,-168.99228425590934,-277.05478823556444,-90.38949761689742,-49.10374250856753,-113.4424911071741,-73.13519761477176,-32.77152077766623,-52.88677647508902,-35.44433092987786,-8.442051691058651,-21.816280915072063,-23.000587406620078,-9.12289071537872,-14.631921751389335,-18.006051180953037,-9.44566746532454,-8.69877480955173,-11.396929824190694,-9.838983509566607,-7.760948082839578,-0.32647381967281586,11.488341715663182,18.022102797716407,22.678986815363462,30.10116282846559,33.43919992342423,32.208210037287834,32.805834201952266,33.148653348180076,27.503296971723074,14.780011715175204,-2.22119266947694,-17.552329197954652,-27.716358568639414,-34.388259451401936,-37.86241832110689,-36.814294516535526,-32.14405805049392,-25.54420006777358,-19.27068674010001,-14.846074806736603,-10.440191207347606,-5.081447300664681,-1.2132163347139677,0.0904793550648666,0.7673617579914236,1.907663402656988,1.7009786738919184,0.21444158811608283,1.3234295988534388,2.666640866000069,-1.6454496067492794,-4.737568912131354,-1.102232496336084,-1.5047164438825469,-4.218417965345001,2.669661123538388,2.771295464000323,-15.48333471810612,-23.27143916368823,-10.684909714320174,-1.8043723381444146,5.677096758451929,19.303008329591304,14.005383096956367,-11.956941233677393,-24.630839968483677,-21.147142944574462,-25.400751446237145,-35.15389460466095,-38.57213937689502,-44.64263252184008,-54.05090955524576,-56.63102969359129,-64.98998371622982,-76.77926127279743,-57.861557650899,14.166646095152558,191.26698192730774,446.2763690891734,465.9810104012971,79.82301014336025,-262.66572366390557,-190.02420544510605,-33.24608312117193,-76.91468569165059,-108.0375530705838,-45.0541886619158,-37.86921871190078,-51.39041882872922,-20.338102718483473,-12.843516927346464,-23.25178967164677,-6.897711262942024,0.2083237992090865,-10.44383450618173,-10.936408960549006,-12.436148459847011,-17.937280515048393,-12.379836466063775,-5.543037014625895,-2.7723562579803165,6.397120909102047,16.06524064683086,18.79992618184929,24.207781800407997,34.41135147119466,38.129037365910335,33.7908624078673,29.268397041751445,25.179161059294888,17.773667965391486,7.616424755942596,-4.036559503208457,-16.276358378211707,-26.209128349210875,-32.0373956190542,-33.02567343767887,-29.398642876506173,-24.772917838723284,-19.756282317987782,-11.557039134828756,-4.214928110437608,-0.7742546611044965,4.388007474001415,9.219012731989359,5.466469290553946,-2.131085914770905,-5.089848251917603,-4.003180147454071,-0.02311323423694578,5.226915078896335,5.925791106319874,-1.1476393437493524,-13.179266072820962,-20.26026829152763,-14.569795835161884,-6.277201604272372,-7.53667745357005,-11.196815602897708,-9.613602461848924,-7.04902680159924,-5.880854289514637,-7.433318548150101,-12.343991302094494,-11.625405591777065,0.09525018047173539,14.747979964953615,25.34011439406083,26.511182693403036,10.014941392710995,-15.318948821237699,-26.14364612042162,-23.259193453726162,-25.89989250434131,-32.56271643692028,-36.69968206907811,-44.53100230365029,-50.026710921865345,-51.26372912963228,-60.80674171853305,-65.91664526450052,-42.00079017281277,58.842438796112106,289.43657860770185,467.7557151500332,275.02946820405293,-131.4002981310112,-250.14339584153876,-92.02692492813952,-42.525243905259906,-98.25321858651272,-68.7456269825685,-27.23066030350008,-42.77963169261614,-36.667311121108625,-12.767409830342903,-14.327652528865439,-12.333137205417087,-2.1270600777097615,-6.722601243635744,-11.87274372759037,-8.45233460925019,-7.82712301779335,-6.767564075533114,-1.2351367183623814,1.4232422784347074,2.237291504993296,8.391556859355099,18.74558601242665,28.946248086574496,35.51791894936075,33.023243702011676,24.243846139873394,21.51141618266567,25.68709115283709,25.249722439209062,16.675886897334944,4.983605873929294,-6.135661138512188,-14.652304668150315,-19.589920873225253,-22.11274051293244,-27.606173138472013,-38.441838311816895,-41.79134880671251,-28.84257650459214,-15.178400789803893,-11.355224444185932,-7.040053674618989,-0.8367852447635507,-0.20035522469716938,-0.19290101477378663,3.6214822912506417,5.501974017623398,2.896375447361298,-0.7607576797179565,-1.935005839753602,-0.5702227420748933,-0.27913544827672077,-1.9522171372105213,-3.311858826507464,-4.225616581682482,-5.874266560951401,-9.058360130832703,-11.601354982764152,-9.621566528913155,-7.211280824091656,-10.635102159312504,-15.74769378798245,-17.31597302194053,-14.115724092272245,-3.2051183066185676,11.223094421110138,20.00544105183407,21.958608749628006,13.953503100992151,-5.052819006074769,-17.406865613223065,-16.63564766111514,-20.970574512164227,-29.806691163704194,-30.57142794376902,-32.53582274636005,-37.917011151510906,-40.46160089219829,-47.944887549769476,-51.4961870878231,-41.009119420005646,4.297111788438713,168.60167493920932,376.74447977228306,299.03491803852035,-72.27008217804593,-256.47482886144536,-110.79444610150995,-11.09081646323618,-66.21024145104143,-68.94450572626124,-27.30146622900871,-35.336364674900125,-34.77722260753618,-11.070068958951245,-12.900455330763329,-17.821972928772226,-8.503518857236418,-6.234619494208303,-6.381823648068156,-4.710081357355328,-8.583539689811836,-9.723382844314091,-6.097083321811652,-2.2734292182803495,4.834066308108272,7.1664962183294385,1.1106123362726819,5.204230258139461,21.231094071003945,29.346523973856637,28.9047369499566,30.787189672491994,30.77760382076562,24.547697562210125,18.824512901395106,14.562461114674084,4.976667677668494,-8.965877195831283,-21.088000878708705,-31.49026851789622,-39.77341826829499,-40.54723523322467,-35.12392940486042,-29.75025755607795,-24.533645292918898,-18.524194064934285,-13.013063555857343,-7.037993812622791,-2.064866554585576,-0.6216120242112488,1.040523847734752,4.055433371507587,3.4967505851066907,1.0279093347676618,1.0422861206851355,0.1868719000802077,-3.3556938001932224,-5.505348373746324,-5.879114095390342,-6.674783516762224,-7.531143656265575,-8.229698648387016,-8.394041873857608,-7.421268432801181,-7.143180513190526,-7.6772795898011505,-7.434452618957941,-9.200396536708727,-11.703159219202867,-4.612379290923786,11.683647975854383,23.933210053591285,29.129225412784056,25.144377407561883,0.726650864421126,-28.195834520068164,-31.591188032136763,-25.06459564957895,-33.13283332628626,-40.227898686061764,-42.110408144861076,-49.799211005780585,-51.85671430244472,-51.59163146611719,-58.648544082567525,-54.29213613890589,-11.289599993209528,134.38370584141234,355.16611590371815,356.2266099593005,12.583805149169073,-251.7103546752464,-154.33515463340976,-17.491645591251924,-54.158284558552936,-71.28117968161797,-21.12464325221643,-20.002962157900726,-29.935208205792442,-7.428252993885895,-1.9569677326531973,-10.018244126801893,-10.052003367030775,-17.085316602561036,-22.533458384573855,-16.82748745952508,-14.851384738637273,-16.50842463291533,-14.350072817996253,-10.001661694123099,-2.647175225077266,5.271973934770039,10.44087201368025,17.26666731501672,25.90674142892025,31.772133234530642,34.65170036450892,34.58922760097709,31.743923659752696,28.585047918042573,24.365485446833368,15.833656022459337,2.9955192265945514,-10.604363250632034,-21.646216442644707,-29.923384938365547,-35.24477790324943,-35.48725715616021,-31.831976941541548,-27.569512751954107,-22.346698544496427,-15.770943572053962,-9.470419847245708,-3.138510291709169,2.3486404325480876,2.7739698881865102,-1.3299846730942981,-2.3107935666384414,3.0256837670744137,6.155078266749047,-0.33592572940320053,-9.067977496846611,-10.232866323095255,-7.409684271243398,-6.6716022482961534,-6.080405276958306,-5.026071571790268,-5.957358158550454,-7.519089023756585,-7.921903832372932,-7.228870286377349,-6.312139776548268,-8.94061569498006,-13.363498409718396,-8.767266281213505,5.656348052089296,18.884477738460603,25.91026085904965,20.55935754442404,-3.453105119559808,-26.770722783360867,-28.92323648167033,-25.435733334638723,-30.05005200451354,-33.42646266590023,-37.84145931074674,-45.305449345848096,-48.331939519018874,-55.67330239812371,-60.706313862105404,-43.797812503168004,4.308148806059421,148.717647193148,362.7304003227765,345.2794994416807,-6.649612691136674,-254.78602879876445,-148.16132466314912,-23.58538530597567,-66.25219284829365,-75.0914041534242,-21.965296471518002,-25.565780214677666,-37.37716797978437,-15.262603800012748,-12.078283396960693,-16.99364052936133,-4.99742901301129,-2.671644276601185,-9.863503057171316,-10.37298155192602,-12.186381728517164,-13.695904562510222,-7.617215198588928,-2.469347864890681,-1.0113262801017893,4.055628820696555,13.547730332720725,23.96783920356131,31.537034247084254,32.7239844953255,31.141580055708946,32.699261957433805,34.770356348176115,33.774592428315025,29.130916570861608,14.541626064375992,-9.351907802890391,-25.80216211565147,-29.05509748110304,-31.253940597080014,-36.05506631065818,-38.66164399215649,-38.036047529749666,-32.23327383218902,-22.7573237229438,-15.494992170043393,-9.332891054234494,-3.8195406682721256,-2.9182897527756886,-1.9511826792107954,2.634023481412087,4.891925056103297,4.855564849009598,4.257937963911585,-0.3511074473269673,-3.059775116350715,1.2583047080326777,3.461565420610066,1.8476742959905916,1.9618462604730293,-2.8993719334753063,-13.025727081802739,-14.073203697312657,-6.682421034105223,-4.90681877169288,-10.414132651262404,-16.96675942651694,-20.62025899830639,-15.628404036159415,-0.4540180847649724,16.380852041708962,25.503640714595733,20.35241627644297,0.076613302116872,-18.571360813668484,-19.862066322077148,-19.642622870987182,-34.21406730620518,-48.32076055725608,-51.9894040743327,-52.07789335988845,-49.64371793260803,-52.810306771872945,-62.273039747579105,-56.43735783868072,-10.946273941446513,134.7484789039448,362.1204706492355,390.1821575795109,62.516100746512194,-233.34561784551775,-169.8386733420897,-24.788712462097372,-53.25503499615135,-84.93413096574996,-36.62905209644673,-26.101914671927332,-37.50196082003443,-15.518375685314789,-4.65982913400881,-10.933753396496105,-8.379255119683034,-12.41628870635466,-19.836075949366958,-14.555270230819543,-10.774717343796778,-13.869243184824061,-12.69306924855675,-8.338586273505529,-3.432171688333828,4.333123508153496,12.452630010098005,18.70786214228609,24.542827665094492,30.268178705433378,34.46905980377574,35.822334051665024,34.626939068726216,31.771866241073873,25.936363636997964,15.771168802736849,3.772476448322247,-6.686119880946697,-16.024333620156497,-25.79405502238329,-34.77758805525871,-40.35961903726806,-39.73046010485942,-32.54189354215836,-24.454924263655496,-19.579400834487004,-14.108919169055591,-6.322306310579332,-0.40116748450201456,2.4320462428101806,3.757777296845884,4.172750256244227,4.30337610679352,4.016543677212656,4.252793531143162,5.567162924516084,3.2780425909810074,-2.3547284052149653,-3.2520423528089886,-0.6041753774459195,-0.48127255528879864,-1.5359371617272704,-6.801679178575853,-19.44736694700243,-28.6323174025067,-26.881657060924972,-18.10389649232812,-4.2489720215293705,10.936754816491483,21.056134762472315,20.722611867836523,2.55645681923453,-22.891967173408514,-31.714755086753478,-29.837464746635003,-33.98184191078768,-37.98616054062861,-41.68631208991704,-47.61643714573105,-47.912819926912604,-51.21024601398535,-56.21891386281017,-42.99442137864456,10.755829576945175,172.29661426979288,386.7312122399576,340.18206191147704,-28.45711846119842,-256.7173025648947,-134.96538748611766,-20.77812704100611,-69.5270238220709,-74.58799782696302,-23.324839881729368,-27.55651988350222,-34.76171014091228,-11.456612462665074,-9.47858918248015,-15.716325441729028,-6.594360084727169,-5.957186717248465,-12.588200694759006,-10.25734055765429,-7.901274019565026,-11.048538884495827,-11.655858646392613,-7.45299721919875,-1.9752560101417973,3.8249241181028424,11.143682145336651,19.43535073835103,27.97035603853533,35.89401234812748,38.46938668003837,34.26871868619946,30.169808548089456,29.029007475882906,25.239805702972927,15.064935089911451,0.6267918113090802,-13.225528535992822,-23.61488470590658,-31.836286575644746,-37.380088231836865,-36.88546440420674,-32.0432668505633,-27.088223581224366,-20.748392949288913,-11.305606347021563,-2.7298773039038835,2.41350573763832,6.52957072778606,7.328203183730771,0.26742711670799935,-5.937871144649368,-1.3787134552752622,3.09524799974203,-2.7687336716554114,-7.507980668446058,-4.543702374503127,-2.884392023430868,-3.1293633115571176,-1.632664123551363,-3.6412117706338663,-8.363755388068938,-9.701442809019053,-10.507527659685392,-11.039857750956468,-5.946190006557856,1.5627259479565403,8.9714608441263,16.368179574693947,10.446545869717385,-11.527713271146725,-26.001407165627867,-28.19575075083873,-34.43473488040662,-39.6988426494832,-39.617754617865565,-44.3360106729747,-47.15793353784841,-48.890305222678506,-59.347055128379374,-57.90241793209292,-25.909880742694654,79.18071126705041,299.2068986674822,425.0949717615199,178.83370469683257,-192.46541795664402,-228.1095029957382,-54.81050018560352,-33.81789253380464,-85.74979028642676,-49.54333112263896,-22.547865468316715,-38.10131001563465,-23.163202047835988,-5.452569731597556,-14.350360628914274,-14.466356171577536,-5.902826580464235,-5.447134955960436,-6.031762187331113,-7.706475493617793,-12.084046835607584,-12.85464351471765,-9.442356025095052,-2.922223282504733,5.225120384632177,11.214022503325726,15.986219808355738,22.359401284980418,30.00150428331787,36.81028613749788,39.50115174350188,37.16807454673423,33.43217633667318,30.31438204000198,23.03930796393322,7.906265478172504,-7.847709992981077,-18.041909134370947,-27.730340140616946,-36.5922281433629,-37.44502982652702,-32.131178400563044,-24.637409571252306,-18.352198480114467,-20.46595228950648,-23.97812046804027,-14.783401746793405,-1.0085635211811805,3.468099636117344,1.0378418144734756,-3.123967569701245,-5.228818228167032,-2.6635848056344233,-0.7986930290181711,-1.6803680775960501,-1.8756185076361795,-4.1926285596647475,-7.375808300571869,-4.52107934838177,-0.5634564291018709,-2.076103154359508,-4.010277350191624,-6.0646742707878545,-13.135504881910276,-15.956168210207315,-2.9104882895173922,16.1962588722193,25.105380465159172,23.33525166254626,12.485516601969191,-8.78293170714431,-25.469703957153683,-26.3223390314566,-27.810781713253178,-37.1755836900416,-42.11557973195806,-44.86820150766389,-47.562948832893184,-47.16213892285275,-55.19447815271687,-62.682388066964094,-46.229398125362366,19.160325517004566,197.71142315882517,404.8288925032273,321.37851170383254,-58.8369632921858,-255.58953864589478,-116.55727600931195,-17.28011925986305,-71.42215837897584,-68.64990446436029,-21.674849110051767,-32.43769966628154,-33.93070920812467,-5.474811940697357,-5.4334007519005,-12.846602068778482,-4.295231034730108,-5.8621661637572196,-13.023448427699753,-11.053393687376342,-10.808572346143306,-13.364951800787514,-11.368725753445965,-7.273949722210117,-1.3839473165419196,7.503542579245691,15.373558197667203,21.50294734645864,28.608853654031364,35.49329591551977,39.98954954102926,41.642226174332734,38.576452394003425,30.45587748894436,21.031873368838617,12.57198989403844,4.045741955870728,-7.429681098504723,-24.811726110615822,-42.33168926056994,-48.116327788771514,-42.673854767107045,-36.366989086151605,-30.97844240546754,-23.035629403106903,-14.517665594782695,-7.670205313003347,-1.21277111523181,3.8242804874379788,4.362188356563115,2.385405103414495,2.5318109548012515,3.4341606729805694,2.116897743922153,0.7926716917673726,-0.26448229533723655,-3.581977457998809,-6.141008620517031,-5.145156394065255,-4.433830647043103,-5.769092027967362,-6.1427657502985635,-5.369235519563801,-6.000638796672421,-7.110926041963387,-6.196827144870225,-6.643488177159828,-10.728039213936821,-8.399762097757097,6.540211220160453,22.358993271201744,28.768883888999042,23.33177276108134,2.883370860012308,-19.684535660171846,-24.40734400029899,-22.143053034480957,-29.50243688923227,-35.539299049143054,-37.58035155291944,-44.46805747671422,-48.22948589487635,-51.89337909566845,-61.96137591119667,-58.38429740647196,-25.887799530087985,82.73173561769661,299.94094211702617,405.5014440350385,150.73859647634458,-196.20483226371704,-211.4960576731503,-45.54458691984314,-32.52908211103881,-79.35154389421126,-39.447780869307465,-14.094127203229668,-31.707758782522674,-20.933258255359505,-10.108874252035715,-21.207322945372326,-15.892867929574717,-5.708615968119309,-10.951747638146433,-10.627601999616024,-3.8780431408831877,-3.0835069438924085,-1.8730619637107448,-3.2676374798685632,-10.507258191273301,-7.348320229300467,7.475239960295096,17.436197359271567,20.845857757368073,22.987658923312814,24.744471320027962,29.489385445692953,33.70239978432287,31.352255420764997,27.418307292632548,21.197434430433216,6.764880336231031,-6.8612449818763315,-13.716941241967834,-22.489054754431855,-32.80847484602622,-37.05865127816546,-36.0527067418181,-31.167464584535157,-22.711588954423355,-15.318035336564774,-11.252582811236952,-8.532488581544786,-4.725101604180711,1.258917315720253,5.459687973627221,4.089516624894457,1.5620855812974064,2.0618985016440217,2.7419085732583603,2.1519681436716507,1.764612040869646,-0.1803487731088218,-3.8782502707312663,-5.211167071767016,-5.190095805532338,-7.1112769229565735,-6.7785442795630795,-3.6763849609730883,-5.02481671367369,-7.464362856826934,-3.9338400537347553,-2.235776960994876,-7.353155529286088,-10.820693884286197,-11.11997178471552,-11.148844502346565,-3.7408710360340245,13.509551148646349,27.80611002016373,26.329451359238845,8.802396019916333,-11.274560921427403,-18.955850990129527,-19.64105039399267,-29.09470883896577,-40.67822771296579,-41.971484627885204,-44.002916376765754,-49.30395537874057,-46.5515910313848,-48.24499827424093,-56.775760615845,-46.47045568503957,7.06598290884763,160.9809923477663,375.76666235547174,359.6139960644566,6.048392260968434,-259.74802707783476,-164.52054145647415,-27.955720052591747,-61.89848679122607,-77.29651167362381,-27.52538656565698,-29.0300137919075,-39.77763335820714,-13.99143634913005,-6.676696739959681,-12.576966034136774,-5.33856331946272,-6.662184045876003,-11.35158184069258,-6.332837081705348,-7.179440451271043,-10.595763973178562,-6.82559200703193,-5.0295025884922735,-2.86457373332862,5.883525968240859,12.941210427046627,17.11423389176089,23.643872216847097,30.133332693306876,35.020652283232906,38.13850497609485,37.32511836652256,34.146051935780726,28.874812046383894,17.36038694024741,0.8506402912218216,-13.063104756005199,-20.56709763362615,-26.88121144412336,-36.294597248615595,-41.23912701007113,-36.62082125843525,-30.189915726430648,-23.62280181734313,-13.757535914662679,-9.03062244841124,-10.259992175468415,-4.683597301972254,4.279591654711101,5.459076695209703,4.699345412901647,5.775257049440079,2.8505773813183053,1.416985469484061,6.057958200111557,4.383947576383228,-7.296934175646362,-13.874203600570858,-9.948684248820168,-5.228523091235385,-2.8185800302138357,-0.11038688763666293,-0.8730988897959797,-6.207740196526512,-7.763936215564904,-2.4291828750579008,0.618541898727198,-4.531309435701708,-11.596683991007609,-16.160068821476614,-21.071600427939153,-20.390822840382043,-4.855331473692495,15.098487433483157,24.140425714588034,23.15671565263117,11.552728809999014,-9.594572061199491,-19.235073633597647,-15.188712444248981,-24.939414765270158,-43.02166851033815,-44.30287422376391,-40.835322611444866,-43.14062332112951,-45.91779310870169,-61.416684264100816,-75.72697585479833,-57.76903992239538,7.4983532537379745,178.62604831693665,390.9913873379081,329.9254682288629,-40.085680763352,-249.7791345741577,-122.68154795781771,-21.64874794629382,-72.15864130186374,-70.215933677426,-24.545146094854886,-37.48859335053048,-43.150376363512066,-15.889923296155352,-12.409041708666312,-18.3464050459252,-12.338958483214363,-12.548082940701976,-12.67684280341642,-8.266419604143241,-13.339861001051446,-19.639463189473567,-16.74548546748072,-12.925604829183477,-8.995490654045383,0.12569107546348857,10.957417882939556,20.336946321086916,27.720176635312498,33.24773973401858,39.79655958412862,43.378516985104746,35.80584355738203,23.205498462105204,16.206574117466793,10.598421540275732,-0.8283269569028047,-15.63290955110417,-27.624899843109954,-33.611156893369895,-38.10381690458906,-44.78797222200149,-45.86098645550529,-38.92022581427658,-33.33023735018618,-28.97595393108258,-21.29426389349726,-14.75453244980299,-9.564664087088204,-3.6627722387858874,-2.2130774188713147,-3.757492154858923,-2.1586202546321864,0.588406373792953,2.6539569100725906,2.841371775425177,-2.1183893625036134,-6.171229551984908,-3.4163443764326864,-1.291456493830193,-5.555366343596404,-14.784115298892878,-25.714468329998855,-29.314787023694322,-24.60419433379279,-25.16843022630868,-30.120764505756455,-23.548538114894498,-6.258932029435922,9.275255566523297,17.741265839207117,14.818762685880177,-0.5848497450746777,-16.993680862295648,-24.311094243017006,-28.373575266575337,-36.30983104585997,-41.08125643667822,-41.08604389667106,-46.86131580265298,-51.938303011493915,-50.83051213199825,-59.371448471001926,-66.75016332780012,-53.51139816223414,-4.090226384074413,165.37053288674392,404.9528935001704,368.8689793909186,-17.290985043262616,-263.5986574693638,-144.86171068169642,-29.268256663885694,-75.95921670216205,-76.51227939644268,-23.657233653929396,-29.06950980446687,-37.06071916965267,-17.646959994653105,-19.271005462223116,-22.256949564335642,-9.78410393819158,-9.77233351283845,-15.04887936331448,-11.566555958687417,-11.15964095094741,-14.63090696008092,-16.059530824934654,-14.738780938006576,-7.813922474202431,1.2509265642917893,9.463686281377477,20.820464086827172,30.70131780874009,34.68645402498842,39.472378048304606,43.63785875422276,40.52320543327872,34.96716910479189,27.833437807289208,12.030868556494507,-6.344551062479326,-17.27194686857318,-25.298130522746156,-34.67831856684301,-40.142122358449015,-39.74467938073366,-35.94298887158749,-29.77007454378339,-21.92978475001857,-13.757601251517638,-10.461115947036099,-15.147406785181309,-16.230283746861257,-4.900224860246919,5.746246977147917,5.996650531870639,4.107206076975748,2.9749387681391877,0.0830665059881035,1.2709758469819104,5.875792624684074,3.2501501252055487,-5.451601703334237,-9.87665732896755,-10.151883043356234,-11.285895069682553,-10.804137511045424,-8.870037357208233,-12.0788969886564,-17.362372124363304,-16.871007959562135,-15.007152075842992,-14.900310496583543,-8.749732668590509,4.365326585160004,17.886927345589857,26.969336794998895,23.27738499050176,4.231939476126961,-15.13795163407076,-20.27051730743355,-18.01874043702041,-25.10797759535688,-38.5106710497716,-44.01877521673169,-48.036872227787384,-56.507306327672325,-59.35139363798575,-61.445531498367195,-64.47526556271649,-45.66190211540059,36.45500541644803,236.47102668283415,440.57685289602875,330.63159375848784,-70.22335360146396,-266.33545596798655,-121.38992018515897,-28.211349945654888,-88.43001584353372,-77.43598569503412,-20.78974390730056,-32.7281187751678,-39.176982417356015,-12.781349810765029,-11.625828898751084,-14.820828093615507,-2.006937386034916,-2.902688187685621,-11.82482628416411,-10.707598028616356,-10.233799326499701,-12.926384968225758,-9.677194378712052,-4.006566723993454,-1.9571992376125211,1.9302800376964964,12.360914546106752,23.001799151850765,31.300783826388635,41.110336652094716,45.33286352832476,38.72772410186621,33.64796277769827,34.768468597408585,30.302800077524157,16.425445309600757,-0.703551824438247,-16.039975970127344,-25.63872977869967,-29.20361892218417,-30.676245642517067,-35.04961584276689,-43.10312811003391,-43.38971296022633,-28.571637591580238,-13.115016631359357,-6.79196990272801,-2.0430457091659946,0.5512061428293507,-0.8425962510404599,3.4892223608958126,10.838784955583927,9.877316025658608,5.160600185400389,2.900248347619118,-0.37175519588414474,-4.650851245753152,-8.317435274355546,-12.122927436606556,-13.382287774718966,-11.037645331167111,-9.167549924646702,-9.775713011983072,-10.988409878514375,-10.688360509357587,-9.580853721856592,-9.672621848073376,-8.752115497939243,-5.068846020317917,-3.3648015855382116,-5.318185571736063,-7.060275845071713,-9.012357620186368,-11.387398881803097,-10.959092121030855,-10.985588939945599,-13.222669302539936,-8.988948693436964,3.732270418181179,17.930504066453672,29.749483179173435,29.42308246502011,9.424158446067928,-12.653359621342341,-18.84359606057189,-17.70257537046504,-21.47675901603281,-28.55701030466973,-33.370964955570216,-37.76306121067176,-46.81889222117732,-52.156196043197525,-50.125853214509846,-55.98770355800066,-61.57102225790774,-39.03889967714699,48.33243997515639,250.53266175956549,436.05491658602523,293.9555718708438,-102.26897895446326,-259.8963218629131,-104.47507062863161,-26.814375886222273,-85.12122567645328,-68.63988757820499,-21.574498680211462,-35.54156145096472,-35.19969135236188,-10.513678586787956,-10.683325002753548,-10.111382799900904,0.1418363615216789,-2.6113718149723253,-4.782248162320428,-0.5483941364294616,-1.6398085723909768,-3.7164322785638744,-7.890450784938196,-14.366483806552058,-8.814999319858613,3.1749557763914114,5.990301395661128,9.276723140550764,22.12797932957961,32.72241468875649,35.40300828883349,37.35539258801225,39.35097632601104,36.37179306332723,29.034998566226708,19.139918429665514,4.584763412804664,-11.631520383619467,-22.727592518018994,-29.488857477673992,-33.86882682935364,-34.775196849115275,-35.418634232905234,-34.326497700584696,-26.197237737283306,-19.236670562040707,-19.11284418609341,-15.45638059674205,-7.562729302252318,-4.168103254849836,-2.646221247668427,-0.8656670145365357,-2.247465750887411,-3.264669472284913,-1.4327260704740414,-0.6168980262461297,-1.9862753952704697,-3.715748992772536,-4.334430524052195,-5.4768957871083686,-8.999608361832186,-10.10301968557925,-8.584866072136496,-11.742751298975586,-14.725980290121278,-10.456829615625965,-7.0822679810061295,-7.682713374559558,-6.6877802911461455,-7.761847130301234,-12.11563961399072,-13.293247619604731,-13.084899950582201,-14.016356580607047,-11.43208717215433,-7.136966866225642,-8.07375410219343,-12.268440682861257,-11.320831948659816,-2.956399411011816,8.137875893744846,19.513181554616203,26.561825913908486,19.456150119373227,3.3405052098750563,-7.605700233435634,-18.74090366728838,-34.269553215792406,-38.65885756852509,-32.556660761575685,-35.92345316340429,-50.47937192168648,-60.31648007398768,-60.934171778275726,-66.28078142942226,-76.84915466239815,-73.91946559383055,-45.25998740037216,73.27303760814762,327.62499167293134,468.7114999865651,202.10013120818485,-193.0217106028286,-239.19557587973696,-77.18932194567448,-64.43206994641119,-105.77149306511738,-53.9045044590118,-26.60973298267045,-47.79433401363687,-31.592036243388385,-11.769089875756823,-19.69702665535474,-15.45855737093217,-5.1677276162976895,-9.76895288564004,-15.211046779204775,-18.343986636202448,-21.516959255370853,-19.03546461445,-17.96051186997856,-20.670300259160282,-15.981709351108998,-5.598010491187178,3.4445603898138204,15.22065986932213,27.52509370243436,32.652155160015305,35.679695189482544,40.349319501393175,39.69964726837313,33.429970704852586,22.751146703068628,2.388317542285746,-20.938753934328396,-34.80147622868577,-42.78163506248286,-50.18542218855167,-53.067385373532304,-52.234864844668664,-50.05844891905618,-42.90215197111433,-31.720909045262452,-23.63718940625494,-21.805865435919618,-21.857706366768284,-16.60249482931939,-6.548180817434353,0.2366401936826037,1.3594344538668182,0.4307628394790335,-0.13502369265147962,1.3187570813608787,3.7943380582120234,6.013706485544613,9.01772734647162,5.73420307305485,-10.429826387934138,-25.953030266184463,-27.407887389484706,-22.74708791915643,-21.20666156017927,-21.162830333771925,-21.38566631070706,-22.27525030006526,-20.74251763811654,-12.83411586900444,-0.2788122540280007,11.7084163063796,21.401130205382636,22.761532511747834,8.02018721674654,-11.402813574732798,-19.95211962393683,-23.499156594101045,-30.10701752270149,-35.58735612097168,-38.194994905261694,-43.91621233728345,-55.760557909024314,-64.38593358372941,-67.65981698487148,-76.79077323693093,-77.9642481430105,-45.629984142398825,58.3443830652656,297.07672508710704,521.7263172668868,364.34481544526045,-99.81561762023173,-296.69905631656695,-129.19607245449237,-45.63688521291047,-112.83262865272465,-88.29981430928378,-30.397235308804895,-46.230838614091226,-42.322877613435885,-11.412111837373757,-17.13834884545701,-20.34910110033908,-3.9075083749955013,-4.989269603162786,-12.379733893430434,-10.726595264863924,-12.743183809009167,-14.25844012268527,-9.779001003409139,-6.914587683911602,-5.030790215794548,-0.1658399780014438,9.111454217128792,23.58266898046015,36.89627542611544,44.75381517742943,50.098919489696435,50.50709550336887,45.2623962099969,41.7874723707811,36.2016388586069,18.28919467253979,-3.7419015388798904,-19.11549121071298,-35.1802083025773,-52.9051847890785,-56.99071192550716,-47.35846027305043,-39.7740823508197,-35.99611999435929,-28.851068494868077,-18.953575174256034,-8.486570611374205,-2.7596830935836323,-8.363115790097424,-14.972262524283005,-9.97754070084426,-2.506516512254933,-1.1638145190759452,-0.13833766672038372,-0.06329158049937078,-4.113096629384435,-5.173200961236695,-1.7383434867516687,-1.5225906986637625,-4.723440392640713,-6.0888206793416195,-5.778339679684528,-5.610819992748315,-4.711848718777631,-4.323713794746414,-6.924426464959522,-9.430451207860518,-9.279932133786017,-10.854115630815127,-13.459650453895115,-9.596572653226666,0.4990954579976563,12.26310967894897,22.49294864228299,22.053545564784564,6.6326821975553365,-11.893293237856199,-21.21695243815981,-22.051297358489286,-25.892924417790475,-37.772226458759754,-44.50817611973659,-45.980965006530624,-57.349597463356346,-65.42906591564449,-63.99152684968241,-75.3088790809894,-77.6952414640399,-30.359930799468785,99.95988619473503,351.4717932408032,534.3937864796272,303.3768768069753,-161.35670935971763,-285.60859606566925,-95.36056127431098,-45.61924654080353,-114.27711046319467,-73.48017476358655,-24.370453845667527,-43.96532297946942,-32.19548726381195,-5.770505669924347,-17.196647518011872,-21.52390753807321,-12.331358518565317,-15.84011235531543,-15.93491561249148,-11.149744856738451,-13.182960082310633,-11.198815274851857,-5.747196589200721,-4.549538909378358,1.0282904851077035,11.054746120272709,18.501520421312456,30.48537134159757,45.36814522515007,45.93455294190015,36.48565251262395,37.35353551639269,43.893780000714685,39.244023898133705,25.5961383156055,9.34370631462713,-9.059529774142737,-23.560051108248388,-32.03726701548493,-39.27130706657802,-42.53178578180256,-39.511979473450594,-34.82324875698706,-28.38020754416604,-19.398227359783135,-12.212847653148955,-8.550806963217955,-7.21233344366448,-5.7739442859983185,-2.1257839211783054,1.1259594386370733,3.6633267529539566,7.415515035911377,6.644728555112575,-0.6517614191671797,-5.577772625298053,-3.2279039730398686,2.9470137495614903,2.953932610518331,-10.11067677636886,-21.582296069099133,-16.580189169532645,-5.921282325500801,-0.36355623624036326,-1.0743916865982612,-11.721484565044555,-21.065130677822374,-17.106687537353796,-14.020743261685205,-16.24625830503235,-12.942681127676707,-15.812855239290677,-26.678075858008235,-19.17717172635355,1.3301517416096829,6.261799871964675,4.041985813269864,14.483168208648596,28.68833937374706,32.26516480127815,21.26831001273113,-2.9867634693222698,-27.609512732797196,-35.750517700904794,-30.788020661310938,-33.42502296958628,-48.07798543769147,-58.93462358821802,-64.5268872851589,-71.96066709914179,-74.46759633723846,-76.2470655489237,-83.26837287389992,-80.17718035174093,-51.72079891007752,71.11634407096739,337.0805998577546,486.14520641399815,211.73003299643923,-197.86209680602244,-247.79455053008064,-76.92618491146588,-54.83676128878943,-94.6816142580672,-46.20517534252228,-25.01846721408809,-54.08738190907552,-38.36087977557121,-10.571261962711073,-15.852987703885113,-16.817124451454937,-9.571597391770458,-11.787522965732048,-10.759743316859861,-7.558526724892165,-11.325685129943492,-13.004520847937215,-12.227261052366222,-14.162819914314507,-9.338973102392595,4.543889839080779,15.025360664403811,19.23145516864538,25.27433729978413,36.05489734162283,46.376372712833245,49.16840606562499,43.8314958982485,35.59161395842804,24.69225657665399,9.387652084668757,-7.1151642491067815,-26.359763312452138,-50.72953840208913,-65.61674221471306,-55.90497394760028,-35.685869292271164,-31.09353187921014,-39.83703159119024,-34.295814135903164,-6.801469848924857,10.321393525142803,-10.267107235121077,-37.48078626651292,-18.464926524471757,25.134134804774085,17.535368263134135,-33.99534442807709,-42.960129669782056,1.1442316942646515,29.18274157340912,22.949518964380808,11.139451458159852,0.6358853080384961,-4.972202521189654,-3.124546709995194,-9.982977935655379,-19.319891910821447,-8.440959839616923,4.3577625440694,-9.829448695653817,-34.96608304238599,-39.56433463299445,-18.548965370849977,9.886134336876873,21.46149549268599,