ECG,-2.098101726656953,-49.610296126643405,-49.02420187988032,-54.67249551596653,-89.52884898029177,-140.3092411226556,-194.29623691809846,-176.2870125636959,-113.80313007002368,-139.93710431495865,-165.46202806106825,-47.92325177678222,189.56812159387707,588.4865231079445,884.5667382693971,491.6503010069514,-221.54269786296888,-290.424659566377,9.030023377428464,-82.70548814434395,-226.10468268869738,-65.52609242070017,-27.607574655514924,-184.44480671752342,-176.86065379886338,-61.49336972563691,-52.04226719568225,-71.10802628301515,-6.532023640834179,66.01667319278198,33.50809795231997,-40.182415793426784,-30.32019934711068,9.951946221189395,4.082677725149596,-11.465543640292914,-29.0567111171379,-17.130943303832257,62.659439799044684,93.02044389341373,53.753484303945456,102.17454046736214,187.6323600635234,169.5871365173131,116.21506274137617,78.30900003238062,38.50324153118298,31.223584057027345,-6.143033731249009,-98.15865165164044,-88.10786011295693,6.677654083414586,0.42183569728756964,-71.76359382497871,-68.72622157859448,-13.440297348033845,-18.75831451604571,-103.23622886419285,-111.71104696056453,34.68303991521003,119.24677901015588,15.828869335958519,-57.48797545543918,35.63606487512165,125.9463959591161,52.08751423490905,-81.01960824232374,-53.68828465286628,68.15494159434695,31.466459068549995,-74.38705568872633,-30.174951390022883,30.124469970143085,-4.9663549307699295,2.3409529816284724,38.334990512485234,21.916472404816624,8.56411759972751,-37.45788631151392,-113.2246381329683,-52.76125355152322,57.10572038546369,-14.325518355035726,-126.44267111024067,-76.10532625568669,-46.21661420063728,-187.5392499342132,-239.84604473025723,42.06474910285485,470.50351961890647,659.4192585279549,432.6135098871895,-15.800482206155692,-272.076659887113,-205.90002715908298,-128.40379683989238,-198.06553396101805,-235.61733284526014,-174.3948133578631,-46.767306079166616,95.72268051232615,44.636813669434204,-122.35568645582873,-37.626393072187625,126.79427638846744,18.58423984205418,-83.37344212195951,1.29967857630918,-32.3611436597821,-117.78584459840755,-0.6164662863696062,84.55207476968923,-31.37810367697901,-120.77205364882035,-89.35808921072683,-8.442077391651917,74.97387853366023,73.76025448202145,65.71409100841453,208.18629415466677,288.25202889047614,96.04357171106139,-57.89923164026802,55.060339690716425,104.42995824853955,-99.48905730866798,-184.49396253945875,12.630066186498436,46.68237102118923,-221.48388850390037,-265.25653420429745,23.535284662887058,111.19761875190976,-65.36474396148894,-100.02555317022477,-6.28636546146334,-14.699237780476764,-68.56616701764624,-64.14491377852221,-3.843911300657904,93.92907553932277,133.8617093133572,40.609747535521734,-73.75968765998401,-58.238988608158195,34.041469291685054,15.582637611793075,-89.71235650035887,-59.96125028826937,62.49246915593897,55.48476384110377,-4.167249312978717,10.500614363617384,-14.588765059494925,-64.84758083081346,-45.34552779071938,-63.028396134421165,-64.3322431023623,94.84199446269855,156.80712887812533,-9.48128533931948,-47.14087832572946,55.82578128127864,-26.44124095433793,-115.10273800702154,0.8157877702851337,-36.90229457623454,-298.38914064914815,-314.2519215668538,-107.91347554880439,-61.92113100468155,79.50351640860208,594.804289353322,805.7248349359018,186.51583613898623,-452.5528575456465,-276.5735210753686,124.17343183328516,-72.58124334906923,-382.33176168265845,-107.22042959124869,204.6302167725209,-29.194975339225437,-220.64543930981344,-47.12461159851395,-78.57490670224445,-221.4833554520501,40.339299509389235,244.0952993943715,-7.525096546769589,-133.9437013969627,19.805853139069214,-28.860624333206722,-155.92025511606465,-51.946171204496245,4.906104195703456,-92.13087884848534,-39.8453678077425,96.16199832055821,80.91968310984531,85.57506210643484,202.43734606737428,186.3854293373914,53.28403179465996,31.414158071817873,55.267108371477136,3.606147774680281,-47.45512087718049,-66.26812286401326,-60.437316797402374,-11.36332174366478,-5.255802769601765,-73.3086959575981,-103.52913089713591,-97.3959365053914,-99.11337640176544,-37.243989697505796,36.936736379069366,3.9732937081990443,-24.582773466884817,36.92027414088339,44.72749656676983,-13.53882065562031,-13.455835753511113,-7.108408584215457,-35.510438340334986,-16.068051775439727,-8.503212957474474,-45.02700248957961,22.473944698326502,106.93835568542787,11.708243468186861,-78.46249031295807,-23.580386665543738,-34.53891468307625,-87.91186736102763,1.409943766335335,74.73232956830593,40.72408774664851,67.21627497296042,82.1565971567439,-32.29291182621139,-122.23696101381822,-133.1538521472564,-113.23743787380877,-28.272346927395006,-8.856623767777307,-139.43444067919,-198.93185952352385,-145.45187298204186,-79.48573810501199,190.55474605128205,595.8609303214304,610.8367543802249,224.2489031860598,-61.89875322878173,-159.35147233475232,-204.66380369456826,-115.69003492652794,-17.877112909934667,-119.66204995607103,-179.00247893289088,-38.72017187711624,7.520964034030172,-81.09746453478978,-66.85345407118623,-15.224196627668647,-23.87775035280003,16.61102035351845,54.25709561440007,-14.238574568765006,-67.82855684330191,-21.085014041454414,34.91210606279625,11.314206839451487,-65.520071618922,-60.030133239991905,53.30432868232433,80.00766601944625,-25.33015409746626,-23.534002776410503,142.92010357014553,218.8416447086215,117.54034935583155,50.67843399135501,81.59673481668261,34.39207029721021,-91.08219913428218,-122.07364162623104,-81.08693810208018,-65.42690027125099,-14.507635696451743,40.48936945339587,-43.83870955570887,-152.46048436105428,-77.74563674033494,50.75127906101352,22.9470244519825,-56.14148959938746,-35.2365231043287,0.020473617927592613,-7.326519047091645,33.93950677078549,73.88621319351692,-4.096522883783585,-68.4049244274909,-2.0250033396880127,27.107819003891986,-48.90277238159925,-63.530450127133975,5.445384635720223,42.63256261222777,25.93884687248784,-16.17566265360887,-33.273409408748456,10.762966226247563,54.68033950106714,56.939687283781105,22.93910390092684,-60.32982083147185,-90.63034474363945,10.747623247162565,42.38870711970117,-95.05352582367485,-148.01047572062043,-37.34715569091949,-7.180883214118396,-121.14043369541666,-230.30331180044178,-260.9301440972917,-82.18348977048836,405.75033806581325,784.4776907483026,541.8473788546593,11.84543757152393,-151.74629127809504,-64.87410525403553,-111.6643732686353,-165.1295998104241,-95.60031209611003,-68.77851003280233,-92.53920598735446,-74.60317506622941,-74.08456635409783,-95.21129002047344,-54.94022743548773,26.334515032092547,61.028539400285034,4.1565924322847625,-65.13324171924758,-5.510292337423409,94.72484587433918,14.23963955371916,-126.92207630231273,-69.27001703051394,37.50986348727777,-20.366690668653238,-37.569455317306705,101.74307689503445,117.53605122440564,-11.859487100913057,33.44028114565273,201.89506645133838,185.02533908946882,58.503722689297085,48.53322156697473,59.64917185514949,-48.379017226812266,-141.08725733482396,-80.725974714891,13.821892634714239,-4.954181230809162,-75.95383527150571,-86.74792173069355,-39.2263048948368,3.3385977930365804,-23.459890554799596,-78.10741758403304,-26.34298363820033,67.14887373739886,22.189780407775032,-57.472904183140614,-10.336636121469507,37.87317896231115,1.8418319511399837,-10.174083098300517,-0.805054768869887,-25.974113916999187,-21.43061041823972,19.19774387662078,17.073727094408873,-9.3955492079672,-7.454380381813873,-15.015174389084436,-52.706120515699524,-42.480870391164764,33.08405528797511,55.16167941167465,6.122171253577075,21.92579189041708,69.79616640028117,0.355914974294695,-83.45374333450036,-47.976324957418285,-42.008321130224594,-120.88596262974848,-114.87572633346717,-69.82989607201444,-154.8647024907858,-260.2165519712815,-163.93661051530125,189.53511391896842,613.7820440972025,703.6840223285034,316.6281144215433,-107.28733689360875,-191.62535327892158,-99.5163956392163,-78.2895287272153,-133.3441722888105,-168.14890718145588,-104.1600037319645,0.8871246338711174,14.858313277663708,-29.984103127514146,-45.034715828788414,-56.09480624517756,-50.06727516635824,8.754819391971036,32.63326857778456,-24.60506853343731,-73.96076891796487,-64.94528410679669,-17.51218768201379,36.79759114525613,33.18355565681942,-38.04918803737853,-58.412668021278535,31.400063731349213,110.28518633791077,88.79685578008751,53.746765699833155,87.01597239156986,130.48427801569727,102.2597869865277,15.721962192057596,-36.9190961058228,1.3452211698359733,49.46294209416665,-3.58219896786148,-106.15300112730117,-128.45032065301274,-73.1668363853858,-34.95102309324834,-45.59277465267359,-63.4174490016099,-39.074371747693334,18.342949076421846,26.33745344186883,-39.88764290582583,-70.09000728269733,-0.7952584656031298,66.62074544177354,43.49067345148842,-20.06800654600056,-43.15775231891047,-15.327081892030222,11.038985105028086,-13.956255069457754,-54.06027864747483,-25.35945709080707,48.26326036589537,54.052569676261975,-5.437536655186165,-26.984247947298464,-15.072176750782049,-21.59469132287024,-0.9420381324105911,29.92374933772758,-14.455844247399014,-36.98943081630604,54.42883081644433,84.8887075527737,-28.701645101589108,-98.85969998192527,-71.69425685022547,-71.87595029712756,-107.14056499525103,-128.24454971879064,-149.93832480632656,-164.2351245827321,-85.88466407181338,205.99049659098876,601.7354527445364,647.1335651341813,207.02749067452748,-172.32914866664487,-152.97338473709743,-65.81385274059474,-116.88625024035917,-126.90299469205154,-80.63985775756844,-91.41262683107752,-95.39054396694773,-48.807102578762354,-32.37908532408966,-41.35524830605671,-12.403647283617463,15.515471106789235,-4.684690808992505,-16.389605644016697,12.901470242054293,22.176459900839475,-8.956461666339466,-39.835356274315785,-59.63280436691409,-53.518448737687976,-2.873530964387564,37.9745957713696,26.159898876015706,20.664980244699297,72.42402257966933,140.25678994650286,161.80045887903842,127.67329653723618,76.67648114387735,42.780962801961266,17.95259067847367,-24.95647116258347,-73.89588372146719,-72.42856140442692,-21.79781575730103,-15.340601924031304,-74.65182950215114,-95.42938586338005,-46.00599189453101,-12.816222137842114,-22.588705343155496,-33.7971056697388,-42.99636367632932,-40.01749600957789,6.654081376464653,53.25212360260965,41.007682043489126,11.646439671278007,6.2869469969336365,-10.852484804624138,-34.7892465662544,-19.16349183951829,5.409546280150019,-9.617606861331033,-30.439986476623517,-16.84705330153043,7.214327391207981,14.69791172827133,11.520345918553026,-3.4373660191366735,-23.654284103232772,-7.060074424913347,34.7513633900402,24.27380483645941,-23.461106058611055,-38.276666225827924,-60.35025912489278,-110.2778097567575,-108.3723805716186,-89.64214561616764,-143.94637050436654,-189.27750750740648,-92.80098088007566,203.11296475239385,599.1037253360074,688.2684154944628,251.7512374139389,-199.4276849320067,-206.0934651854474,-74.98846855759749,-104.79022341811822,-117.2878038408549,-61.51330079834484,-68.3480249821403,-75.1008539949024,-30.823234480464144,-23.00401710326863,-38.094164565754895,-18.14924314714675,-6.344601293842379,-26.13957781690513,-34.33083900153362,-18.33580212794424,-7.0245548232261115,-18.99627702686901,-34.694354433295736,-23.567098925036667,1.2185417151442306,6.519798447810965,-1.8923940038317575,2.6392288100521952,31.292784361611346,74.29190162292171,107.49839317452467,126.60576772732163,143.21267211333932,134.84031806362253,82.29168924065534,19.271914321404516,-25.54603520579923,-52.381383378305465,-63.09664005224617,-75.3805398234901,-88.52191001722609,-69.56938172359696,-40.11451464122616,-39.83306041349306,-38.40728885708003,-27.004008351314255,-36.69230804335402,-32.07266730513412,6.7162423018147,17.996850136230567,3.703713575852273,15.27268169159947,16.18893778657521,-18.52912420099223,-22.683159692350035,10.07706025616558,14.533118247253356,-1.7439560185822582,0.4846829407973807,4.739939066899154,0.6019197416945783,-3.9507672208690465,-17.19214645308954,-17.67327054179526,13.532266508064744,30.028351615948235,12.537558759837772,-2.6818057657686616,-20.340968196538117,-50.069316800390396,-64.77858767673634,-76.1282941556716,-104.07682720560229,-123.24875720097585,-134.25808398469567,-162.02297173124037,-157.56829216553513,27.847067836378017,450.2619164075874,760.9958739955422,510.3674289164343,-50.18186033492812,-256.4231217976655,-117.83974220221722,-85.34749355695129,-139.77631523412947,-93.57806435193557,-69.3446907437762,-101.46181405809747,-62.336866772833964,-13.349676730214917,-26.856224965099557,-14.483589834975248,17.688431277626755,-6.959136484728841,-31.98774691432212,-11.93979843953752,-8.466429297090585,-25.664245512719624,-21.691328312482582,-19.633680903702153,-23.24402932599141,-2.2239322750890147,7.67155525751315,-5.4116083855821735,19.745216233888456,58.94856750088232,58.23713009860933,83.4723690330529,147.72105264263115,145.42302423496616,89.19601960405274,65.93135753314576,36.751325780150836,-33.53508881921131,-83.27776314237713,-98.54225549617038,-98.49608787521522,-64.41915274651654,-29.977652376586846,-45.05774937745956,-61.248269314336795,-37.428418472802605,-15.08797338248642,-7.159024545020689,-0.9872849288360008,-15.210691872205759,-23.7279768682645,11.774886438947721,34.8528605441633,5.750332485501161,-13.497575345188821,5.027161982961735,16.691055981541126,1.1337231230408076,-18.580304554492216,-7.708601813819918,22.317128221319674,10.601465560118005,-27.491750991119726,-18.917264928756165,12.194916758411619,11.87486496016074,0.7984603586694679,-5.900785043763765,-4.502050696964645,17.662145336777268,14.724278731058192,-33.98798348816122,-51.311503849688634,-24.68817221836374,-35.93221945841546,-85.16289790088493,-102.19531344889978,-97.63429816718917,-140.18235226351823,-210.7690194959805,-171.29658596486843,107.30588282633678,542.5619645697398,750.4744452078762,435.5320799052863,-70.43888874675031,-212.91061303758164,-81.20252839939627,-88.85601754622171,-173.73231204230603,-124.11814405095387,-60.10547094955815,-67.96921954735345,-47.70777313332147,-16.0870757747363,-37.61835172455269,-56.412864592337684,-36.21246551219296,-14.098123782688885,-5.636249176280437,-5.185064049152681,-8.39825652880981,-8.647804938435348,-12.811214940970519,-23.71070816537232,-22.049886902787865,-7.169247646906609,-2.75740951217181,-1.746612279083891,22.232023535956117,54.509071582255345,69.60036117283296,85.34303724692282,112.5149769275348,115.63152314850227,81.487800434745,45.13280122740855,18.116712046591744,-20.398887995019052,-58.93414182098398,-68.22430295903575,-61.22060299786186,-62.95829786482343,-61.09099823700762,-43.74233347987208,-30.5921936246979,-30.624399316783784,-28.13575144258394,-20.47070489412439,-14.497058338102738,-2.8620643520674047,11.15398425700028,9.128153791524813,-0.06366782609043398,2.401498802624914,4.813414389740513,3.3307433916662728,10.100912417528136,3.62734696611267,-21.95742144090068,-16.891553533581437,14.99837863446197,10.784265397166578,-9.46823006874706,8.992800997896765,23.255265446250874,-4.326598671916539,-18.720099085997283,-1.6647269973480503,2.3355438252962895,-3.8984613007890037,-0.5965756115335115,-6.805719961230604,-19.98677618286684,-17.113313968842707,-7.196837040367464,0.8264363997651198,12.845448371518811,11.709112928375399,-18.025800846163463,-50.08485117151129,-58.09830644538563,-60.99656675058364,-73.83301312457355,-72.2871573852531,-74.44487615501266,-135.3708171366112,-208.61076179348638,-172.41095032780063,59.6174133751276,472.81009245344154,758.6824126554694,517.4982613883235,-24.135499503656128,-234.35897668650028,-111.16438626639166,-88.06176401621042,-152.59545417354425,-117.69357498093873,-86.6011646995275,-104.89843916156434,-73.11866353883332,-25.281605542688272,-15.846529351810275,-9.81951853207962,-9.959239348424902,-25.03557142138025,-24.77755969409797,-14.324758783482228,-12.163340973674401,-13.95670713673083,-19.985007717278126,-23.64578340142957,-18.04292649729313,-13.057928419743371,-3.229689278256303,15.224738417381829,21.987572330773588,26.98080915611086,56.98960205473277,89.9091859846607,101.5330646819792,111.40293253956608,116.32865225945417,78.63581092416825,11.542045716720875,-29.217694231861344,-43.32178093036113,-66.54619156172924,-82.9894603146984,-70.64195053823256,-59.09329286510927,-54.44932174581031,-27.822853721011718,-0.15759327513320542,-5.122164200371966,-14.9684113573373,-2.0304350128290807,7.7963848071871364,-4.614151999483415,-12.476301584007494,2.7199754840422905,14.406803443527014,5.5615780866378,0.3080917215586956,6.39934945023715,0.6916359404994665,-18.7916374490823,-30.483973422624345,-19.815980791963685,6.065103993775946,17.655823170396026,5.94723871439974,-0.003013289428501764,4.738326463114335,-3.529550206652061,-15.99287829666494,-14.199700370869584,-14.083962010387003,-24.796232811111196,-22.52744077132136,1.2576897947313679,15.606329497766595,4.441092203966798,-0.5996824277299275,14.935880881340818,18.10969281819312,-2.3374174040473417,-25.522185434842136,-42.99722255443789,-51.17556644926831,-56.84915390357706,-75.60932171818074,-95.03037358944555,-116.57895098863241,-166.61962432551385,-199.17767875649764,-92.90729523045215,236.3011081144714,640.3492643196536,687.1536988901971,231.4762469247412,-184.10182295774732,-159.6110711286751,-45.194113311218985,-119.36648596023375,-154.6836681125836,-79.60702151596419,-63.768219099751235,-82.03845646065105,-54.40921987160172,-30.797954521060298,-24.418045812829078,-9.596556534560314,-7.102383841871713,-22.03681825896896,-24.803491410566618,-2.640455209254622,15.369689904636491,-3.4697476997461294,-26.62208263544675,-12.822397093301342,0.006522719543022859,-16.46450960002781,-20.436889031493557,1.8442878688011497,23.794789158881947,46.99118626459839,76.13129634428815,96.69960100062654,108.5379708366982,114.48272292829259,101.0569419498427,61.44492959251592,6.921618874860901,-38.34978564950167,-55.92633574025689,-61.75521346152591,-76.27893760786586,-82.94639454714076,-72.99227020416495,-64.31379963478308,-47.24278170546742,-12.54179093233175,3.580244407559217,-5.827123404040098,-0.17831471657517994,14.485484909030536,1.915205421193665,-19.38978592569977,-14.75244406509805,3.8787969523579093,9.725562381700163,-1.0541667049506422,-13.37734639918343,-9.326214724709486,5.853684540991985,5.734999771113527,-12.096959606192495,-22.723580194729742,-19.798187964182944,-13.034896773832834,-2.456067715428844,0.9205607801118845,-16.920642408783632,-29.868184041411073,-11.477056372662124,10.966461378292367,10.267218401907654,2.8509609036157357,2.239705554718956,-4.519581519251744,-27.725433401938744,-53.31590094254854,-58.06932510110363,-51.94885699212108,-63.564691359407036,-87.28128368247017,-112.60251952441784,-152.3581484214879,-180.38136584256907,-86.11553023417498,242.64944364078266,648.013178071356,660.9152352135962,172.62002488844044,-226.02163492234402,-171.00554913938277,-48.35564126608802,-118.65976184216673,-151.7160998934884,-82.66419850073885,-63.45015667887543,-71.58173196693609,-45.54015823161379,-22.559630113193037,-10.154683747684196,-6.7911523097644615,-20.824109789670032,-22.487401096925183,-14.72579514184889,-24.502628052226385,-23.568710238875095,-4.216353072255563,-10.632559415652066,-34.63563707366797,-32.827209910327156,-12.857185522738796,5.811919393106942,31.86523035316215,58.02999492765625,69.26447514225484,83.27250218668914,108.34455035961494,119.94590649417647,116.92203098101433,110.54687535474206,76.76024983186439,11.331795005514804,-40.48820670802805,-63.816223865083636,-84.00173090844096,-95.83507200406672,-79.10140769582112,-54.57269164898307,-48.34462204790134,-44.78368228949334,-34.93465348305655,-37.59536812178295,-31.70820398427851,8.578893939576837,29.668894476207605,2.3861368419065982,-8.445095488694292,9.342872550270497,-0.031437975447826005,-22.725616819216025,-16.84702909618064,0.5364666843591159,4.281091220625463,-5.500829537506528,-11.297341142456741,3.147163337863052,7.904586445745153,-19.58284090686324,-29.19855172687126,-1.2996306707555405,8.442251671708163,-8.408868162944918,-7.006916795893467,10.20714410791464,14.039072695569693,5.8948211281305785,-4.923817026300776,-17.383412106307617,-30.012246494162863,-50.50190425630281,-78.6712100401478,-88.75979040677117,-85.61400682891623,-120.21934404801434,-192.07892192427718,-194.7128417586565,23.763336678087143,455.5111425039809,721.9069316403792,449.98778793230156,-58.6925070793841,-220.36700038764474,-100.01880907934336,-87.20027388938485,-130.6957754566194,-80.79256987066694,-58.28434765970587,-80.29472309218812,-45.4096910645292,-12.076469922917987,-19.483225779491093,-6.40151585785317,-5.478412070623554,-38.30889787940894,-28.755025460775165,0.952922638027033,-19.87960050187543,-35.59364036695162,-9.201881906559834,-5.913883230480128,-22.859650315956635,-5.392870284791822,18.35831449753441,15.881982435763414,19.839800109131943,42.11380572074671,65.77110104060459,99.04541538018435,139.67566346063163,150.85692985052904,116.32622689777708,63.74331307128146,18.62247142700289,-23.268043131810355,-62.434466098505865,-81.45875753622921,-81.07780194864519,-76.16760630919354,-66.53964603431379,-55.00341694266076,-47.28200223569525,-33.958899985725864,-22.030137865527166,-25.65337376462137,-22.995853574753554,-5.65119759408276,-0.34771494286001214,-0.3875555427118478,7.032055701869043,-3.8048321929421434,-20.68319612879203,-5.662203102177044,14.458859307695345,13.293434851508513,14.894805436647712,11.893756261016174,-8.543920763721047,-9.41651778818941,6.140063052981419,-6.277794609495633,-25.264273025290528,-16.202770729936738,-7.433510711088573,-7.037489889407015,12.75819133170556,26.201761256505126,3.762248504495828,-12.896751056727474,-7.570408145794607,-23.625358501498624,-54.103339635190636,-66.63672983596335,-81.00050132236686,-100.83808168488137,-109.58391598983872,-138.32712358800313,-176.71628042563526,-86.02940398430374,252.32778793596998,649.8079003854058,647.2830020752552,165.92787845888583,-220.3730732030609,-168.64943937254372,-46.420899519759416,-102.72485946442967,-128.1213931771925,-72.1111026338736,-68.49507981726778,-71.23105590899118,-33.66974198706588,-24.66775961187733,-34.245384763185854,-22.982286584211266,-15.834965011335813,-11.924067526373745,-2.2631608522328364,-12.667480322463216,-28.41626465699226,-20.946772918340262,-17.918913728105974,-28.018187873174163,-16.741667633967776,3.6289838112663686,7.629121170132638,26.740115042918568,66.71434221788756,82.53156319350947,83.63325088302466,107.31360790427631,129.2022677228572,125.34545520059149,107.74072855860558,57.9856886988244,-26.101134201837354,-76.97084920786493,-72.7929225818744,-71.61045696796408,-83.64949790395757,-73.50397649907069,-55.05542221718254,-52.55385481623715,-49.92715981348823,-37.25559142710501,-25.41316911275308,-18.34205224003616,-13.934175857694115,-10.143051265154142,-5.458578633415758,0.8369565022699863,8.58911271068462,8.937955113263095,-0.7038456934165875,-2.26859238462006,7.797969794995391,11.425601904332963,7.079115412184616,1.0913683753301022,-5.24599554349304,-3.0933612580983105,-3.3226613360172106,-22.702276281936115,-26.24480721003104,4.732314945540743,11.55377628304319,-17.14557193086688,-12.119320638772795,21.32603285475177,19.15817728123052,3.815365431666528,17.748096553029256,20.99681218273084,-12.820658915911494,-40.629791181313536,-39.434167835803294,-40.48646388178615,-65.45652560718055,-83.53366153613904,-78.5958266902004,-110.61616468912143,-190.08769206067504,-202.06360915296074,-46.31945914682308,298.25376255173006,679.5837796770942,683.1550336256873,188.0844785124378,-226.91389911185323,-179.43849224656825,-63.73202973914981,-134.57712902630766,-134.79842658264914,-43.26554566502563,-60.5097249681334,-96.6807503171621,-39.03957531704229,-2.304464622808137,-25.566477835823317,-29.245035517195063,-14.834672896225488,-10.677096089087307,-3.473270896042364,0.6945892518097825,-7.444696495929885,-13.181561626387097,-16.74092250117353,-22.29570661251325,-17.46651607592868,-8.03123147595807,-4.06938753001838,11.951877287938593,39.02109089387689,55.74940494695768,76.835018307869,109.96554172320933,120.76037007303779,106.12682203842547,85.31468723542957,40.619900393941684,-21.868286841910717,-56.21025315577971,-64.27341865030621,-74.04495786728924,-75.86031800290885,-65.65888470470178,-58.05743241283266,-44.789998619964486,-24.468368374505772,-19.34155404587271,-23.76125561341823,-15.552162298146305,-1.5890558260102594,7.100518133396605,8.637367107953514,-5.825358870049385,-21.426413301451507,-9.805498719576963,11.253966279699085,14.575941034728704,11.62239971782095,6.266209045294332,-4.9846081136224605,-3.4397725278294686,3.456030408249471,-7.768751232831473,-15.924103608827535,-6.36202381898894,-3.2094790574075382,-6.172911523830754,-4.526335690281135,-10.419699334500791,-12.842522926381779,1.3778914247457,3.5961976576050727,-9.920185945246013,-6.95466871379987,1.3712086341542573,-6.958773339322917,-8.887704779396277,-0.8839021404383534,-9.041659112340295,-11.811345504915561,19.129119845771875,42.25697721832712,24.44609796635491,1.5474178773682983,-11.890256841094617,-37.425679731905674,-56.14291174735926,-60.168078439107965,-81.5997975368947,-99.09879871088452,-101.5846386097778,-158.25777340482492,-236.55294326451258,-169.2077201005222,132.99401325195686,566.5674019815058,782.6844210341973,467.5514747702314,-68.70608387906377,-231.36523822166006,-98.35764573984771,-100.80392118011007,-172.02140999903241,-115.9755985314863,-67.89205479016583,-88.72023452628528,-70.11202564950163,-35.80357458802908,-34.26318009931556,-25.39098876300516,-14.661509124087244,-19.82808679603285,-13.099098950330493,-1.7606880207855582,-6.30297462905637,-9.753455904735867,-8.78108218261983,-14.608181042739417,-18.16305160448371,-14.482710758676351,-6.7309455256438495,9.28728437196567,28.194925524563466,42.376055622614516,57.78845383127909,73.97961699697005,87.40497705978567,101.62584980630716,101.40945463990215,69.32814346156525,24.87687905482977,-12.374729917996458,-49.93172409293778,-78.30010432629226,-77.22775241021301,-64.41872345326222,-62.34134881737043,-56.26634918614788,-41.90622576325929,-37.47203210355754,-24.508030990264835,9.930517208533171,10.62995454269534,-29.42358190335528,-23.317626843836322,25.60606380065527,24.245218374689596,-6.268697943000456,1.13528226339837,6.107060383470854,-13.695046722457311,-9.564311406942394,5.729006633667931,1.5781617778840342,5.698291706518045,14.317849868998032,1.5601235977000663,-8.88908876044771,-8.003480890510087,-9.91074356063271,0.5424488449036637,7.217101144040578,-22.13829985316309,-37.631495700946616,-5.614312994161438,3.274597310380045,-26.866598984399438,-18.603473293920075,18.129207001302568,9.02889669322963,-18.547875623961147,-2.357467357156777,27.59934850164637,24.56285218929073,5.99708391246205,-0.7224064278596511,-4.280901129206765,-20.156416378797594,-37.348149607376584,-45.467641924300395,-65.63504583470005,-97.62620818168149,-111.98932702757926,-134.72695765621313,-196.11850420995822,-213.35146480103793,-48.03579654395344,345.4392563482071,740.254113980693,693.9303092159385,176.2242000198446,-211.87693478737722,-163.89692749843772,-71.92092855797276,-144.2454670002253,-153.82656780329148,-90.75116183701748,-95.07778865720844,-83.52054439811228,-21.668148994613407,-19.137456389787495,-42.97123490911385,-17.933118599864024,1.574831001909458,-4.512203624285272,3.930861126708651,0.6648245472102357,-28.215658544396995,-29.797626978657696,-6.766010853028257,-14.35652547453168,-36.8784342076525,-22.554938160163506,9.249575524537024,19.681724995451333,32.95893662447041,66.72637949277895,82.12587620079452,76.52436438485162,96.70266802498355,128.7374254324758,114.41576481210998,58.98029055887558,6.23221371888245,-36.05352508519311,-73.94939500910709,-95.7016720462367,-90.98079400106747,-64.86207106870977,-37.89164461433995,-33.403055995714205,-42.51739255200647,-32.03500665645187,-8.882914856316983,-9.24508324374063,-16.25057035147657,3.8183077381534574,14.77098039671945,-10.536533135942008,-21.844861931599947,-6.460023864254328,-9.260289301738002,-15.51162109817106,0.36509112453163794,-3.5590004496115775,-28.428913371822393,-17.834521702829193,13.17242216704064,12.484161966193604,-5.184049955174988,-9.703849580175687,-10.321638253959174,-15.511993566540387,-12.605619032699252,5.459882593590404,16.480550750898466,-0.038946782222680554,-15.74965496633757,-5.3187266383569725,3.7194344134953186,3.5580453592125263,18.43886690313815,26.648997977901097,-1.1787832287206115,-35.73718290771935,-46.3305687880401,-46.37709711388477,-53.80901963388979,-64.15876219851899,-76.39754818142168,-113.0931710929844,-178.7161997750622,-207.18262957066725,-60.26494751857493,337.16093456573645,711.0093157527436,585.2210510008374,45.892481645540336,-251.24148419845858,-136.36418209620808,-54.08398575374731,-120.81683942679115,-113.72697108427727,-68.13285731927598,-78.51665551342826,-60.10668638172653,-18.785157801933288,-23.20885652133278,-27.03967999254889,-11.02907103496619,-14.573308983567632,-18.679693932933013,-9.855491214297796,-14.74244405481872,-28.317442951914217,-37.742988881477146,-44.33913599715248,-34.60606366634853,-11.651948932532141,2.3835427157746096,13.282516304221794,30.883121870334953,47.21198830053008,68.9252885578197,102.81327719088321,129.92319692305404,133.6900968717271,116.44392748487189,87.1735268011324,48.524485127003175,-4.518486298567675,-59.218463547384744,-91.10891342400551,-102.55382864703532,-101.25487552505153,-82.44332274656458,-61.35167911431381,-48.11193708663351,-30.815108911648377,-24.374721443738917,-36.2777741151905,-30.853662646291657,-11.322101685531873,-10.760113671169258,-10.206263627123672,2.29715539660258,1.6558910961557984,1.5073379998824183,12.726294285780522,4.008342139472438,-6.263345026521634,14.811123478931583,19.17171703224216,-11.480337287438452,-13.830916887944433,5.401236575440979,-10.975209082703817,-28.491133626005904,-9.30178950665151,-0.74122900110617,-12.565747745950127,-4.198584208029594,9.394888312145662,9.191448776822224,17.539801527906693,23.56713761068143,4.001812410587462,-24.06016350276068,-45.00403341224896,-53.32980227679657,-47.74316976874191,-52.00802941820637,-76.6183231717879,-110.01053576668482,-160.32057618187,-206.84386962189538,-126.89707139272218,209.03108819629767,632.8304696401422,656.2451707048224,173.12661623372637,-217.5314483969162,-162.88727717756677,-49.29708354570592,-109.63720600452717,-122.1710632856462,-68.21848703331199,-79.14281987070041,-72.62941318120338,-20.55588190510346,-20.085266633664087,-31.57283576076383,-4.779077103636283,-0.4960323073575026,-14.635192597996973,-5.7846005952113355,-10.181974520325547,-35.79434000349444,-37.99864531954782,-24.08776008268798,-20.128091787637686,-15.535447585188233,-5.6265368854633335,6.2251243499234326,25.004360695034965,38.50181506171886,48.34442779210961,93.62017420779775,161.23956175734833,173.93281750393345,124.67326030066732,78.01187584734026,37.430595925859556,-22.986172638450295,-63.56468718384485,-63.66017294401882,-72.04106490784777,-93.07639317348894,-85.17726346540557,-60.72476239857338,-47.88368826119495,-39.01162019871754,-35.50938273279542,-37.343673687054235,-25.950938007396932,-15.839932370176914,-23.94144626644069,-17.793137447824186,7.448447974860159,7.8466454716615495,-7.876910903426914,4.1180543908407445,25.000867556828595,18.385407553606655,2.6814621991646215,-1.2604366366900122,-2.779346364991408,0.9458128778617794,13.96266773868332,14.627036021217647,-5.034065227200163,-19.920644112585023,-8.293793832621922,18.292707483382998,21.348439922205845,-6.318058894435621,-15.480956256604385,9.462886784408536,15.337150772023389,-14.79539218435279,-36.4273093367401,-38.4940300313843,-53.29132470773646,-80.16076028768788,-89.06487946196347,-94.19468730447096,-141.20902766160395,-207.05043694365617,-153.82670039966234,164.61640571260517,612.2834868107612,705.1146312497981,253.0497781216862,-203.6862774418845,-206.2635308691827,-53.836257969503656,-81.55216726057887,-125.01553953794271,-74.37930410026375,-64.7903035348827,-81.91238337182294,-36.83846306900995,5.303142497441481,-5.201962097670126,-15.142775723322123,-10.535657112454532,-19.78945784022941,-31.572640576572677,-25.10882723639093,-16.043686952671695,-23.034413170604104,-34.025911233519494,-30.370146694718624,-17.486906638266575,-14.2248245292537,-17.980975532360716,-2.6979229843980104,34.92022970464468,71.15140380628998,104.49066382473895,138.55294800548927,147.1071596542949,124.6757397076528,97.32971393075834,62.71407651091366,8.175315631139934,-47.338275191966645,-83.70249475037593,-96.742818965237,-87.78850290814088,-69.20848353275596,-55.56198104826852,-51.96638474803048,-52.447657552000905,-40.44223428937885,-18.597035702354756,-12.171343590464268,-18.60318904303795,-15.648632581301797,-6.989108066523588,-2.629713265844561,1.6213293413932242,8.455567051530906,17.615483762833712,21.4198198524281,9.627310016961793,-4.3433584831890215,-3.9739481439646784,0.41588636387608435,0.6727452882421989,-1.2095181279489076,-14.05955288732352,-27.52279905261367,-14.114762931416887,6.073863928506356,-0.8494863125594829,-7.583143008555351,10.866687637530141,25.749921327103614,24.205539170421304,15.591473405221937,-2.729238617134996,-17.260065866254305,-22.540694799090506,-37.97621297530462,-51.20955030159264,-52.90806795116764,-65.79229040683973,-81.20865844617924,-104.87059677175137,-172.17019249108193,-216.7368704626437,-90.1915223866414,272.8113416719285,680.2359853302188,690.3795078774074,200.5427025102752,-213.0625827372799,-179.94332142275414,-74.05784882006228,-141.8609510196267,-154.1226962055945,-79.08380143485752,-72.48321604807926,-75.51479089312338,-35.07690808227322,-24.2827645713199,-28.323231789452187,-10.515283492156371,-3.4604152870280327,-5.443450263643779,-4.879390240217891,-20.784825204603294,-34.0046942830018,-23.249754883533782,-18.11301454247884,-27.14851891801583,-20.08360914719865,2.4780120613248195,14.558542992843387,19.082208938467808,37.802531397427956,69.67565762834843,95.161062531201,110.11551041248501,125.18374532647245,131.03883202179077,102.16120022387844,46.06594305139396,-3.606917537675971,-45.94990365493525,-90.51135671405663,-105.49271550447108,-78.73496668932574,-60.09057812387924,-68.27035886679306,-61.09446112303415,-30.727843499992815,-13.972506097227729,-16.81565671564971,-16.603760522241124,-7.890905443453484,1.1224670832439898,6.021134471612932,3.9015699369427876,-1.9074329272727475,3.1300653746768363,18.873919497077484,18.488987092534146,-3.109591553642142,-13.778109857565935,-7.045536467235909,-5.593616542111852,-3.9252449493546155,6.238121635743132,5.683980249473578,0.39572565243878266,9.872981171798177,9.883994966601913,-10.686975794224722,-13.09558984527473,4.219182016269454,2.612857372313889,-7.328827523407315,4.2417161029804005,18.122799041699047,13.680879817744218,2.852826829099171,-12.33442926289972,-31.613697389568284,-29.8869379283738,-0.3130548727441056,30.186422591673633,44.98211272094225,41.08126303824876,16.851630071525257,-15.524452572290263,-43.728393631218964,-61.038880259929456,-58.46364457882811,-53.5858335442257,-67.9326318592833,-86.90341167303228,-120.13358068023072,-189.73222733163658,-236.2637217089281,-143.56249414211226,199.20031385871593,692.3172583671017,831.2460435768936,339.45637781976757,-188.48046118086395,-203.37420406394193,-66.90729137944375,-138.35879015361814,-177.51349916545524,-98.72434347582103,-84.44073038351809,-87.29362326859808,-36.65802360953292,-20.82480500362015,-31.82881368375408,-17.415763316608878,-11.285664512812124,-18.622845019265583,-17.346957963625666,-12.648000670111754,-4.793358438214485,-6.329895917350841,-23.529433202657742,-28.463901052665886,-24.6042000304026,-28.636827749901933,-13.21973437531867,23.706653352445848,45.84342239930217,55.95951630216584,73.29668351244169,92.45957903130412,109.8250240108608,120.11114670580004,108.18112477444635,71.21626789803054,17.722006868451896,-33.04174981655569,-58.85182157680536,-69.28429271763606,-80.95429633697313,-78.16242678118888,-60.07817295012866,-52.57015860347442,-49.68804622708548,-34.870830037010464,-22.568077879513794,-17.733331647410328,-6.808135675160768,5.862113158231791,10.495963886039398,6.941156023170637,-0.021325444446984143,4.9132402446212105,20.439115711278696,20.171394402202793,8.48607620136184,7.082295417162645,-0.12271022148745381,-17.831391700622984,-17.234704137445515,-5.408853000785676,-1.9167153700787622,7.00733866782081,8.996931527400584,-18.03190914424434,-34.80458623246184,-16.095577144464592,-1.005605098688612,-1.3332672963776595,3.3434171264025796,0.8945944012034932,-16.821431106534543,-23.532264659941763,-2.642687156375149,27.083608967133635,25.691364620976092,-12.177544559148943,-34.05700841120303,-19.606533559486216,-7.875649012609436,-3.5036997323665133,10.338971773745282,11.545279597492515,0.08729057754305725,3.44014329565342,4.803375434984152,-9.37037935906482,-11.407293124728515,-5.335612958976798,-12.58746375198983,-9.334982406191479,19.12923534413998,38.85763044953336,28.9609892862909,8.41249932297228,-7.845310630449241,-29.526443229014436,-56.74238707133684,-73.61996843240311,-86.81149965219814,-99.95409692116216,-97.14202360720085,-115.10404311542229,-191.04386195639816,-233.2138753865761,-75.57691039205181,355.8364249967296,815.0949761738848,779.9473918565693,199.8977475941463,-236.38282483187922,-188.57212117029445,-97.43235815626376,-164.4006019889125,-144.1141208069027,-69.0082695984917,-91.07190408434292,-96.54470342665138,-38.23488316174598,-24.187629281508727,-38.05015830195532,-21.1114700977369,-10.324994899924702,-19.654677074122247,-13.58858539661019,-4.184443663828109,-20.720264137803525,-31.165804441996656,-12.395489724391528,-9.272802790675325,-24.40022510216816,-12.069141118820692,0.7857234076204267,-8.076123415547473,16.431706258514197,66.44929563481983,84.48270089492962,90.18367213596707,98.99622961739021,88.07463896220679,85.91361083711595,92.63230318101975,46.80205957884489,-23.772662361966333,-51.92649104868735,-70.23927917249462,-93.8380396029883,-73.86752910477236,-47.34118571197233,-65.06275567476959,-63.01216639285861,-18.726618329768822,-3.9405457999542968,-13.452644311975579,-3.064456654435693,0.6768931160126304,-6.674406348463293,3.613336883217098,9.390866368549093,1.2230795866663984,9.345140472052204,21.63871589096428,10.863178036301965,-5.071274618243583,-4.021630677250069,-0.7263214849152426,-19.215580611565727,-36.12051183056951,-8.06809258202133,27.82313096840856,9.503880440773358,-19.97665914689909,-6.0713149580141925,6.969605119571088,-7.804271250755335,-9.36273633586476,1.6895495708206587,-5.249563620397838,-12.249663098971302,-1.554568974147787,3.60387813100348,-7.414914648179378,-17.61910661841666,-14.317057520836757,1.4969344428693185,12.278834207097896,3.947037219592106,-4.079787617012844,4.4714258302067265,9.426725953082599,-0.7705149518698509,-14.033742174543956,-23.43306767563041,-13.759291123930147,25.608656214566246,54.76128585318929,35.52621687270512,2.596661469213288,-0.9707673675293518,5.221742886498911,-5.4207983280433645,-24.430750808112773,-44.81750243558901,-58.97490199167906,-59.923235310272254,-80.69298834126712,-128.7207757869184,-144.52221618793797,-148.14202506932082,-217.0822707049563,-211.5655035154835,129.3045912664984,667.3769227463908,837.9392409018924,411.6677845556037,-106.74584612235581,-222.65124228153698,-114.61153869504363,-114.48457985149119,-152.5366879837062,-113.3616992970297,-90.74457240168982,-101.30168045503987,-66.17240759648931,-19.865393433509283,-22.821353874489514,-39.89479947037627,-29.63689395910353,-6.526015439043812,3.6173529232178367,-2.539469242179724,-12.556554873924313,-16.41901229893115,-14.837142222147198,-16.28085748506024,-24.561958261187534,-30.07998325666782,-25.74937196212771,-11.85250816426899,20.03489337389069,63.39857287791714,85.14530424457955,86.53067687897197,100.9747864846622,114.7874410540752,98.27158747843436,72.02640089588095,45.61929612499867,-4.289639877450414,-56.70905917910664,-73.70633945572794,-66.85866362728873,-56.42218669175901,-49.520324652533965,-52.07676634035495,-42.5255215314507,-11.425840990156184,0.992303979115416,-12.744275149834369,-17.37645394058204,-12.662415604094988,-6.2881301828764915,3.9848207254949397,-4.894806026366172,-22.383730401264305,-7.920922244724007,11.674883845906816,7.012260884306619,10.744447377553708,15.325659571155896,-5.600677426349822,-12.349309462285213,0.8409354057410479,-9.365057959524908,-17.86676493635308,-0.8644885541151002,-1.4269894580038223,-10.313988022745257,10.171331046249481,17.48150035892478,-11.764501693015657,-25.899563978311164,-16.965980745453432,-17.981857671984418,-20.75324127654319,-11.18815708631724,-1.6648862040133494,-2.75128031034539,-11.795287381988635,-11.178311383670941,4.848124912089556,10.682766166575465,2.283765794949823,1.005849634965248,-2.840015063192416,-15.715685149486962,-12.636592267665918,0.8918079813146047,0.030608622602979807,-5.785168671427709,-8.047574102245063,-14.892702475092705,-14.759135302534334,5.059231565572799,28.37688388414378,28.78188480141703,3.9330579622224056,-14.076503184371955,-10.08578180017307,-14.782609567074418,-38.49402173834237,-61.812445879472136,-85.66365399860803,-101.13216908535222,-105.02657008076284,-147.0606850506334,-220.0235970806187,-193.62278287193521,68.87859304680649,530.692110389982,815.8087151281251,535.400561825054,-19.7086040061529,-213.84139459609548,-93.26668650284196,-103.0487034868186,-186.11746661469329,-121.38076693960362,-52.917146890619776,-87.54136676642335,-97.84197085064413,-52.975822561563845,-25.152378631705464,-19.064238468845794,-15.650687764755512,-10.569616011167728,-2.8961213296084747,-5.146367237635767,-10.22174169057664,-0.7237581368906776,0.40260260769324496,-20.178623207439404,-30.084527392936554,-23.32397031004976,-18.636844560925788,-1.4546642298295112,28.122052093583285,38.58816772435682,44.58638455504961,76.837855434138,108.00981435742928,111.93597301870905,108.32957736401093,100.15988259338717,63.71474189993157,8.317914174094602,-29.76585389321498,-48.83551100957082,-71.81627508334088,-84.64157422822333,-65.19457885321083,-41.0927538951955,-37.76083738085875,-40.31429935430321,-40.92925471242036,-37.14306478980628,-20.830621196658306,-10.201929497456977,-12.241464960940133,0.4241556966645419,16.65596861491617,3.955534678705483,-13.453979441002586,-7.0458636610985685,3.758917301588056,6.294588434921719,3.607012484778629,-9.69936818357593,-16.61699933087741,0.09809249183542157,9.366187639602522,-4.596508560822363,-9.786759175417945,-7.6540890324919495,-17.662387133169247,-13.298006411736843,8.662315405256859,11.590650399773935,5.875014314106842,9.547107359216529,2.1049746326486334,-4.282886280262626,5.716613094387827,-3.836463788987011,-29.09621798322488,-25.96748733640635,-10.835482270123059,-12.284588305963677,-11.971053986047606,-3.061207467619397,2.1900089303200883,1.2266411642317117,-10.111728380429824,-21.79062777906382,-13.556901891126637,3.710808419258159,13.613640648656052,24.93977282356076,33.92738644941354,21.958790999672974,-4.245127825727877,-24.89789704847812,-36.16167022902009,-44.91383628188531,-62.21646976556784,-84.41511726389733,-83.79015502041587,-74.39391602142982,-121.165338457768,-203.27102376692483,-163.5707023407694,134.65616003303037,574.5274845366738,734.5738662926568,364.9235126842093,-130.20856132801083,-239.220263049207,-110.69979306698212,-104.14014997858015,-145.71607211511116,-99.79648649572503,-68.58233097315217,-75.3684510414133,-52.18658725106606,-35.99015938287668,-40.12090672843213,-15.918970804422724,1.836523831610812,-20.856479094792036,-24.306656267672537,1.5500764769873214,-4.4071411958518745,-28.71216618798675,-23.097845763963257,-11.632066883480295,-17.785388408110933,-18.932240534204624,-11.749681506539867,-0.9143404337849281,21.93817628126493,43.02420062489982,58.01905566845925,88.77757716140148,122.23240296960141,129.52721905735126,118.79621494604419,98.81067729470473,61.09182712984601,7.505934403058637,-50.863115088892314,-92.05274024668502,-98.61194181200548,-90.41928558455695,-84.6333717102143,-67.73954292152419,-47.28760627603172,-39.81272027863981,-31.090306645554435,-22.083604504563148,-26.306454727645196,-21.290556251193166,-1.6098853429029134,-0.9545403730491877,-13.21056572247478,-6.099130777289716,6.341057120672486,-1.1943461988288817,-12.44010046021167,-2.748369264614823,16.940866510325698,17.042206028775908,0.802460979013258,0.3937944282653776,12.541420913621664,4.57176926138346,-13.417152555354964,-9.49974907059104,0.6291065361645725,-6.890266104187216,-12.209556646919157,-7.502016689473898,-14.906495013471261,-21.617624407865943,-5.577806006005369,5.558632136385265,-2.681843596435094,-0.42961118876947246,9.241965641086459,3.8314508291550613,5.293142367081731,20.54117815637595,6.774080985013985,-36.97865578519104,-60.36493210715561,-60.74013911970612,-74.56699361394635,-94.95535861649539,-103.02854020800805,-124.30313742739096,-171.04287979437072,-170.72657110977502,20.051829910746733,429.03859635223694,714.4866349684227,473.1145416662409,-49.30751981878005,-234.58414241109801,-88.35482478954629,-53.792030295400195,-132.28200627105906,-103.98501949657509,-55.18196106601783,-71.70114581208705,-58.38158292032625,-26.577374953844476,-39.48968638017186,-43.615777833429235,-14.997655283929362,-3.190644738623373,-9.015645415922442,-9.6692843124633,-14.897442394024845,-27.258137070489695,-31.34423476276394,-26.942023332086546,-28.75157227924289,-32.420267224442895,-14.443146223016019,19.260684666807798,40.88715860016232,57.70010839383691,84.28553694493823,102.13705409258695,108.69044365478669,121.37927473885794,125.03891800514828,98.7644056032025,49.368682327239,-7.96188736762042,-46.62773416943884,-54.839446438982705,-68.98266720992359,-98.26428912996968,-96.91361700609812,-65.20821637133935,-46.52510646038179,-41.75891572702753,-36.11376892099972,-32.29143264840314,-22.466245571410457,-8.054678915273556,-5.897413838297496,-5.957165792926126,4.925135372848651,9.186438179163765,-2.1757017265707823,-13.472083746044444,-11.69132098719523,2.646378027670476,10.80577611572544,-1.0018306794257352,-9.579052662395146,1.3315567582731749,6.530258016515394,-3.8895401962484204,-10.206282497624514,-10.941016731922351,-13.010819289504077,-10.250238958996384,-3.368285251484078,0.9080560702927691,1.5163360904057477,-0.8048013380509538,0.27912021617991556,11.501543988604482,24.58927886423774,22.50156963823922,2.7745083695467336,-15.887305562101808,-24.358572055826315,-37.50354751107826,-59.689306936773335,-77.87297603047496,-83.76129397693765,-80.22051023027352,-97.26616561925451,-157.94148182081662,-192.6315261007742,-57.24259657137735,306.2680040402123,662.1671827684013,589.1413027016843,99.39468814033455,-229.09144676115403,-146.92598344890567,-46.62176369182485,-114.56398614821288,-126.04187050859632,-62.43010517159347,-62.568581540924164,-70.12350451347983,-32.116561025896004,-15.025755022044667,-16.54673803727151,-3.626894757669419,-7.9248765913115395,-30.26715365028415,-29.351882402357408,-12.038823966664706,-8.956390505265444,-14.962802510874493,-15.692050985611694,-15.545561816304279,-19.18495127816074,-21.061206828108382,-11.022846637948305,14.812602381822074,43.30806761340634,64.71911513923013,90.28172531543038,121.91405506748211,140.16415913876216,134.23578047731428,107.53694664126175,65.48987206269447,14.392897435214717,-39.60313009616619,-79.1872047562913,-83.47154308913673,-72.22932298005307,-79.89847048234466,-82.52685108458427,-51.00908489932845,-28.936053114707992,-43.514849336800005,-42.30007062415953,-6.2860572407139355,14.162972421038049,6.066051605956019,-1.2466894501858654,-3.223016228445182,-0.9940878434868807,9.63770961008495,11.863684816274578,1.647037822024238,-0.691355174781016,0.05306378533222755,-9.938543928695454,-14.853253085981354,-4.666312894942111,4.075960267746726,-1.7268773449703083,-15.107179576413241,-15.426165207191568,-0.519781851161925,1.8607243469250374,-13.271915999089696,-19.667780670377194,-13.623937027012992,-6.961616826723917,0.2518263639235947,4.905023885596178,7.401242103873916,14.489073547785784,15.060040743248365,0.933327966405372,-7.430379898854555,-1.607744971682103,-10.199199545200681,-40.50324830316401,-55.407454752915,-55.404826048157275,-76.91261974005596,-96.942995850549,-102.1232830625614,-153.15906037446757,-216.3979616895396,-129.8446018115793,189.3316089771755,598.4308598061347,722.0714075431524,338.14741631203236,-145.27435065351307,-219.349870731929,-77.98405940375396,-92.86810721161554,-135.55883125233163,-77.7669659974557,-68.27550343975065,-92.83012381021157,-48.504837862950204,-17.676774478480453,-34.40089471841016,-17.488210794791506,10.903538888432417,-2.046271835268758,-17.462636946431427,-13.714436066896498,-18.344615242434493,-25.46559782590044,-14.71698062938259,-3.6883849540074842,-12.494973981544886,-22.694855748413197,-10.886513788079974,14.3318734942923,37.21524726922596,59.193114700794325,81.30550891962005,99.41462028705729,119.12721467382192,139.52162759300614,132.41682928018082,81.20224255184684,20.62837771439612,-17.099746171709207,-53.11226834653035,-94.8656196417767,-99.68125610282969,-65.04783062369503,-45.674337186479185,-53.69666359483789,-55.955032971429354,-47.071562494538234,-33.46606769744056,-9.636388378348023,4.3753157479645814,-10.963283362103255,-21.823001789841847,-1.6023118988562866,16.85382491697498,12.464375219234356,4.29805142663418,-4.162417494136703,-11.087042156417082,2.904614300383906,19.859816594966553,7.952854755143601,-8.909899272181818,-3.494619574290282,5.3378692696269425,6.69672247255333,8.84824023131322,6.957030518347143,-0.5201980892730411,-5.048305586790929,-6.027991279771369,-7.526231248528672,-10.752521639070089,-6.8945268629212295,7.793315434251349,2.3278294687615126,-33.7872288029628,-41.4908422577041,-1.0981577881351612,19.14194507005797,2.691621467419079,-0.6829204972989764,-3.2146430691227916,-29.546020854402002,-30.04390259924797,4.244967862482424,7.874473523922936,-12.025079522268953,0.9963679884362877,17.320453352179115,-2.2516624508438454,-13.058155660192753,4.172337737997492,5.174045148200507,-6.401818265863804,4.595385386095317,12.452272617717316,-11.981030293364489,-29.566567900148755,-10.00950330191177,7.682775468216709,-5.784827346582135,-15.23410176407403,6.027355702301302,29.34694034155542,33.41501714348608,34.48087283024326,30.67933333466806,-6.0947279151344365,-60.308365675297736,-76.11295766856149,-60.2016726337178,-71.93584059715522,-97.97577280697205,-96.86107593838497,-117.23899063302707,-192.55324106969266,-226.98473449708246,-63.83960083486686,370.7936387024051,808.1589584335157,724.6763461063013,135.69913837222123,-259.09812188543793,-180.0896451706148,-84.66899755496931,-168.8578506456366,-168.73448959045956,-67.85304486922527,-52.756777003403336,-79.99842970391315,-53.938940133579266,-31.888663044713933,-35.2377282072774,-12.544650099844315,9.38674044314962,-8.52209438623727,-19.390088768566436,-5.500328005342247,-9.903022091632206,-22.629143374202503,-19.41533307813367,-25.357900495209055,-33.82139926606907,-16.057818819590533,6.4309934076364,18.051948378756094,30.759145869269748,38.02909238094363,47.05094545842617,75.16037676012809,100.5005041332965,113.84471699654182,133.37673649719954,123.68127433941083,48.736414238656295,-26.071796718054735,-44.610129993097914,-60.93156127863121,-97.92556993837482,-97.12852702070066,-73.23151992718245,-76.33090003525281,-57.71744267375331,4.840588858385587,33.195358188007724,9.986324082746835,-12.805361067542533,-19.347600911220322,-5.714883164026066,14.295369237210501,4.221904051862037,-12.708693286130714,-7.507504402302473,-12.330652403471095,-18.440166670047685,1.7158217526078445,3.05459081709348,-19.320230066830767,-8.599338398702127,14.995316348630785,10.758400141781557,2.1379512662217923,-4.699754711660079,-15.531039516850297,-14.982504952172519,-20.7422620025136,-26.48202729143435,9.924613076185734,34.821507338756206,-6.943242276138562,-34.57869325448725,-11.5639587990456,-8.37403825922269,-20.894271546335926,-11.419984104156441,-9.83544232922361,-18.63785944501513,-13.857088918309842,-7.0600921120442335,8.254333125382553,28.87757244755747,12.294086576063869,-17.73935634558642,-9.65606023709982,1.6920994229294717,-9.708100888165106,-9.423477207188167,-2.5859026528630675,-1.4937216080801718,13.931266267408786,11.502869097599433,-30.977365704642278,-40.560009453495354,1.957851242227595,19.882091200839128,13.04757075375898,33.95943142504019,48.786866902504066,15.001448686186752,-27.852088085851552,-40.6340808427486,-35.00776848347498,-36.31163395405045,-63.13495521553894,-96.92337781310438,-95.4077467962432,-92.11877358698736,-156.7112273464635,-236.14772840376156,-189.46047378433957,87.65342839013908,551.7455214990324,830.436519283993,538.3202078044465,-19.86797587102783,-220.03669627149878,-117.29925168274596,-117.52359510493895,-170.65749587012968,-121.81931557474286,-81.23058371075174,-76.37657968703797,-46.45375376083105,-38.790210934720776,-42.87408644897277,-8.88721739026606,1.2180902818519623,-29.47474054456082,-31.448294682663136,-16.919164645874616,-24.895086384360738,-24.688852224402304,-10.418390104288683,-19.666658090003747,-38.25078768310126,-25.050250113063782,0.04373003205344084,-0.9491564222850499,-2.7115353721740014,26.0549244909307,57.69382845505011,74.05733793026909,97.63901286396248,127.29854070474514,136.98340796046426,111.2896642533053,52.86999629111543,-3.978719225474604,-32.85698993091836,-55.86099497785817,-77.43293706699399,-73.56347374172624,-60.04304703615469,-52.78988108512576,-40.01289771992988,-34.76306209982618,-35.22629760999895,-20.91887815341829,-24.555570279273905,-40.71210108824835,-2.659370125938665,38.97104964565471,2.559948137213894,-31.99406368871101,-9.343349593257807,-5.536157127382287,-14.985018416737695,16.841527246645427,33.12114923277471,-0.9061658818992626,-25.902194908693758,-19.974033076129405,-1.9910274720211323,16.24366718766948,12.916366001769374,-7.218785189472545,-14.436522531510718,-12.353664315138314,-11.144813842681994,-5.305288398821311,-4.837242114351888,-14.758348187776367,-20.067641741741735,-15.076481712420359,-5.296293250588329,-3.074541997680578,-15.774753540677896,-18.34587359615528,2.948436724943475,9.309428761522383,-4.059037670784143,20.964343798400098,67.42366219849075,43.88203200368221,-26.14590027741115,-40.605489123728475,-23.542235343547734,-46.881690952570096,-75.49769907563439,-77.12821865239222,-83.16585252429083,-96.67657239858993,-118.32547827806489,-169.9064295995042,-199.29404818428674,-46.086954600895496,380.58827599200777,762.9815786639341,578.0257054236986,-16.208332666874114,-272.08833907444955,-97.51284128029667,-44.20335071105373,-163.24692809114038,-136.4531018955837,-39.27028077352276,-47.850304686341595,-72.78918644174185,-49.81373104799494,-28.16217716062867,-21.141675707780983,-25.909933201097928,-24.97342327600324,3.649557817736177,11.552734365226115,-29.139783136692788,-43.717409483849984,-8.316288831374834,-6.376517524605783,-52.59468870830515,-65.4442187084571,-24.587030093601275,18.453910484168095,36.07609266967072,36.53027157729185,50.65433508428392,95.57357781668026,132.93456131814978,144.08643361157857,158.03493907199763,146.54938628941986,71.14592262769031,-5.8326149701131165,-33.26698704171464,-52.26079446868818,-80.43295988848669,-90.32491314711523,-87.7275383625087,-86.69620852143974,-75.0866901731893,-52.99005848196049,-36.706566984290625,-28.37875242089636,-23.47254648920906,-20.507960102290838,-12.093809200566705,0.7410594016577186,5.4409033599259935,3.8059411814502973,0.2928079153656338,-6.506289565724931,-0.6899438187491853,14.998305853175191,9.634823977085865,-1.0064639366173278,9.775560965995062,11.341131939179961,1.1123356994630131,11.406040149910451,11.576961298212028,-16.831012750619976,-20.26499166614169,2.343597976309841,-0.11853598932050247,-19.74546179060982,-29.30104015136715,-30.521529195364298,-15.776033400147961,10.935568719695826,25.269999522894405,33.217403728347826,42.3143907247047,31.660385627653667,5.277106055147813,-16.487020114030546,-38.39752041606029,-60.734262550764086,-75.64986132747227,-83.80693306620196,-86.51794874117294,-110.40751801105344,-171.71906793173807,-200.88927375699478,-83.06013357177308,253.74274833899284,652.496936295809,665.7360287670488,176.22275448490217,-228.089263068911,-177.94252873135247,-56.16868742025999,-104.59443797111504,-116.6813988990321,-77.09770519153807,-83.55800064746356,-51.782387181946035,-5.74359786210519,-32.89935486629806,-37.03103773324311,11.871936163520639,9.007884925071808,-24.033344491908647,-22.00246432384972,-22.07424458360019,-40.30463766204567,-43.752917902876604,-28.42066897707702,-8.48037488038039,-3.249266132389184,-14.100747560382773,-5.397480754293494,23.621279213153993,34.57754421300843,42.25892453976837,78.28642707146952,113.66419095148746,125.8041123657311,134.90834451369741,131.81978232545526,90.22240155340593,28.43935598678495,-25.33557217202013,-66.9028002780371,-88.70613573241098,-87.5339875516982,-81.28036942885113,-77.93969775766773,-68.07923291344704,-51.745868149719854,-34.52759688893954,-15.907836282785563,-3.999221213460757,-10.106300063432393,-19.137603109798434,-9.715182562970863,2.313085068038337,0.8133119198507792,8.411049246755411,23.389264917764457,9.49934221723984,-16.89541983769329,-13.113601074372589,6.577119755440847,13.219747269606685,5.05346037510173,-13.817118305139484,-21.55813689773847,-4.668872428671259,3.677562079642156,-8.508415747968463,-11.65467579072288,-9.505216586612203,-17.318799345474712,-16.69361464592268,-5.6832084118403365,-3.60814649766105,-8.130264364680553,-9.277686756793857,-1.0832819859280267,15.647048201414913,20.06156024921198,12.002804796015674,16.184946732555172,9.57744726745265,-33.25357769500829,-60.51710393161803,-52.688627563283084,-69.06226977277483,-96.56865144809363,-84.64252986456245,-98.03111274971926,-181.12499496118454,-219.92027974655392,-77.63929937455724,285.87635014960847,682.13321652594,682.2727224715186,202.4770317649693,-198.59958922833755,-177.27925843274477,-75.30297672196312,-126.90111534142727,-141.08157116285173,-77.82937396077699,-71.20530076135304,-79.23811661310415,-39.563933982488834,-13.639227804228966,-16.124305675608554,-14.126805901883223,-18.605140245242765,-23.201182291409108,-7.482097528356922,-2.27471833833307,-22.029805483358697,-25.761588297136413,-11.74107964603277,-16.05678972611562,-22.260874437607022,-4.275268388339857,12.60349701601507,17.936979761501433,33.29562576525912,54.56825457897404,73.33092084188065,99.81102298896784,126.03890716744405,133.5130670685205,112.92151096952638,58.228109462262594,-6.594341829654854,-42.684562656992085,-57.912541684735224,-74.72772711504471,-83.38112661694139,-79.62716903071664,-68.51745466808094,-48.819840949867086,-38.15010906224309,-40.11416201775177,-27.238585526429297,-11.315185601684082,-16.104276371200257,-12.009500172987297,7.241996356802611,6.37475453202963,1.2852192268184108,15.430429432265925,14.434292683698697,-6.738989260356796,-5.981272626998092,10.987136674899135,10.101450087245368,-1.1297471650650035,-7.731888405228927,-13.906336555287144,-11.097490939559924,2.8729003871247007,3.318139456347124,-8.086003820769207,-5.978736913568326,-5.773365361223929,-21.417505399987146,-15.961961524427533,10.63813858726959,7.505023622640432,-13.760727336261239,-8.950345021947129,-2.067527519319576,-17.69559580380883,-19.02003184378852,8.0845027029155,26.650805256285203,21.07754042837439,12.902067471725108,13.870625375759374,12.53697957093633,1.09406648041373,-18.75978086360549,-42.29093238311954,-53.79008885937657,-55.77077877939706,-75.66152949797106,-100.3595257675991,-111.5136662999178,-152.77770715315785,-218.48911805306318,-179.511366296871,103.50550280634602,575.0646876100915,819.7142194999678,474.03534447697973,-85.90248380971855,-234.60815232911963,-99.45695641195474,-103.56135374026367,-152.54062699116622,-95.84624642725026,-76.87037726493983,-97.86728527215446,-60.211654943354915,-34.76356631128002,-44.51263037251441,-20.78708561830458,-2.9063922208737676,-23.91071117674254,-21.459340500028915,4.945145608517977,4.309489780015694,-8.57352168624275,-12.681493764250497,-26.8241685989716,-36.62601020581788,-17.789064235048528,-2.417396547112861,-2.3253163467376528,23.44263893286919,57.927429719887904,56.03313729065941,62.07466096986224,109.4932530725471,130.40542463221323,101.60307689048646,77.02130855855684,46.7081610452465,-16.1068592212551,-57.25254191843468,-53.42599949247381,-55.73328144109382,-72.0795747124608,-76.25081559820194,-74.196018008162,-61.70564552610312,-30.389603125524168,-11.179846698576323,-15.514305548088878,-13.73254695599696,-2.5864944442745106,1.7508751052103015,4.874355584716559,7.569496618368299,0.7311210433826627,-4.068099218300585,1.9677110290039188,2.717821366578103,-3.3591685669648843,2.1570726399603215,11.444998768141208,4.3646713322723,-6.230647751912688,-3.7609111948451,-3.6059469921975698,-12.533554572289725,-8.844533383075323,4.271210859335988,-3.216579592850646,-19.038167825214543,-8.639901963196309,4.8799308878865215,-9.009822962397593,-15.152010629098955,4.616507920388497,7.946614404154231,-9.138907873956846,-11.445683975170226,-6.644591565693311,-8.288220488090055,-0.09823845034604162,9.790038278080916,4.900215679612447,4.602769279032884,14.632611961487772,11.121402438168115,-7.058638535917346,-26.497347807247664,-43.129192974867095,-50.622860010985754,-56.50090866581531,-75.63352042524093,-99.79748127160663,-131.55448848919033,-184.02484177272754,-209.4532311515922,-90.99306266797159,258.98818598885214,671.4033149784354,699.8484355798273,231.79039860983795,-188.45975648001533,-191.1073276510798,-89.06387706506271,-124.61590260390544,-129.93603412814292,-75.5129995357824,-80.74876730643311,-86.03603408537109,-44.0219657790582,-26.777917868548663,-26.855592948926656,-12.001888524053255,-16.658185297047957,-29.190255643625157,-14.50640933983108,-1.3759120349079197,-8.68374001866999,-15.643917015290185,-20.280898696442968,-24.77592646419714,-22.092872829152935,-19.47000840621906,-13.783468985505422,8.965270981733664,36.21141760902162,55.45089125746166,75.52492192970269,95.53752590599088,113.69263235677819,131.4008237133073,123.00887150277927,72.60052713513292,10.263116728074378,-35.87767771539056,-62.90524459154902,-76.17212876131897,-85.52576046407373,-84.03065568096903,-59.9500443967697,-39.02587458190313,-39.18747208519431,-33.35343571971999,-16.674230292542134,-11.613120617880998,-8.65872837925405,2.1797043763223876,4.038733801225025,-1.1126343712165774,-0.034234513477148454,3.001906126478622,9.538550743726052,19.037625079922893,14.949898103235881,4.361752783540785,6.748853172926003,7.549018319793689,-5.172746488821376,-11.525255232357758,-6.485252845034696,-4.085365954753204,-1.9950302991063413,2.797451307810963,-2.648244386459794,-20.82938627187236,-32.503736439991336,-24.716823750185675,-10.739855431541187,-5.358450635980274,-4.148112984235922,-4.677646302995647,-6.009849133077047,1.2533828780327525,2.471163189061892,-17.761211420995124,-24.42726876402961,-2.0881036645647058,8.242596461137914,4.594918383042851,14.516479645485685,18.780604301746575,3.4739755976283817,-15.851960569506632,-39.3597685623178,-58.36836020902959,-64.8770760394612,-81.09702374364909,-102.26001491608872,-117.7262003853477,-160.4112040480858,-201.2176473012587,-102.91527976135752,226.59610080545954,626.0814080464631,690.0188126097061,279.16137155606924,-141.48125224008794,-181.15177174501957,-81.64924832238401,-106.18346062861028,-127.6369250600606,-85.19472563917799,-77.45042204003038,-79.33923370715222,-55.313009373050264,-47.000095978950384,-35.422078567155836,-5.859454085257662,-3.829204892333337,-18.314015205149285,-12.883971638616975,-9.367216630141012,-19.510046577484673,-19.052698375941137,-9.597899558972511,-13.452099615207521,-29.244167050787638,-29.9094857520278,-3.7951981825518564,18.892634842642806,22.448423692813186,40.84792854381429,77.27860132530259,94.49295333795673,107.73512499538333,137.70896031740912,131.43988984798003,69.76199656113735,11.785497194147611,-26.445037975172486,-60.77418246592431,-66.56849411418659,-55.853217997124005,-72.84798739077225,-83.46657918748564,-52.73380312132713,-33.328025053336646,-42.99565940299838,-34.94497621214523,-15.355502633120107,-10.080734852968469,1.1826028050345627,16.65618999514114,12.60240067387674,5.113068504234606,8.884917906741238,8.960318445985026,1.861146931967954,-3.7394413090843592,-1.990644810348698,5.953435783782943,2.89504374161654,-11.8495192661026,-11.915095712446295,-1.8161209093297472,-6.619358448312893,-13.174565792042316,-6.721559077280716,-6.816847303942348,-15.559139162425499,-10.351902651991907,2.7790503023926423,-1.172398014354215,-15.147336745816121,-11.149733483553662,5.2363935548088705,3.4749704743330874,-8.670053480964132,-1.4837854976412155,8.728420515350258,-3.6229171961791327,-13.566957894261067,-3.1218493368104525,0.6278064494164521,-9.672649311539757,-10.146327563298362,-1.8742873425011926,-4.341147070917319,-15.341485728209381,-19.12943290307153,-11.547275473815791,-1.4288632449633472,4.058058188722636,4.41277308111801,-3.6712547492404983,-14.122821286431602,-2.98873633685458,25.033857492576384,29.77981682616558,10.985938414805979,7.896419422821514,17.869071711465168,1.093334490702695,-45.406424438656316,-75.57632108755706,-67.475602949052,-62.59021610003717,-81.35140940390289,-96.75079676264767,-131.71529585470648,-203.47825157724174,-196.17766771024958,32.75356348942327,445.94676938565163,730.4455856350667,538.9616284481233,38.93435203325321,-205.89621379094012,-110.20121896806006,-73.58361863171797,-160.5792506037386,-150.96805272226848,-78.0780713860593,-62.7588588372896,-65.03608610793381,-48.72598473532065,-30.388747460205376,-13.341058031881971,-14.25011586225098,-31.215899941397193,-26.048952055928424,-1.2088013051657924,2.6231853260033517,-16.540927779802523,-25.53711393400191,-20.291034084859298,-20.846882751454714,-18.360911058566682,-4.299471444985272,-2.250352386155325,-1.902284342567052,29.10021992146911,62.08001760953043,72.4088498325945,94.91599261018703,124.54191716058827,120.7766895333933,98.75477226857691,75.4575202493672,32.00310492791022,-20.376580813440977,-59.49771660037476,-85.64366552281533,-86.35922612244129,-65.3238498680682,-57.01326399805667,-57.616723173557176,-44.773599743308694,-32.730683719976454,-27.280618392796953,-15.595755599310788,-5.727081025624852,-1.8149817451669161,3.5062500014231297,5.479753729601109,9.435155925628354,19.820342349723067,13.451548235446952,-8.315379071275139,-12.165709676952112,-2.9351811894828774,-5.719747016835946,-10.32440938638577,-5.748493912107753,-5.3943219568189456,-9.437227042557293,-5.972527111848967,-2.7362420941405485,-9.146839839677344,-12.716933814503708,-5.91011007868677,-0.5241831744998517,-2.801357671035287,-10.457989334907897,-18.178019153284524,-11.68192596090956,3.4992587141178504,-1.5194161536396216,-19.464912251207892,-18.910330987392374,-8.58617327047175,-5.536086838330824,3.589398392981269,18.082576691469402,18.809604624382985,8.249927853665735,-5.463648277962696,-26.427674494186732,-49.260868174349305,-63.29350016423734,-71.24055702163898,-81.76710996113742,-101.6522063910767,-133.5753796976125,-170.4493111893052,-157.04864143005398,47.81908973902463,461.13070221445537,700.6275735712984,405.7023978217145,-89.24741840052394,-221.1047176905987,-89.59159561754535,-77.25591685209736,-130.53757162190345,-94.03850179953449,-58.65080384692058,-59.07192255426134,-36.05858205950382,-23.881459552027124,-33.9114650469997,-23.869425569855206,-14.490802994757786,-17.714298759342185,-10.545377980818216,-14.000758865171573,-27.179619274295504,-11.889941812771816,2.6039161101677415,-20.25619091365967,-37.22343109851763,-23.622454564244848,-9.53123795982663,6.328844843637171,35.279826491529775,55.93735471912198,69.80389226842854,93.69871471406009,113.39830640369462,124.74187854804426,127.82227980309717,91.19666776582494,29.90775898200324,0.22197111770607147,-20.590418049669225,-70.91277427839306,-101.88970355507244,-87.70537198808249,-76.8375717263498,-79.00772953653873,-63.486281761094226,-39.79103944391588,-34.323238448393504,-34.023083601884764,-9.772100927519718,20.409197060566957,14.346403645508264,-5.443466725123084,5.988921886094319,15.865063452823243,-7.522279704149112,-16.422219997396173,7.0794456173506335,14.750356843290104,-2.0746128574808687,-13.052518205307162,-12.908656280275892,-7.955382751185141,-5.201721803217168,-12.876583813978936,-19.894669013918964,-16.834220249602534,-13.097804266134329,-9.219340570202402,-3.1671133441024217,-4.678985480980629,-13.597991529742973,-19.446222684660558,-13.494968111458284,4.530209178616442,15.9010659163286,12.94898050585537,12.523486329747548,5.001231159598653,-24.592337367687154,-42.3746855947317,-37.09217551680659,-49.69522634618467,-71.86306239696633,-70.55383853087982,-84.24720623925181,-140.86501498335844,-182.41273195822077,-111.55428364377073,172.82129057130146,567.3118861290428,637.6857432717435,215.2422441527861,-183.41703718355583,-168.99351798019768,-52.09445026214641,-96.46589094636187,-125.22309054117991,-73.32037516967266,-60.35632570877863,-61.9928246276161,-37.619975745195845,-30.979144645231987,-24.977543838977528,-4.380161886290178,-9.629037625200944,-23.837287093999382,-15.720648009026863,-13.767896105051744,-24.18084146853598,-22.057608599704025,-15.936028660539055,-17.468618946472425,-18.41374995251315,-18.775860738956897,-12.603683541309447,12.959215715399491,44.2496268020872,66.72305609429215,92.60594186366747,120.82486841553137,134.31045652045788,138.71006170401063,133.4885152475815,90.92403349511159,17.31228421619169,-41.03873009085309,-68.90304339098154,-81.20614759043791,-82.3221165957174,-82.05679310855643,-88.81488748473109,-80.15693130829791,-49.969262836063315,-31.64963107412769,-29.35728025426506,-19.30829212337816,-11.617530916788553,-18.918403384643952,-21.711317460722697,-11.823921785705576,0.9099565121381517,10.429438278369016,6.979182666775568,-3.245406776117152,3.7197041174054064,19.594661517958645,19.40109421544337,9.253509949399163,0.46528294256137137,-6.3389989274598495,-5.172458382445196,-4.040993363653666,-12.587823022148884,-12.698813237727391,-2.6940235394792857,-5.685296807894762,-13.09713079203786,-10.22396786145174,-10.202527987517588,-6.913297880685986,9.371794248380926,10.89814295315093,-3.115105185386831,1.3656472849888601,6.056536830356912,-20.382929295948106,-44.62898062964044,-47.5602928728947,-62.93807427889638,-81.99280366348971,-79.73258463635405,-101.4645979715072,-166.59046246396392,-191.66601903476746,-65.87522379397905,269.1559357089146,633.3536877405623,603.991275305061,137.59623637844297,-204.48295673783423,-146.16569258314604,-55.70189111660532,-121.00860312859021,-128.81604237140576,-54.45878797638764,-44.27014774183283,-70.39011803715601,-55.589835206532854,-20.9328312738376,-1.6662380576325262,-6.248182413628834,-15.783467124142323,-9.615782118578272,-8.159326176306596,-23.20557359576738,-29.177190462079082,-22.25790816416848,-16.639192897777228,-11.951992418042824,-14.813629298406468,-25.479965093486467,-19.090848400490515,8.198075049370189,36.140659155980906,65.32223095460907,96.9037586320335,114.34911627017637,122.09683704978234,128.9251677640312,108.72508311095993,53.81145211408247,4.557908948774278,-26.388528785955938,-64.33203219883742,-95.65079091783261,-90.70449867549885,-71.16480714050422,-60.66755852989613,-44.4257628606914,-27.348173131248004,-28.726785694277357,-27.35510076982662,-8.221213241592999,-1.6841293778316064,-13.572107342883157,-9.563134005126336,8.053127426932623,6.685071246120195,-5.997436903586008,-5.535929260889148,-1.4387097324079345,-2.7945137846496273,-1.0777545656519987,-1.7261892172590496,-3.649112197416099,7.75095705854884,15.442157952986367,1.0955568142640146,-9.614659264373278,-0.5277257006577765,7.292426731733655,1.1889119639604555,-7.1051426641529325,-2.840195472574184,3.9417875771941073,-7.216902242083683,-15.020868774266866,2.0864588395251236,7.761055652546682,-11.707179415082782,-17.757555850084735,-8.480601757626998,-4.783661127214804,-0.0522680935466866,6.946658307266096,14.091659192774104,20.575169449883468,5.1883313740896115,-24.507694261906288,-33.60978000323435,-37.3565857827592,-59.95640760176714,-75.30297270594461,-73.4010394850997,-88.5640125440766,-137.22594503155085,-195.44235357013048,-198.1634109454474,-11.528366500051163,422.58938170719955,779.6479251315254,592.7320947302845,33.239901382916095,-236.74051808283878,-124.9094808625832,-77.10289870053117,-153.13315190605763,-127.2953489032858,-59.87054413697669,-66.68051055779875,-76.76702585095651,-56.00994487715359,-35.29005251507688,-16.46573285108046,-13.590045382504274,-16.14245485976763,5.226977751760412,10.01844726775984,-21.397968315840764,-26.30899990948411,-2.575046968821261,-8.523432727988569,-26.447279226984158,-19.621311126849484,-20.25902122347859,-34.84546912394358,-11.627211532673371,47.56171871415284,84.64707287418952,88.73535012483231,98.35586470717419,124.11904982090364,132.94461213693666,102.38825594863408,50.422407864697576,-0.9544438820415477,-47.191209171810776,-75.64908177897087,-76.67120673250272,-70.57925339440125,-73.09463424153277,-68.57583710165017,-46.92833660403308,-26.27380161250336,-21.7778943261389,-20.270539238436683,-8.23720723965691,-0.6316119054182501,-6.8332516643635195,-7.063772132335368,4.33811965945692,7.958775031043125,0.7348012365527499,-5.395310536340389,-7.057433637068748,-2.237170287016834,7.446182718592696,8.917222210130767,-0.4913320324374215,-7.064445932438634,-6.238509871393733,-4.110406264073051,-3.5478518139714232,-6.718140044398272,-8.584430276165207,0.49903568529954256,6.361099971433794,-7.214974214714098,-14.564606356256933,3.6824620480279586,13.332257750041924,-6.470452127275646,-21.479444365342367,-8.493825837971457,6.1428176784227535,-4.491960315789033,-21.14345227566171,-10.55529872008226,12.087201798792051,13.69537884021576,6.865183492293312,3.7088909062477278,-14.337672045824934,-29.18393823441045,-12.934460619614383,0.9870874308744444,-8.959598688457739,-8.385536950172401,6.444842076648895,3.354839445621691,-14.449950458434367,-20.454984967677817,-11.769626228999346,-4.9815913326575885,-2.2271182717897515,8.939739567951335,16.085837207519397,1.4536084845925341,-9.288537646020428,2.5627231960906656,7.219550659171758,-8.341265356575635,-19.82400324503162,-15.959627824494008,-5.958080662386056,-2.358338116743946,-6.688181898376131,-1.5108194421363503,15.520026377140486,21.190969596904544,13.477047325635052,3.006611349250827,-22.703662414469864,-53.81606124647105,-56.46984072977938,-54.92516276902116,-82.18422261955155,-98.59183506882745,-103.87351517471569,-163.10892623533098,-237.2576649965126,-178.17936220527002,136.8453449525296,627.2015855650862,841.899959656448,442.2169128277374,-114.20016961090013,-217.2081133929384,-78.20684804588754,-113.1585979644393,-176.1512335098761,-114.40295761127584,-83.96326047999881,-97.25279574570025,-56.79972715519727,-18.421010193883145,-22.61114171833809,-21.518272784279333,-13.31317481992955,-12.258399255362622,-8.472659074582932,-10.654059002398213,-18.656710464213816,-11.799247180813698,-1.1642086295307639,-11.7711523764846,-30.192333591863196,-32.601586354536934,-22.120091265027487,-4.392475737285953,20.41804807718807,37.754612698947284,43.487216908463495,62.97408575424313,103.20911543991058,131.4207167003958,126.81594128078757,99.225490965808,56.213136099053656,7.207070548945495,-29.932132257389448,-57.80382805706827,-80.82162934203984,-83.74961573379596,-74.38073868064596,-69.54089033657729,-55.972910681672495,-39.55401815584907,-36.55321284838053,-19.560639195787495,10.03775311830326,7.135568675321881,-10.288155734161572,-2.8946857930135526,4.571276401578585,-0.8031144364995235,5.770629098522918,13.814551920477747,2.7328263774792934,-10.573887544818414,-10.296171893057927,-6.060467837795791,-8.066107140831521,-10.899780133085365,-5.688312830596171,0.1452368410375744,-3.5156352723555315,-6.8454233738706805,-3.939070139122249,-8.880310438059686,-18.669508449474804,-10.606430340130036,4.721402000260406,-4.086714779389711,-18.124653358668297,-0.264445401535653,16.26054326638683,-11.118040126143809,-33.858676494650844,-5.68543533360659,19.03245174391483,0.8104798529891895,-9.302650662302955,9.640090807967958,9.727637873140658,-13.778021667471304,-15.7120930070806,3.461438640571,4.661016163959618,-13.110164553086715,-18.728876438647042,-9.214223831449301,-5.45795351034492,-5.15756077789938,3.6403994051038353,7.436154455297883,-0.5333197681090454,0.7091373589599659,11.437516234086399,9.617010237907733,2.82728216496539,4.008676793123998,-7.2648963976963845,-27.822111593022846,-17.81854260961674,9.67184037693916,4.725813519586708,-17.774773203776803,-20.246010171649033,-16.61004006908357,-12.09783842745215,10.605403116884045,26.63974331579525,12.762586986434359,-1.7202349723581642,-1.4378401190942869,-9.083991577593062,-30.55709959701887,-54.4868910138908,-79.13165281488335,-96.30195776561024,-97.37279299226728,-111.10434453763969,-166.70394624847296,-212.34121792804905,-113.39771411205435,237.98739427647283,681.6350034450477,748.8609840904804,277.1076191271322,-185.46612668565106,-197.7726582368203,-73.35841023577842,-124.10346362263557,-159.8245922905287,-89.91709678879646,-69.27922186115883,-78.3948232631843,-45.483482939301695,-35.52183407767184,-39.696546304795,-5.452586856791221,3.11601315657156,-31.517748830359324,-26.93569946505906,2.965609486104725,-8.122942809231112,-21.9914940736504,-4.546189686336893,-10.621307432344166,-41.68033355581972,-32.80782865262781,2.3626451929465775,10.018062383245955,9.718588084363061,30.607008112331243,53.08552182030826,72.90749410244376,103.28109852263276,129.07365386419934,133.67962002121558,115.21530563816297,72.30486579436143,20.91333181779872,-24.494650006185996,-73.47498108058781,-107.65634594512703,-95.50272333401037,-68.71556938644007,-62.72210569416474,-51.03435643990928,-26.707025402275892,-21.159956532516183,-29.064348174911196,-28.618811011722038,-22.3143626790412,-13.83325954525106,-5.241358689620537,2.769522658746796,11.64730977154846,5.322017657561236,-13.920428506551184,-12.172523124620163,0.9065657862306331,-7.2175718686019525,-14.727155000265881,-3.2817437526665625,0.4475402709738141,-7.533104393065091,-7.328684911722087,-1.0193376752806316,1.5360575757472965,0.10602091396128976,-1.7993695631712505,-4.242385704120984,-13.580112485854928,-24.032571115009322,-17.604533785831958,0.17185580523828925,2.873371913722279,-9.20587755346832,-6.231340814414154,11.591365247295817,7.531699782880694,-14.542511109159701,-14.97469487224387,-1.1569821801536628,2.929173229782977,10.525985099801545,17.893984770903714,7.493570542312858,3.0391485520766524,12.270065280896896,-1.941158092584823,-36.3271915173213,-52.427059298204064,-56.2353853469481,-66.37208290727332,-73.00259027869627,-90.98812689556286,-144.15581094177998,-194.06978538695847,-155.8667777053457,79.57657152091633,499.28058844987294,723.6058237946199,397.4141091755392,-116.99040556415899,-232.10785114836915,-83.4109040294883,-80.86452272368264,-137.2328731355908,-87.01166320277464,-55.766680571996474,-72.80769445032122,-41.31956514021185,-9.930451463808566,-26.883020331888435,-24.818104558354285,2.27597805729362,0.5329043695613223,-15.254512002614824,-15.094907429233498,-17.169546475680868,-29.168423107232183,-35.91587393019229,-39.17151115962901,-41.09508693621937,-33.63431389642285,-21.805733565808616,-8.880526835427906,15.279017950239663,47.52971164595031,74.59716181013997,98.40269790858517,126.82532552249683,148.29974331755272,138.53287316967766,98.65062679332554,55.66049657754965,16.474612371982413,-29.133226598943118,-70.02689807668207,-91.73151019526361,-102.20991181490912,-104.9088838406879,-88.30720853929364,-59.83538838215307,-44.04339191175667,-38.23000254031954,-23.698241918468902,-10.318781820537676,-8.558982049519926,-4.312053176907671,-0.28449594980694926,-5.85779048971273,-7.129365656345453,-6.118382748656359,-10.18937687269446,2.443749221157428,21.870037135743694,10.461600839495315,-8.604899431955797,0.9257885979363341,12.711194134781607,6.002476231721822,-0.1696404286237314,-4.686925308225343,-11.918363120097053,-2.6800706519718505,13.656598641090133,-0.8732944730917716,-29.59272581916936,-21.778495440192387,7.06064776071436,8.655451386033626,-5.822840938252984,-6.448520500534322,-1.6484933514830526,1.5910810631138812,6.4324790245399655,1.595299604468849,-3.417570346715549,11.48473063054854,13.408417754072579,-22.344272921544107,-47.492298214318716,-49.97774893697469,-75.11490934553771,-99.88802870459497,-96.13705559758199,-121.0845987270464,-172.62832641012602,-136.3706659996081,90.24334094232498,467.20706091745114,667.9848480295149,380.26361658912583,-89.89164255336989,-206.24183166109108,-78.16352956754656,-77.0568618204785,-120.51661047351838,-70.29383962978906,-54.75441034861446,-84.0890725717809,-56.928014320681726,-24.11277337301742,-34.364460153654214,-36.90718919837832,-25.463095105975572,-22.967227370038103,-15.910867438454073,-4.665292359711026,-9.676537088592887,-26.340621080772145,-32.818165745108686,-27.51407331732878,-25.516765067633045,-24.330509675028907,-13.339479317338638,3.2347697823381836,26.091116279483764,55.49392865551043,76.56961529640752,94.52268075764171,121.3117876003175,133.6530488931516,120.35560684771896,99.46078764745842,61.80009567267183,1.9109002784878326,-45.85307329578984,-73.10415172269258,-95.42937102643832,-97.55213518530736,-78.79353119312825,-65.08417022391987,-49.03285632857349,-26.34426035841797,-21.48854100162992,-21.05673433819325,-7.522279784997913,-11.217715382593624,-27.345988119572294,-17.72823335360099,-1.7705913115704277,-0.9304866327985835,8.192094321238411,17.425866995605794,7.836525309939543,6.209829758605502,15.929014017174426,5.34599724422559,-12.333559604397529,-8.703699276835929,-2.1716467110407622,-8.053109147151286,-7.11187072399596,1.4344042034433944,-1.2504523192574588,-6.084571581371898,2.054013185572908,7.703042369255219,-1.644414718493909,-12.4837589399,-14.858407600505315,-10.50041369356986,1.4349723688285212,14.724473907751552,14.24273217985761,1.9978276206299057,-7.002120937571874,-13.973581005270953,-17.972597369128543,-2.192389500055004,23.019833291403163,32.78959143623765,33.09700136810416,21.14896228800199,-15.79326505724357,-44.760790448777165,-44.448334905121214,-49.119970391762294,-71.69467740617384,-91.3848519215344,-101.13328213421934,-113.37638911043679,-156.28524263211642,-213.742039345576,-158.85380980551284,144.60265660668725,595.1188400709267,770.1071930491471,399.5431061804826,-112.43219335247743,-223.6706480300846,-85.68198872447368,-90.79457903512036,-150.9340045050021,-100.39230667068477,-60.986648641647264,-75.94250286286686,-56.62609098560524,-28.544597218582705,-27.614041037163627,-16.207737680810617,-4.727228942569006,-20.780070715198192,-36.47432706973408,-32.96917943539121,-24.049610286017202,-16.52150587532624,-15.767045482532254,-23.42925234963261,-19.84696304462347,-2.321014861666109,0.265747143703714,-8.902499754957717,4.13240239200071,33.19922079315851,56.46466413188582,87.46063303568579,127.21859851454994,145.57737925757758,133.6341875296371,98.50751773365847,40.36708044746659,-19.64507465843584,-50.62378736445399,-61.45683256499021,-79.28228685210638,-93.184037756422,-80.36433164402254,-60.004242226838855,-53.593557836391,-44.26137932725621,-28.548290540642636,-19.974841604578152,-3.2428148510228976,18.322900911487764,12.123422918599271,-1.84233115825349,7.640177809569087,8.343303073059504,-12.262733719696703,-12.774736903352283,8.370578999682124,16.762666542610873,11.174851723889024,3.666226949436977,-8.549801538167612,-17.79893264207677,-5.965587428464836,18.8999455543495,24.618868440904826,4.900215184402901,-13.460181572676834,-18.906423065506562,-17.514504665590202,-7.581272231727877,-0.19333226115409374,-9.845858665596058,-15.283752501172312,-4.452213885833535,-6.066079049497471,-17.29787833475026,-6.214719336049965,6.336238103129466,-6.8971337579808,-11.104001459408924,9.393650647224508,14.07944289442995,0.06138323837676829,-0.24160556148665258,-1.2797196425920028,-21.515456307925906,-25.5612721056768,-0.39459685186856586,10.562421831711553,-3.5642982270101093,-9.929145974494567,-6.283539029718192,-6.107848669787179,-0.3795460172455041,5.573127510701121,-1.770919359832714,-4.607864232303154,2.2254434053834276,-4.723303278447801,-14.800270093893785,-3.4678659050120633,8.915979382470749,-1.1532017812193054,-17.807982296807022,-15.600123259613294,8.459001582740093,28.370471027646072,25.649017729466202,21.547039802065953,23.592895114905225,2.250683752037406,-34.73984832415109,-47.40787403593872,-47.62739736876465,-68.33138302459992,-89.82149032533944,-98.64827093772344,-136.33982486552463,-203.15374802244986,-223.31151244450405,-99.68729929272882,264.7478765879428,730.0648125831686,789.8174324386188,277.6568301817443,-185.79345695011966,-175.08131385217092,-67.71583690961853,-136.41454080711208,-161.81323828146665,-97.09630838227613,-89.75337480341403,-91.21968679933434,-43.83818359557855,-22.136714167691416,-37.3750617291022,-38.08666171012172,-22.37896563181446,-19.466479821544283,-33.18699970729446,-26.217549309859308,5.431315741429579,3.801912748358614,-28.371765355855935,-29.365735891706468,-13.176297986287969,-18.597617772913814,-17.214736753353968,2.778433022146179,9.27765266319575,10.837119921291357,38.10174114573096,79.68881385383786,109.18629041843806,122.21732478934345,123.77865587721453,111.5943330187252,75.12875260644338,14.600647678073146,-40.85205447541975,-65.931688411192,-75.42682701353303,-86.66404967821235,-86.94030119207437,-72.36230144893159,-59.36446106485807,-46.45452771431507,-23.146423903536615,-4.558073604226099,-7.11477460276744,-10.391084001393958,3.5538327051202927,4.776519073678285,-16.761867549221527,-12.259459776895975,18.394645850103885,18.6247585593958,-0.4030102776245901,0.3069847469801079,-0.36063601190155303,-6.14035298185224,7.652132128395989,15.535178272010754,-2.405273251097647,-15.323982311041332,-11.284219801127135,-3.7782708617994745,1.1866407965241397,-5.780111150902444,-21.196286124460833,-20.477890386042006,-0.9498900391145249,10.650657956677685,-0.5660989874446241,-16.661624970365907,-13.817059880961008,1.6784419491784752,10.115791255026963,10.418311845154967,4.703037991283251,-8.346539098749489,-14.325731830999317,-4.8303991401523225,1.665729896784204,-3.9946029760229216,-5.691718021025496,-1.2936730411658424,-7.169651626919608,-14.546699998615532,-0.9511039516883306,16.457669022545673,10.786012360434533,2.9815277645365788,13.796503481891598,16.583209182052123,-6.69678656631508,-34.26665967386916,-43.02689391237991,-37.98665914848032,-52.26054750543069,-90.33233914747373,-104.25108406359483,-101.84818916717194,-149.85239087583417,-212.33290720006428,-147.22937047251537,149.01272763679358,573.3193395319586,723.5652627307271,348.9999846349107,-125.80428929165582,-198.45329412566366,-71.13732971469042,-95.31529524779631,-145.32584021424924,-91.78435337651135,-66.34382028844097,-87.62693232196571,-69.71307679679471,-37.65706787763647,-21.654184833164038,-4.782117935396471,-2.296464680024874,-15.590065147321493,-14.736551391780553,-8.396711215493358,-18.492598034522583,-27.503224903999364,-23.866594039211208,-27.51680852393963,-36.008854040481566,-27.04503502777192,-8.859333422206875,4.504423259443679,19.72164809831258,37.31579572188221,61.577412591874136,100.0600514339755,129.35870343996592,135.9674829231063,138.91654550271622,123.93176591930485,66.04127844089325,0.9090565967858808,-33.37481732404289,-57.059862401716586,-89.42719795294813,-106.67892845021876,-92.08021380033975,-70.9077436666068,-62.98596760775449,-51.91238777734231,-32.9994456030315,-23.029862199777114,-19.77366583970337,-18.17321549064559,-20.31613541652635,-11.622177539562006,5.76082530264156,6.854005806302993,-1.936018197619358,-6.205765258837548,-14.187708087960859,-14.096868343774746,4.712058005666956,11.970777293422763,-1.5563609757202492,-5.598053235412966,1.3512738495817285,-2.340470662235365,-13.0876214372763,-16.56541640260844,-10.096640120575614,-0.1642130522435945,-0.08529578831917384,-11.296273566808386,-14.990572191582057,-6.369161108728417,-4.490728849333738,-11.936832858983726,-9.747295532119615,-0.35851273081975066,-3.5535993599959728,-7.076143662386802,14.312320901772178,36.09599947610535,20.64825912551468,-9.959594491034505,-21.067220857202923,-24.88485052728553,-35.97053814959854,-49.971530065714106,-65.89174455668294,-71.75911190767015,-72.06488185929959,-109.18220906204488,-175.25171337594472,-183.2778698902535,-24.929866794991142,344.01616245271623,675.7272928516029,539.2734168759761,29.262802325321708,-234.48984399408096,-115.241456795972,-43.85320157575413,-111.81451950000854,-102.89181315681151,-61.82241054711541,-74.45645071601403,-55.05408914704848,-20.54204164721715,-36.16426222644831,-38.05090740668972,-10.751218363143884,-14.821155068338724,-21.57085462798392,0.9431659329093893,2.4743148175667606,-22.757139454767536,-29.943003452375113,-25.822487708378496,-25.963900721820924,-14.547740426610147,-3.33445995841094,-4.507945320088682,12.377233752288952,45.60678736859904,61.40298692031703,79.48574990103347,119.22293047446064,140.27623132881985,131.10348395416435,118.67598990897197,84.79691550211682,13.822718494433797,-48.384666537017345,-75.7692101473786,-95.32123855234501,-109.03973874588584,-91.48241958093101,-61.99030997514786,-62.15504580166122,-73.33745111138862,-50.11804498571491,-11.93795216450146,-4.095340002223704,-14.890432247768828,-15.152170612685907,-10.544998298062513,-9.66448362289421,-6.378927228013856,2.433014030548076,12.307041816734944,12.960964784324858,4.18967182480141,1.2915983148713401,3.6337822786695426,-1.423422773121544,-5.070347992547155,1.9289211770638817,7.663893671851059,5.315744788508564,-0.858274722026076,-7.448236230806092,-8.175919639894389,-3.9204471068503945,-7.234292657770558,-17.571090511246567,-19.293731542868507,-8.34801786458099,4.8276784456704,10.566604830139223,4.2753211187778675,-8.069930864191603,-12.320435558794255,-12.432245877962487,-22.12625099283357,-23.11195422302658,3.016042265132951,24.139245966043987,15.24503467714855,3.393378825889018,6.312580266732462,12.040831113991699,16.628838393648575,11.629942308878466,-14.778533266366818,-36.6175350026933,-30.187709852445707,-32.46280435670676,-66.75670563552441,-91.82768879155492,-107.73371336188539,-160.22644871677812,-210.84506601985004,-164.57345527469096,61.15905611079228,475.06316101025635,768.6251844997533,523.5586032451117,-32.594100423032764,-253.02539488037095,-122.13407772666707,-77.18925821270274,-133.8092286832938,-113.2699700318157,-87.6872807473954,-89.66335150137743,-51.64272458776287,-28.717029938650494,-42.95392987194584,-26.472659860939082,-11.286084336164269,-31.213882577071683,-20.46120148856279,12.999964250248889,2.0216448278849377,-22.230170558699974,-19.390987055791093,-21.638567455017586,-33.524475506948605,-31.274182232249565,-20.3119763307651,1.672626734593095,33.123796319067544,46.996456926943665,53.762699206002615,80.92769175753165,109.1745506323503,122.81576995892226,129.46237157360238,113.28691946242132,67.00577149349041,14.69802194323538,-34.14746267072702,-77.81615935415724,-97.94765988061161,-90.48417567927055,-74.53197088114757,-62.84833030493151,-54.041467527612106,-42.633096545421736,-26.51901371261021,-13.725587515187456,-15.922357783589757,-22.867611156794716,-9.4567622840026,10.096044860220044,-0.8963161466991032,-17.389995206493747,3.6419903449535846,26.332582127319274,14.706881839005204,6.410994959706768,11.78478254537104,-0.6357224933384735,-9.809482632897627,5.076086347579791,7.180174259309508,-8.608646074775042,-10.311898098627369,-6.2991615545199835,-11.017339143529531,-13.179700062648982,-14.205630896177098,-14.287327063009226,-3.174879982443718,7.945560623677905,10.894857864985614,13.459456440471168,4.131854788660689,-18.894080346990073,-22.938935640941846,-2.424426939116824,9.015894520874618,-0.918176975141817,-13.385941266546064,-11.684928787280594,-0.4684291901938895,-0.33150438814010563,-13.212183556587892,-14.65714260064075,-0.5812248167026528,3.3787526605146194,-8.910789872720354,-14.29397559451517,-2.580833937045746,8.181328174327016,1.2691368852449365,-14.041839146935494,-17.51601403081377,-9.123673092442868,-3.2997118539596544,-0.5639236740205407,3.5070486998176027,3.3749611580946146,3.9806997694870803,11.642034402100016,8.129398094079649,-9.372744119496032,-12.167245951465919,-3.3944950267467577,-8.895323550175995,-12.952872677688145,-0.6813999859386035,1.2282798439967362,-6.611459539555072,1.0311879494443073,-0.4072247897095487,-23.64784810669339,-15.300825516895515,25.596433687406567,36.28675379420686,25.493474881617445,25.10905846684143,4.5631395699387,-25.96438782950058,-21.819137740745013,-19.930017984764575,-56.193882415901086,-86.48064909154486,-85.25201668546504,-87.00548946524609,-132.73811147982687,-215.8830703514146,-248.12773127601287,-93.30695055951716,319.78582060074484,768.1865668993792,754.2685386478331,209.7275802494429,-217.44435372293012,-174.3804205623577,-75.46759649858006,-146.8530609793084,-152.59447595342237,-89.87948905487828,-97.49626055723994,-84.37516290484521,-30.251082238898334,-35.67820994500968,-46.11584037299042,-13.445113761041318,-7.627726190301276,-15.784919700580845,1.0383889038792908,-4.694564781828106,-30.235166948224066,-26.73863278242722,-15.62709301274498,-19.501728495183233,-19.929457201236797,-21.814736946690886,-29.832273624556585,-23.658463803509456,-0.29882884656908004,29.80375249832806,59.86252956709275,82.92224176341985,103.82213422972299,124.23187000190089,130.86033543616983,119.08580570532601,78.80746405835772,5.158719464122809,-50.062528644766424,-51.27228147900084,-51.338994346191114,-77.84198818547938,-85.43586347497659,-68.369700419803,-57.59162230709511,-47.299575263660095,-31.420628080781505,-21.076527480126884,-9.987793862606132,2.2032210623262625,1.4749193057315448,-5.246203191296583,-1.4988550298966041,12.861429688329036,27.29460177948364,26.241278671734918,3.2944048320547825,-19.84303855521152,-17.679214575792663,-1.2638738063639243,3.5017983282006524,-0.25609964713775035,-5.9820009370064735,-19.946048009281903,-17.075589219467577,15.35620650408388,18.466583554723545,-23.21498841124281,-33.002652330909655,-0.9611529416794493,5.547401785225468,-8.618728400889502,-0.27373566667115234,12.092327250675115,2.1693450839234263,-18.125032836618754,-31.244041216897312,-22.835618520744912,2.6943758543683307,11.822545357816404,-0.8422142263748515,-2.7881981522069923,4.8676626050179355,-0.8280801844233228,-6.152208051304241,-0.10760335387258202,0.715522398272797,-0.484163593424654,-0.040942727334464024,-13.667768940413337,-19.75829991328711,6.159142251674117,22.575059484104457,7.4740993350592895,2.8088196645191497,7.400338361044454,-11.180525529983974,-21.480276794456202,-3.5940906054790442,-5.152267436885065,-25.301338772203458,-16.521557308356645,0.3426376208506632,-5.081895191312007,-4.10291499909983,3.5153187320662687,-5.297905238518709,-8.954720116823399,-7.352021506763222,-25.097936982963844,-28.57371835393532,7.140483224100606,40.05917482223188,45.17512897929547,31.31100525258362,5.867129178022541,-16.28860646077952,-32.53463921338047,-49.20749086292112,-63.494016944187734,-89.15416848759337,-114.27205204335236,-106.3412141723498,-121.0972010389164,-196.3779190460403,-195.05403270117293,41.523754063612955,471.3557309555521,763.8692289223234,545.9676724999439,4.633251299496877,-248.7743560696511,-140.1891917148082,-90.83607056077463,-146.53933494635558,-114.44102841760719,-70.20258535279588,-85.46208733282126,-73.24394863087029,-39.89532892121499,-30.269434729915787,-16.527068771971933,-2.837588183703211,-17.310336279715393,-40.04951540142003,-33.02444954722131,4.678871232115614,18.492769077187553,-16.407435772104463,-36.64223520052583,-18.191563639833113,-18.7247498857355,-34.3016945587415,-15.149875191070876,10.336241769283568,8.662493973634607,25.771624845366333,81.13009381961066,119.37594631196868,121.71592343562459,129.94157100055716,145.55025728868398,122.32722033643329,58.20765066151169,-0.5365265583717083,-36.707853315270675,-67.00935466851968,-90.10667011259794,-92.02994486996378,-78.77184040565308,-67.69394418716195,-67.12497957007133,-67.21937050731137,-50.47852134359933,-27.276902987137145,-22.44266334908454,-20.88179573483648,0.378492194471562,17.10777672823463,8.414916769902359,-4.138045982901566,-3.760987799608035,2.741989182372505,4.716298808839765,-3.425065563339537,-11.554530784925815,-6.180963033318006,6.823202257789788,14.31229650838057,9.213728409211061,-2.359062789946064,-1.4101506883017336,8.216520553711968,4.804409012281137,-4.329196220539432,-9.526748368764977,-22.224871401876722,-30.848580353868478,-18.66566612039808,-2.1199697684770147,4.310850002258464,-0.6078743233443138,-12.305289691383157,-10.980535906958501,-2.332902206526736,-11.303314854608711,-17.967587227478873,-9.111781814501517,-12.437538612896809,-12.443517208067231,13.589589197226175,26.56558766543167,20.009031397945837,27.413111252968854,24.94656934620317,-6.2063459340048475,-28.230469335681157,-32.237225271179284,-37.173896132427075,-45.485085830906435,-63.13461722192781,-81.35954105294198,-90.14996665084833,-124.58415128000247,-185.96790838244343,-180.3411413195982,12.582081848414873,399.2708784420006,683.104706731225,486.236791855919,-5.265409319444377,-218.4662610464822,-110.8095159943628,-64.90267391328746,-110.46704162991117,-88.26115245947528,-65.78882120943979,-83.34070980565214,-64.01052830505117,-32.90803966491948,-27.592530679648632,-13.105727236072134,0.4997382893986444,-9.458038500134254,-19.048802952025124,-21.29678376471839,-23.822502003414897,-21.903074419582424,-24.519001009187917,-36.50646534070484,-38.892532550228545,-25.890330970063573,-15.740128141908816,-15.373973073712623,-7.149531993423695,23.114493595305603,65.01222052545202,100.69113948253289,126.39079251024,146.84746098652903,156.63929714587908,140.48013423505955,97.2609374987001,39.83712574585809,-24.14375486096646,-75.6445005428759,-91.88226647467249,-91.59264099862908,-96.91813097194495,-87.2265578794929,-60.91917047693736,-46.71325454169384,-40.78536077460336,-33.4837456041142,-33.405074921683294,-24.968384305523692,-1.2083634789174518,8.068640523061735,2.095820768700758,3.3624395744345215,1.0534809475420097,-10.731306018735884,-9.116098398124311,4.729474713657334,7.227457346372024,1.2822156172029526,6.081850134942988,15.97501658857932,11.455211609124616,-0.36606321777905215,1.05012710555624,7.19280891532066,-1.5346920719864414,-15.362085409082033,-15.357551871501029,-9.785369392299755,-14.94783189844571,-18.685583531035658,-4.323409527761993,6.9661096538496015,-3.253502436210116,-8.4264529071502,-0.19854645678533345,-8.648786611615321,-21.68008893313192,-5.818211802997078,12.731915485188642,8.601502133764582,16.692314817969077,46.1962149173158,50.8171128564485,21.427999956403134,-7.501649286073967,-32.53508439470109,-56.18492651635179,-52.31337747992448,-44.6029577137892,-81.62241554496072,-110.43833015202802,-88.71210804948058,-107.89332097122309,-183.92813955542348,-179.84557007403964,-4.386230510460791,345.85670568991287,681.8615002627101,592.6087491481871,82.66660829510118,-236.93295182748287,-143.94808333775248,-64.85553175863421,-137.86875403964456,-130.04407816670084,-66.83018765212631,-73.0187887278384,-74.64305990978484,-40.368775649305796,-31.67987127122185,-31.929272930569155,-12.436074432171441,0.3539226182108326,-1.265608641804917,-0.2514809003333607,-1.1450970201564186,-16.642506424535608,-33.1859895113084,-34.34128841606618,-35.667852950615675,-43.097393434067016,-29.397452375809607,1.6808378554503705,16.823485308092483,26.67945672935916,56.780457104566615,85.67025860901808,97.89182398606127,120.17289174094276,149.8478445252545,144.69761015993032,101.24178369876985,48.88877187104197,-9.260324749051748,-71.22762599393872,-103.56190345646891,-92.75142960431397,-74.07676079551916,-69.48262376810186,-58.289085369856394,-39.91683849418706,-39.81984698408151,-40.062039242663005,-15.356922319693037,0.3142553833585744,-9.733650279695828,-7.290386676666186,9.639645084838326,11.91786339566632,6.328402026978392,5.2489836756985655,3.141778186127574,-2.4113118930337674,-9.084434864459654,-2.8426964449262586,17.470770598593873,19.886564442094258,5.437013419236079,4.414152685286628,-0.4652738643973411,-21.22315695462101,-24.82283245957249,-13.37443549831686,-6.758392055808548,5.379917170326337,8.37052036233691,-12.3836972977981,-21.751255988652584,-14.33890956060518,-16.505399944097363,-10.2341185738911,8.469849667105269,2.5349182239458,-14.809478290172185,-9.718427415881473,-5.687442927326559,-16.722811459979734,-10.918279503522644,12.016001818893663,20.057411013241275,12.919879146422755,5.991686275008595,-3.8947800837073387,-13.395905025722397,-10.116770197576322,-5.228312632204194,-12.933219198467667,-19.237026531147265,-12.54415505784813,-1.7083980525493185,3.3839222827862,-5.754175204547423,-20.266473016292764,-13.295333863223302,3.1676181863767283,-2.18841409263654,-5.874919643799802,12.858860566976276,17.372643255007873,4.233522427720464,12.860555164842054,26.46150525728312,7.269733498722428,-20.99798101570733,-27.97745359210642,-30.297524932600084,-50.304470395445,-81.53731094167807,-95.52971294409639,-92.1010164017895,-126.01284364008532,-204.4097367759228,-228.88206413421716,-84.81265778839719,289.71608969741374,729.1771965439016,765.3221679746954,259.1697999499292,-194.95132703385377,-184.46721908068483,-72.13835076357138,-135.30615751903343,-161.63124131398826,-90.52629163909157,-72.88229946478373,-83.7608052076425,-56.017953127345216,-26.624656033526794,-14.639911774232345,-19.356434317987564,-32.16876318723412,-21.631526353146697,-3.4357130094305344,-5.717784742593867,-9.587547640755666,-20.05316276598948,-46.622902445769746,-45.52609825987143,-18.615266225779845,-19.38731715621293,-25.72929370685592,1.8245673346758693,22.210760352172954,23.26813877982781,53.5022372561594,93.22989629424197,99.28514620362876,110.73645826471724,137.41429429284037,114.18996620435585,52.97394984427444,20.414733660216,-4.467752191724197,-53.72642950240758,-83.93331194596057,-78.9812543627825,-75.4015986412467,-76.25211381235454,-62.94086820597457,-41.57963140941724,-28.711646991020235,-27.7307164422943,-19.39834722918767,4.2661874545271825,11.370116396028592,-5.381089846480343,-7.133945466206725,5.746327155039507,1.09948136646406,-6.652445628291641,6.446624109736916,18.850438966978793,10.355194820132107,-1.412015703728387,1.2539818940770147,6.3537835369005915,0.7896457625672788,-5.979420924502424,-12.206398981284918,-22.99238597856689,-16.338433730348466,8.535997820735892,8.16193674583874,-11.971055770594546,-8.01301489888269,3.394302318107589,-2.8471453630410224,-7.147672386450736,-10.128999534442842,-13.432076341759508,4.4911580494589805,15.662974785629244,-4.757140725170434,-6.417161068842322,17.219907045847513,7.6980804990955916,-19.134074587272565,-11.681313890174337,4.428082499616734,-5.417362384362969,-17.199140469438404,-10.943360099994585,-1.2258875207143287,3.834605894838843,5.790038623265275,-6.923868691345962,-30.853537757030775,-32.069503122781384,-5.458770410688977,13.401389396563518,12.791783372502977,4.845796093326097,-7.365594566661368,-13.857461652961408,-9.367122204333853,-6.952196613443306,-4.53946250787358,-1.9672160387120847,-15.897535875828783,-25.85133381931158,-7.787482688018963,2.7915855895620005,-7.80126051748902,-1.6524520178543423,11.789371480382222,3.5759177199270287,1.1181608242224126,15.641035583049797,18.105661929428575,10.245225924714006,-6.620583020964869,-45.74700095635778,-71.43506366319136,-64.63041757337685,-69.3571253094835,-85.76266414167421,-101.4365049431739,-162.11099841536307,-229.7100900534372,-158.2572383778839,136.28176732638508,561.6694655244031,764.755270691182,439.39867693864915,-82.12338800953121,-225.7731162075508,-97.75097748766837,-101.8961369125056,-156.0834900513401,-98.6252977090537,-64.50602014174794,-81.67040603707498,-57.152479524022475,-39.11748574640819,-47.64362046978764,-23.991710428809974,1.4867084349157853,0.9302620748949959,5.264094036292855,-0.5726552801210971,-20.286585369591307,-17.83743876037122,-14.985496393627832,-34.71497795378226,-40.06470016362011,-24.669000965370255,-13.509702484741027,-2.3894524098677863,8.671392940997734,16.738257589761492,42.55175498578965,80.44096297909475,100.66798133683632,109.90147821433455,124.51582646919941,131.0950371056878,114.04135638061136,67.56766775554117,1.557528050506038,-47.94076290913917,-72.68671506634406,-101.62069241836019,-113.3606438385219,-75.21030672487613,-46.068141248706475,-66.24508646309886,-66.56638698889627,-24.671415375375418,-7.939844315255307,-20.685322582635884,-20.06139994330297,-14.589890676565101,-11.575895887337118,2.7747739781366505,9.311722011278704,-2.704938802824767,-5.046787792816051,9.800926707601535,21.191030040438292,17.623274058441982,-0.3031551172168836,-14.548372443754454,-3.680879918243118,11.862586385069097,-1.810349849465526,-22.049072134919804,-12.311944239524989,0.52541174451488,-11.617447102339753,-13.653076156685312,6.076831030728863,6.839725526903619,-6.978134563228762,-5.367644004228914,-4.9729893941382315,-11.68358865904096,-5.371844505175069,1.4034903693925544,0.22471086107482918,2.9419930645843895,-7.311128360701412,-29.72702012409366,-24.34492543853665,0.4805983800128395,4.204873329917028,-3.3944279469691105,3.417331579130381,21.795052641077834,38.49779275408909,32.276892850187934,-3.107505741296116,-35.17763109988973,-45.31476797323718,-48.695101019001875,-52.09830784141849,-57.75745808734896,-64.41286144498642,-66.58778606706046,-96.6862234337128,-167.8208178623413,-193.54347578386512,-57.10956290283971,288.58948090798776,656.0527138640441,617.0450463145979,120.66525816970693,-242.41765061186297,-172.2953082599692,-61.76203729138379,-108.22980599238448,-108.9403157270163,-72.33504584363415,-90.04037233646409,-68.63262755889065,-24.035631298710463,-40.969086413385774,-44.10107989876279,-9.35610244943772,-11.160702578463622,-17.519467998591377,2.5214731256738396,-8.958652647150949,-37.20206170569291,-27.32699938981016,-13.775692742849536,-31.189511899655056,-43.568639574179514,-25.949678159076157,-1.0964912649274074,6.275315481483151,7.578173442576404,34.24027680726472,81.96775911614051,116.8972682377557,136.46424023729276,152.70212319327686,150.04921246978273,121.16945756968497,76.45020311072975,11.426507882575052,-56.312238914975424,-85.73397409320857,-91.68517245095154,-104.8147717304518,-94.49197635757967,-56.538990393572995,-45.95817916150339,-57.27127588364284,-43.377867119010084,-20.45795552881332,-12.897912425994605,-2.3695706828559473,6.225998369455247,-6.613943668822703,-18.87293660810188,-11.869890847282278,-6.19451455422632,-7.464546534736609,4.046830721231623,17.557653002352374,6.837400273157863,-8.356472443692226,2.48217154937951,16.089715602136486,3.699339169485799,-11.91459800354872,-7.690420780047764,-0.4212905719927953,-3.1466915807125995,-3.7840260662963,0.6517867279914853,-4.265659373551218,-14.845895107014123,-7.863699240186619,9.316253907210442,4.784795824877866,-12.532883082397785,-10.772292054519113,1.0317392245744443,-0.8939906535223265,-12.370912827521696,-15.614890487967141,2.930294384612501,30.06669991327385,31.93704677242131,13.642526096466733,5.566666930084234,-3.613100233794377,-33.24487357872755,-58.720291573352014,-57.33341125950287,-51.62342717433718,-66.60479310237127,-84.63801225918506,-94.80883514191612,-131.32478913080044,-181.54850893069732,-132.40766113213672,122.22003809153097,507.4169395343131,681.4416413430367,376.5034063698437,-100.70946316485004,-238.78249091480788,-108.72516056896752,-74.26309581991102,-114.01553818871574,-89.85035438637833,-75.66694385416491,-82.06211215380169,-43.60131871125181,-15.409900765170086,-25.955946772083628,-22.10821812519079,-14.603996786120266,-21.604102898056137,-15.534099574602187,-5.901086940004653,-9.023362815957046,-15.10636908575174,-32.61809098553009,-47.92638075721378,-32.22481361888693,-19.35916769388004,-28.29320344191297,-12.104697586699615,22.71410997965065,33.69529480770948,48.74250329846794,90.08292647543081,124.37959519078973,144.11035708418848,152.18347564253006,128.76359506737305,85.32358468180232,40.30055083877534,-20.14217360017146,-81.04243838442471,-105.64349715716354,-101.36729202087686,-87.391645875552,-66.59071010767671,-54.45697730411207,-52.825848602458095,-37.71199074711184,-16.796109029806335,-16.87256927549135,-20.40014914023689,-1.629084483872294,13.936085756385346,1.8085134339766284,-9.873327868510518,-2.5868173502847327,-1.1463187408369269,-7.280263429563041,1.4374624590704208,10.210511251600579,0.4130432717768038,-7.929483379067731,-4.271209785427142,-0.8618717684701576,2.883169291686122,7.24335071098748,0.843429768323734,-12.72789582054098,-15.002905348395082,-0.6024376113687397,12.207769301880314,6.931909279083007,-3.9004528986556117,-5.93753876642967,-10.173539052876846,-17.743977988167497,-13.142624228095332,-3.333694094714204,-0.9571291408226017,-1.879219413643682,-9.88597365463424,-18.567087230832865,-3.902705392446329,12.034549391917935,-6.308202721789035,-21.746435485342474,-2.49740376076479,7.090018315842277,-11.156244311303206,-19.556055607902668,-10.40431864724551,-0.14804030005772972,5.327255294085145,-1.401535100584935,-10.928190435524254,-7.840118568980953,-8.360227057370627,-15.062716985859868,-1.9537551569662304,16.537399573846017,12.044681859768435,8.63393960463899,24.9301320576988,31.302700693393227,11.942753126656307,-16.394732819862536,-40.867331235857996,-53.943836228698345,-51.80745474654432,-49.64880776314676,-64.86987545782267,-87.35492791352539,-104.0171075255341,-135.48411759528355,-188.60485213443576,-188.96044275718003,-5.502062196504539,399.27495667338013,749.2775760712938,616.4298818788504,85.68684618360288,-231.0833563033002,-146.81205716997883,-71.04760092208497,-141.16536563197135,-140.41495528502227,-78.73504776265071,-73.10603002043038,-71.7886866649883,-51.8804551291479,-48.496949689902834,-31.277348999063545,-5.522622189172967,-10.899565884701971,-18.282838628263143,-11.178764093170058,-16.679341937504436,-23.81431498010858,-25.267236327719388,-37.44426855848199,-34.34998621992354,-10.632061719212295,-15.637793066503942,-30.461911837848014,-1.8456547402868804,29.65711735225583,31.201134963045668,55.71302786571399,107.6792504451485,135.22037039437154,144.20854825161737,153.36586308907567,132.09043961785116,66.94762614002056,-7.3856224849797965,-55.928157735706634,-73.87455205999528,-78.73384221789922,-81.47780704068308,-78.7664367007282,-73.99745085943877,-73.28897236141054,-68.17210370536432,-47.70321487810711,-18.03799246886834,0.05002499090211643,-1.3656013673990834,-2.772207234524693,6.940390727713233,9.64613227596762,-1.708213699940865,-7.561547804366076,1.3830768253479855,11.928707164141667,12.295190212077863,5.6067090071186385,-2.237042523361927,-12.912984711154493,-20.188710691516633,-9.804091339089817,10.38976655124266,18.47832816590268,11.404962628467846,-2.498173718658217,-12.846328971475824,-7.531856401034456,-0.366100082811295,-14.156318987736913,-24.16216175393023,-2.8988842460432718,13.73861369742666,1.7060139496459517,-2.0899565134243288,6.01013572530746,-7.96996551930577,-22.87312284842865,-10.058427922119055,1.9684461256817887,2.1787313287897874,8.138073742050628,4.665682441428897,-10.646104520991413,-9.178070812189421,-3.8688554468753633,-14.653860201635762,-10.256818263985695,11.337230107171985,1.383986569439248,-31.488211819877904,-30.459928357227884,-0.5449370671809799,12.621413177746295,7.750494268873202,5.788233153898124,4.858254195159589,2.699721338610755,6.929681557496992,10.323274150700133,-2.342288020487622,-24.24521485126602,-30.049028011491075,-12.88059630104233,1.7909752317182317,-4.678851326194781,-14.143110810028048,-8.769185119558584,-4.363631278626148,-10.703289426700984,-7.17401029073859,5.234633460133743,-4.975659984899593,-30.210714623851256,-28.55436486024081,-2.5913119774301343,10.996283714888051,10.266830883335844,18.835872895620007,35.489317541105855,33.873133328191614,6.362452830212329,-15.478992185237836,-13.939912172735106,-21.97395092420462,-56.310771779813585,-84.29095481901678,-88.3239844067975,-82.93433451892543,-92.1379930980499,-142.0824901434355,-210.41469493711037,-202.31916112967005,8.999794606300412,455.99830490639823,820.8411389111158,630.8429242187365,44.4567596139029,-245.84334272384268,-130.32919436709227,-83.24895950855448,-166.78639708643828,-137.2127030042134,-71.4104132146586,-87.47362027995615,-81.90899802742268,-35.578844273645444,-24.476051586050545,-26.186568973104208,-10.789760122750533,-2.553741549319586,-7.692722013791158,-18.019212888605328,-22.40662281713466,-11.460292353044903,-6.080987671943868,-17.800143796087582,-23.272015776470578,-23.727551224360447,-35.26577429628978,-31.990508588943776,2.312993867510441,28.630998434566415,31.392974912068304,50.880356129975446,93.33979786977588,111.98085549174097,100.32548263867952,99.13477634910268,108.19668881891415,89.38851288248249,36.03762330853832,-28.256250568585852,-74.87677829860057,-81.00270382982251,-65.4582472325803,-68.08806933138416,-74.92705059170693,-56.653810720041506,-43.21511805401069,-52.245840826323,-41.112436475055674,-8.432689764618033,-0.22394705372316182,-5.1950940707017494,4.925522917328065,6.977177404485165,-0.14600215715230824,6.603141639944884,4.9666640959171335,-8.363464986003356,1.8540733617529463,13.896727968662173,-0.26623276756339287,-4.451876262455442,3.8109561240910486,-7.724205155548929,-11.574265936773777,8.667273614326708,11.778743759477168,0.0818580318917137,4.1373491698381315,5.053707722098514,-6.7755547072758695,-8.566948782638761,-11.060188613013334,-25.652450101254423,-22.245534803015147,-2.9706347894887575,-8.502259207395218,-24.296775885058473,-9.397561726267247,11.267922894572072,3.430211180399409,-8.008648998200258,-6.314616982871515,-7.1421406001107535,-5.609574965284589,0.8358768785627566,-2.236986918020998,-2.74152748360671,6.920977018919179,6.298390811105026,1.6034215942931667,5.61335579404088,3.4371927868638203,3.951995437599281,17.38308700992826,11.338857288909473,-12.40472856486859,-14.880922317417118,-6.624951064454203,-8.418098059739481,-9.73766430020593,-17.69587337342312,-29.916064577015337,-18.720351742629155,-2.419753416829421,-7.148243179383966,-4.343670964960333,9.188345670771405,-3.5686363609015928,-27.75266548101304,-24.117992740335893,-5.658654088085617,-2.7966586398620734,-12.405687221351814,-13.554700842849318,-1.2846881157449976,11.647719062509264,22.579766820399463,34.74177960417186,30.902667485750385,4.2836895871193965,-18.63740530895028,-30.017514696566174,-44.25477259487252,-50.47072268764166,-48.83373518849967,-68.82018299168453,-98.63958330161744,-115.49990575067093,-149.82089071525138,-190.93664086466248,-124.14025839414698,161.68994211467077,580.6516994627422,742.0459353060535,369.02994434207045,-138.72937018712224,-227.66526148425476,-74.44594326618784,-95.23601141131488,-166.99779504108213,-103.11603556984751,-57.74194671984398,-75.7362666489965,-46.78284767305786,-20.600886080527232,-40.51192433811849,-28.449095540516733,-0.012918988686022814,-15.01513080271226,-25.573244590495037,-3.5976099339470737,1.5491884370552178,-12.105686527170064,-13.899947287392388,-18.894286358540096,-36.72733290788908,-41.38040455934646,-25.357909967433127,-6.3039179174955,7.395148394843893,25.898393408776947,59.28721851900764,85.82927519308882,83.04085198158248,90.31688422389024,138.87776670590475,168.7089202967156,134.5843780419104,78.73187450134475,27.240898624166896,-29.801419969071304,-72.07505028386473,-89.46847547383078,-99.02635904919867,-93.9816413975143,-79.85049000626628,-83.15219296809693,-80.26118855851111,-45.22638005787496,-16.468757919830075,-16.54567773022071,-17.86279213339247,-9.956356949417472,-2.5695257006227656,-1.2594428231908203,-8.355748268199996,-9.232633590784426,6.291619237481655,18.205322596278858,13.463918210810256,-0.9717106133963824,-14.264328863601655,-5.17756378330607,22.43277855008602,25.27571352998451,-0.27653461914751176,-14.483721922748046,-15.245577406496402,-18.161154434473087,-11.730522538552751,-2.497764107177769,-16.92465322531931,-36.74105699414696,-21.255726862758493,12.984965070727686,16.70073239113935,-5.47687398066283,-15.55640901854088,-15.325627074493209,-17.273000224047262,-9.487924718070508,-3.9483007793891325,-19.345897250008683,-21.573763105721742,9.21394073736441,26.15216035874825,12.54345996356474,11.369151945714982,25.16154095831788,18.392111620984497,0.9454439680075488,-7.666461654194528,-27.43132128961261,-51.35220226081748,-49.36837337727934,-50.69720485262907,-80.62755072576597,-101.79823817113977,-117.75391652466969,-163.8578970122246,-177.87731753786318,-24.666414712181663,339.80659696799614,666.8617887191278,543.998507773126,45.35489958947328,-228.48988869126524,-116.65231076622726,-44.4731102447279,-114.76584940562563,-103.26279428284231,-60.5217423814594,-83.3562680420984,-69.80724163133169,-25.072057001371135,-24.326942534824298,-20.119617992259712,-3.111486720174314,-14.719392826285649,-21.878129483279153,-17.49116944991831,-32.84541740763004,-36.043479825611826,-16.1338001077145,-20.08797380292711,-37.15605738393956,-27.743730609217447,-15.805379134290638,-22.185362730238573,-13.01680467646663,19.711422086857862,42.54772174059181,63.666951209436135,112.87426749776812,157.39074802762715,156.86690580951762,140.62519662411617,129.78033830862142,88.81333720652755,14.186242550275827,-47.16828612605433,-76.79285720387782,-94.8332384044218,-111.41377246739135,-110.18594710092137,-79.90704827991547,-50.13152099094319,-51.119455853120144,-54.45421696241841,-27.49101111042873,-0.5647674736542463,-4.942552055735735,-14.952259909682553,-5.673704466418805,8.647695489530163,15.001345014508285,11.946635229285203,-1.0277927189133997,-2.188802503768775,19.666853356630757,23.35320671238567,-4.418511728142956,-14.978824879239456,-3.4130205501288593,-3.7692981553742886,-3.3301067096284553,4.059077829059282,-8.64011071321997,-24.066231818318684,-16.181056389928706,-7.923136603695637,-7.491082777645346,-3.717046500599791,-10.178826373267427,-17.87720202718999,-3.735865777257189,5.092621813852011,-3.706026091079421,4.543345221661843,13.287887755729724,-11.079413168876007,-27.075000221790013,-11.76388994559148,-4.605431715801197,-1.6163891259493095,11.909488888278343,-2.4975063454663697,-32.974796737598254,-19.256944130899832,15.99735319270434,19.030817933018877,8.65909566869342,9.858833490993202,8.24334787369722,-1.47539322080502,-16.627788008347096,-36.06300115834998,-49.156482111950766,-62.354338709851845,-80.50980020776578,-83.39925663585143,-100.43041370883824,-172.6864355197181,-218.42713348682292,-117.17004320589496,168.88804898274793,557.2617838237671,715.6647905557936,362.99288909354755,-129.73974228699578,-216.74544868242353,-79.10216856541646,-107.9510171457298,-158.1901916133153,-80.67676339142969,-47.15822352424828,-70.51453191059834,-45.09575681643576,-28.539116556632543,-37.72494786858512,-15.953424924397527,-2.072917677024858,-10.400367196508116,0.04859148861242346,-0.5236622524700358,-23.988633718059873,-23.48407028041886,-13.031328594458717,-23.59586390647759,-30.851546158578344,-26.70889466452246,-24.818612339350295,-17.882338880543752,-4.54453018131642,15.879314013711348,53.1268635792069,89.70393307775164,110.82027343457105,135.55570864814607,156.64112441410649,139.5886353577401,91.41990278225612,41.78529920010827,-5.91880052724186,-54.35196452339183,-90.6481803656713,-101.11106479676447,-90.38549139653959,-77.82669144833179,-65.17747842872703,-42.45010145592382,-29.512255567249866,-39.6310114782673,-34.24838620856542,2.697057598183779,22.645323382267513,3.7988897681036633,-13.75907294584438,-6.002875915082235,5.475874034551376,1.9330110656122663,-4.844599306138175,0.0943263943984256,5.5918802444721285,-0.7421527214640253,-3.8160052961443114,2.1385720641714485,-5.426195815603542,