ECG,-13.733029483572786,-16.820707571720853,-17.757570185727864,-18.405525096433582,-25.053393828379825,-23.69359319646514,-5.921337050269557,-5.0172735849461745,-27.584979079507967,-29.743575773653667,-11.418592937396085,-9.760146363327415,-15.469445894261703,-9.618536551373094,-9.61653507979167,-18.432153000843883,-16.73681177281184,-8.123367464781374,-7.849838264633743,-13.852950939122351,-17.55406507169029,-16.662612223483578,-12.799545486968547,-10.240299299093323,-12.777172637031814,-18.064505455962877,-20.362931027580977,-17.78481275836196,-12.890129989313355,-10.83350908824184,-14.867762503160314,-17.62268773649241,-11.895947060384298,-8.510845061949531,-14.442015210167359,-14.475680369205143,-5.999263063142912,-6.484359277578484,-11.803861791097063,-7.694169639313351,-7.030082675525435,-19.03715499634076,-25.210677137287988,-18.614625254626432,-10.47914409772521,-1.891674394222477,2.6266006109387803,-7.867884443661573,-24.513801048361085,-39.844515176436346,-60.51268551924657,-75.23117362556823,-77.05422200098543,-81.96163827480326,-87.18788430441774,-88.81935246904008,-89.81406708431236,-49.27910300794326,76.60829933733154,315.9642439226835,631.668054813485,682.9950558937298,131.1028155565175,-580.0023891608056,-678.1829907337293,-289.1581375131794,-67.53296826130698,-68.42451323390239,-28.105674061636947,10.600420313910007,-9.775151853049195,-1.4385072096146168,17.992171871059675,4.214810937045705,1.470637672015723,10.769734894916553,-1.0569491901817258,-14.978962407851412,-15.889347695658074,-16.76588879000517,-16.231417769123645,-8.431748617502727,-0.9962061604267944,-2.514967065411284,-8.674124939177222,-2.572245154731961,20.519152513732354,42.59309419590453,50.23692887720566,46.204544670188994,37.97307527655636,32.464792544256625,25.990650915350415,7.694506442524753,-18.31432486003653,-40.635611298450044,-57.59977635827306,-66.0760844881989,-62.037289674849085,-53.26763691757372,-48.450488089552806,-47.218414468726564,-45.02173087668099,-36.23340480107365,-21.64889937206533,-10.977066740864387,-8.584755685026018,-8.701290062527075,-6.89167653502038,-4.216736514418585,-3.02448566733149,-4.588446989731786,-6.967691819205733,-7.645155636942867,-10.421797469421179,-16.83859536693808,-16.705659870731914,-9.51677774585444,-10.5626307535342,-16.091513893292277,-10.542046549045509,-3.79435437981995,-5.3664761916449955,-4.912535275896293,-8.619532296243154,-24.166291259022845,-30.070534543557404,-20.31981037754484,-15.435333132360405,-16.609833454339118,-16.82142868422008,-19.792468619090105,-19.875867929362542,-14.947383906954691,-15.427376652649961,-18.7180518786599,-18.687704002222493,-16.001070735393245,-2.6783964555910273,15.607443462422964,13.433374700172589,-10.879533097726654,-39.56645936231594,-61.57780346921093,-68.6167626251885,-71.83434106764477,-84.44469329327018,-85.89855204141847,-82.16085656868744,-98.29063646366221,-77.68887648486333,52.40780771135387,316.5521511980039,671.012202823816,770.4334174323508,225.95431618412996,-547.233009164048,-700.7997724430902,-301.270966510536,-61.454793126984555,-78.48078767706323,-45.3239436646524,9.126292867367752,-5.82763640154144,-1.4622905015302994,22.836524077370992,11.519713461777576,-2.313156125676427,0.07086171868282953,1.3724208449528632,3.9870097802887727,2.096695334158401,-7.768736856018208,-12.108312205649323,-13.497052621943789,-13.41205632471185,-0.7093630971243805,14.349244751313396,20.28612984184944,30.982841211644313,48.48291171110997,56.99319273277113,57.15316023609345,54.475700023865606,42.94798174677145,24.36826980133166,5.080879384564328,-16.208393188161104,-32.28003961783459,-37.1798779890801,-46.65514905023401,-62.6422830811926,-59.55595905733159,-38.1860810013723,-26.84829121401676,-26.86743456131651,-22.403702209964848,-15.750715971562867,-10.42335221862217,-1.3636191474210477,6.820914956756164,6.988755734207341,4.493702192194063,7.1964668784313774,13.791524614974135,15.919884558502407,8.105333085956108,-3.5263513830530204,-8.277099313120939,-5.462659913096966,-2.8043612747365114,-3.3960857504319293,-3.2457971749323784,-1.1814281135047588,-1.5556031672615536,-3.966117145653237,-2.803840795038755,0.6753711169067316,1.1230938712789706,0.415937101254789,1.900832634506235,3.0026006484609784,2.5111637144484833,2.9190048451716173,2.8385676601915546,-1.579070092036865,-7.557276466278321,-6.110633304311047,4.816817967297908,11.560123740344547,1.26140770616116,-14.843938939483136,-17.472752563626614,-12.182345147193903,-14.499271010777731,-17.803077288549304,-8.544157240307829,8.135384074470043,17.773312965837906,13.085835141016233,-1.5333269350188203,-18.318722076667022,-37.84445871242526,-56.11594595960935,-63.04797554529073,-68.84942595175795,-79.77329948310943,-79.25862733687815,-80.02973249346783,-91.12482773263712,-51.132552844798994,102.64830103248443,396.95204502799123,732.5930341301,700.6663813036482,52.3437466616562,-610.0601294345865,-574.6411152441116,-161.8404141640048,-28.70535977585132,-86.48589743278058,-40.307369954645736,5.529408014605096,-16.930997320915118,-1.4925883726740032,25.300240287948505,9.865392067653731,4.399216964649328,17.193313820403315,12.5228587786569,0.347352443587039,-6.3831567385829615,-10.146035702766204,-6.532695287710867,0.42973650678908015,4.897183646900725,10.912508374594719,19.191793484220018,30.05959480854186,43.54677626129288,52.01870905378742,54.57046820418257,56.25915757894357,51.89982629813329,38.71341347583343,23.400913807553334,6.259154519341426,-13.268726291996257,-28.5215100729477,-38.95726646469155,-46.184095279122374,-43.51279390810619,-31.475402903496867,-21.531045891985876,-16.442178319120693,-9.93563340398067,-1.0664370168168107,6.064467466058474,11.348307530672624,17.740791518065162,19.127472109205,5.7027809982288185,-11.47395233330731,-12.006895695608097,-1.714489829133434,1.38609714702856,-0.9669619770894717,-0.23249556314804087,2.554904187525217,5.60499931527573,7.570642396211245,5.466530392933258,1.533853301938498,1.1640536484111141,4.982105163307792,8.418887781132765,6.736657447155888,1.4234453944697525,-1.3951632893760175,0.7203180741680191,5.8325590610566245,8.635634800362576,1.3513037000220685,-12.947036827388883,-18.189907667540133,-10.012532510274525,-2.0698870914501684,-1.1997683203906178,-1.0813588210176475,1.220087936538302,3.652557267774094,7.190776675743046,11.921155360105566,12.18068108320358,3.548644782621052,-8.208829541490987,-12.767708955358009,-10.46209996005391,-8.904059536177426,-6.765351745097284,-1.9878764819996766,-2.785217610991328,-8.245200004629398,-7.0404908341280965,-3.7049003606439594,-6.90086383517403,-7.90038225472726,-0.659649859429265,10.424016749454132,21.242313896061436,20.400889329144896,1.577810452190604,-22.851559868056476,-44.207253757829974,-59.00005629179148,-64.74814699801298,-71.26413462285083,-76.61499063662868,-75.92131318396002,-85.4001054491004,-78.02393654772706,15.21758010625723,236.3424352880599,568.8378524523829,749.9116716681626,370.4787442688323,-361.008179854149,-638.7053674942256,-309.1961296661723,-30.14238222501378,-52.813788723812465,-73.35010878758725,-25.476199790562355,-26.08724438656882,-23.741824491622047,8.408719627311847,9.17983681725245,-2.5617600420767443,4.581418622283621,4.015034258086721,-3.441612993840245,2.851477347943856,7.569585249432104,-1.1827716293027013,-6.101749581573305,0.7863766998118562,11.2013060000467,21.672503997220378,27.392062720833902,25.643743584332043,29.27491561891754,42.662992417063734,51.48469834350324,51.36351188815927,46.320435081186254,33.741531256329566,16.723525362592163,1.173634560114349,-16.390491605495743,-36.445494861656776,-50.93805441494386,-53.99992068519983,-46.84559069955425,-36.69977316973565,-28.42506821337357,-20.99455619376983,-16.350006237848042,-15.083990138986078,-10.385384599709155,-2.013922876857988,3.06641876716634,4.410006696957616,3.570603264827607,1.0855266625619766,1.857641878897455,6.115252790352484,7.929617303829615,6.649113641635689,2.655320688867235,-3.485161557333913,-3.0915476952509824,4.924318671568539,6.5712649740500835,-0.767563116127933,-5.440907936390017,-5.478465489047431,-3.5445600969206237,3.2664523784016137,8.603743753109008,2.3653293380766964,-7.687472394326591,-11.02393742471289,-12.11847293423217,-12.00668835606679,-6.584766898528236,-4.6285852816446225,-10.075063674328053,-10.587466170041717,-5.922747020528817,-4.332227634108186,0.624605061968607,8.710444878792028,8.342226762613777,5.845205230243192,9.787492158617898,12.155174147580649,10.642790339194653,3.397655703921332,-16.175526481292906,-29.518433312070776,-18.817481794068385,-5.689826885180908,-4.154807365281963,-0.9717194800788818,-2.392197587693868,-17.356011707749023,-24.790943351122873,-15.102022218946585,-6.1882849076549284,-5.874844748943072,-7.3248474888636785,-5.56512136009056,-2.5278152409225427,-7.13927802612811,-18.06244392965106,-20.376489928117536,-12.286389525711034,-0.6372662556173143,14.905718365633817,22.068643152473783,6.470250262453371,-18.27340531349229,-37.68262043217204,-52.809353750724924,-61.10024807362001,-68.38300775701158,-79.17698925594168,-81.96115085598717,-87.10736522529723,-93.23536850903884,-41.360335570330975,120.451895792197,413.7964712051684,710.8634391961532,597.0295116055536,-67.06190384298591,-613.1326290161907,-482.38149887668413,-112.50576360781395,-37.61003316420718,-80.82429874243898,-24.98525605221655,3.843543391966456,-18.466914315506134,-3.570744408633046,11.529463938814155,-1.2837446306771412,-1.206718057510002,6.585975320250455,3.1127798677555427,-1.2598593402535307,-5.263832314047369,-9.041704850381384,-4.890871132146131,1.172615804736144,1.0446962024859912,1.7989237154708224,11.759296342586756,27.555723986211877,40.85653134609489,47.69242990583023,49.82128770453457,52.394462456137575,54.507597270395706,47.36584508586717,33.69999907576272,21.954571414525567,1.9268595965265911,-28.81475009711515,-48.121642422594654,-53.5855104053836,-59.94564029385281,-58.676499646828916,-43.54467890146418,-30.440934685893147,-24.490006999918755,-19.717676536053705,-15.93635533275991,-11.81025768001777,-8.788351474146209,-9.183135457802734,-4.971727570357038,3.9053967936526455,5.2336547257775,2.03945437138976,5.343446945015234,8.88616593102991,4.831538955010685,2.0520865069571146,4.997025385303003,1.713237995770882,-8.023962357280773,-8.342740018849751,-3.4811829295219585,-8.419049387162975,-11.577551168364463,-3.668048566963858,-3.0901529096753357,-11.449483811961194,-9.557408259969687,-2.3337356762575237,-2.766508550169698,-3.29056451656578,-0.03338909278216384,1.2527872946177023,2.9224992102621155,5.281748017082322,3.0027131150405495,-2.306475416443716,-8.569373477020177,-15.281904262345936,-16.757586870607064,-13.930660292730098,-13.638773471409154,-12.82170965963377,-9.821346992094998,-9.78929623077617,-7.15108717154204,0.6689020550350371,-0.3795633708030124,-9.768521368396954,-10.086609011356108,-3.4746348114371877,-2.426107395382468,-3.0257186683183974,-1.0548515430353156,-2.5783828206204618,-6.117997541105812,-3.854388518212554,1.6390167307950456,1.664657725619632,-3.710077945145297,-5.738064887750747,3.411525128290318,22.327655446658873,35.81286911492534,28.82276897440595,3.987732477496854,-31.312627167088873,-67.66942622568752,-79.79279023514019,-69.51386875421183,-77.35860750440763,-96.9232040835361,-95.05122849830718,-96.18058528900472,-97.33690000729227,-27.858559286580615,154.5975443182578,461.9885871273128,728.5423599951897,521.0737849634324,-183.90210071932228,-638.1560993803735,-423.8835526388982,-84.48283374926154,-47.079530617307306,-71.64556495337796,-10.554318291627425,1.1385006470178638,-19.498374197908003,0.010203741522577303,8.96832767020507,-1.0337993293492733,7.161716462357429,12.985103660544645,3.295903202501149,-3.083708850956958,-5.933529329177076,-8.672692346137216,-5.280057334600019,2.411513447671564,8.235493613003097,8.965539596354187,9.284854278466671,20.16478028407411,38.9983675562333,49.95878257011063,48.50837250664594,43.07979834936795,38.48972489099959,32.762601522346415,23.383073370474296,8.659603589588492,-11.90981948903546,-32.0798834612043,-42.095090357907,-41.871293991737076,-37.69843153971048,-32.25633548617772,-29.615643111232814,-31.1326329742435,-28.26908885035689,-19.617999163823892,-14.109907174677389,-10.319713169217653,-2.22656291950706,4.418047129121009,4.578129604980036,6.242078392482885,15.350903386797869,18.88185093393086,4.321549258315697,-9.948779145923393,-3.406252597364574,6.3710394081757595,0.9904497434706094,-6.25114468345669,-7.163493896888614,-9.299420193920357,-12.255193504070041,-12.29112909529754,-6.4950864785704745,2.090507586524403,-5.390378085241444,-27.753204584264143,-32.896777129608665,-18.474738704387832,-11.57167122910393,-12.68017672332347,-11.24463734782821,-12.040298768760277,-12.922029241189504,-8.148323850930137,-3.1934899767191105,-1.4961307724963326,-2.771781397083423,-6.404224799443911,-6.983528510484874,-4.2064181140167705,-2.72468015644802,-1.3971953621763582,-1.9881505010835614,-7.228827876978437,-8.106602978540254,-0.1746848378052519,5.103571789026171,0.7068004293018699,-6.585126086631549,-9.179527776827006,-7.009609174136774,-3.621122860754822,-1.6242236779118908,-5.120004146709368,-15.017817207663512,-20.002581753393446,-9.327144130472243,10.970683716034081,25.057286185123534,20.70402195466641,-1.265158711907274,-28.353767172378348,-48.72824488438305,-56.0365402237489,-58.64325817641621,-72.02270677221601,-83.16163082601028,-81.2320317092247,-88.88317638626751,-82.446649947796,8.140043363445969,221.0393618743226,544.940627203515,740.26054307952,392.8368114637851,-334.7256738102494,-641.7536767800423,-329.49383433246527,-48.00179585248738,-68.81115838348134,-79.58645136497194,-14.887251738038472,-14.24964665368492,-22.719404703804962,3.342377856387145,3.849394134151412,-4.58327804771247,7.094703496887793,8.8833485980844,-0.2143475561198951,-1.5180362029806282,-0.6855380609644879,0.9138315521822167,5.708681133257837,6.426887622928617,3.8468735698393046,6.741227990363459,17.72013860539002,33.68468122838863,48.49687816838801,53.583069876879655,45.60646308444694,33.761487835433485,29.111988079055045,27.382370178532362,16.74271831764441,-2.8782195999063713,-22.26998059196783,-33.86100932974213,-35.381633287982275,-34.41622828310678,-40.04088790733254,-46.012106848701976,-43.8680385061037,-39.88053827588644,-35.42455798901075,-23.592246907000096,-13.79034779843981,-14.050536263398197,-10.064336504346887,-0.44662344158064116,-1.0280460938490972,-3.6638444295441523,4.609655397271846,8.457406190525735,0.5806882766065282,-2.9324412198217953,-0.753923135814059,-2.7358521037558923,-3.713586043673546,-0.2466416063482857,-1.6479840798134866,-8.174148984610392,-9.14287992195238,-4.273550179323726,-3.1079502330062176,-5.251927524962083,-2.5086546967136467,1.8598009658923242,0.6922853396456876,1.2492122277194415,8.087772621196859,6.81850542090028,-9.541970037717036,-24.660516669528953,-25.912339509203367,-19.967582053669627,-15.071597027051832,-11.739331287156652,-10.173041794221017,-8.670758330004045,-3.416578389691642,0.6250722029286031,-2.10300972394732,-4.020169042774384,-2.9804703340271814,-7.342057395472757,-9.6836527994932,-1.0622634138942937,3.194676629503048,-4.202682920104891,-7.031328796474362,-1.2157093824125056,2.122669609434153,-0.9260753804692943,-6.175364566514958,-6.626990008448821,-2.45032521611758,3.5315377965758765,20.61974815214624,37.803925421401324,19.419440065805734,-23.73294608653453,-47.00574956780018,-50.51253043767423,-58.472278810105905,-75.1882722029803,-90.48716714865536,-90.17463876403261,-87.57605194561222,-95.78168400964898,-63.641488974023154,66.95000147893093,327.68336972472116,656.21682336414,684.6644269784501,116.87260753165324,-543.6751462437194,-577.1538408104534,-197.63113069753223,-32.75509278196064,-66.41761443701955,-30.70868453267306,10.232259938964646,-12.692123561378274,-16.115679184063655,2.605839445907284,5.798646028880028,7.520445448984074,6.746440242205825,-1.8086058569648031,-2.616804732998812,2.005613036684646,1.8926923667644553,1.8059401660555467,5.324830087892671,10.264535800514919,16.786713362009714,24.230578700849797,27.06048974113111,24.68413145997384,27.76327295616231,36.420589348477506,35.87962315137788,30.42768381280322,33.03662578095544,27.281045795166094,0.8485759506251842,-22.68578163793127,-31.70389593363842,-41.07154509089314,-49.22986942914795,-47.30121232824203,-44.204298862156605,-42.266697876077735,-34.09786803946096,-25.7667154592839,-21.391240518197048,-13.064225440701103,-4.5942395586606395,-4.95758373133668,-5.819010240885458,0.7043228044093297,6.226411121202591,5.932180985276364,6.447132909422428,9.656884342954594,11.100501858965938,12.11909048242458,15.357927900984485,11.737967560953196,-6.728971153997378,-25.595109734808055,-26.81271102225023,-17.963890851312264,-14.321607273278724,-14.100739697529683,-13.127637620587972,-14.354562182071614,-14.239436436645784,-7.818691716891658,-2.140195160245499,-3.9580680521342355,-8.073618709865782,-9.190504721076927,-7.454001802254551,-1.875189129784065,3.162672200566208,-1.8325813934400301,-10.63103654117328,-8.104640030731467,0.42336376867844905,1.1914110738522208,-1.7521136625111229,-1.1389312697297598,-1.0778347786723899,-3.5729226617913312,-3.866645026548216,0.6214487304901519,6.261602061987531,6.343516060989537,0.7651024469346162,-3.200777188221796,-2.656417371716829,-1.70178622041022,-8.002902838762012,-24.326658419864646,-31.972080895153738,-12.132424163217973,12.916527766133122,13.05443385428449,-1.420047189063883,-18.669784604286303,-44.346153510177714,-61.33538248079746,-61.29946309580029,-68.7971047094373,-76.58290318871369,-72.07116012314887,-83.7341744608147,-86.04734527089222,-6.912887040042918,185.44667951981546,501.4973023884955,736.7180903948079,445.0268769436253,-290.0585777766323,-665.1396822772605,-385.9257450729771,-66.1419384094882,-46.41744808193687,-55.15628284715753,4.702684578752482,6.3377744631513195,-9.360271476541513,8.025027997603608,4.376446921247144,-9.834051346513348,-1.7101441861430278,2.2771027345384365,-2.565102164147346,-0.8802250126397588,-3.6766383926608306,-9.06121210771513,-3.937391860435422,4.366219558004817,13.01077057484088,21.64141555557351,17.180986866049807,11.356047801885062,27.05680832442868,46.100445338436415,47.122855851072835,41.2576501205529,32.4418321851658,16.75847721836514,2.96755077709944,-9.51464151712211,-25.753560450277266,-39.29384826805897,-49.74421394370754,-56.046780444106574,-48.85645840432713,-36.35614689719084,-32.06594149433366,-28.41935410160928,-21.8889407236965,-22.810837867017433,-25.196757555235454,-14.699289772057362,-2.2672357594560175,-7.369227178512155,-19.124138642012205,-14.58396263825692,-0.7089415461058266,2.485898660891724,-2.4420777481813403,-5.26479125106254,-7.560678673313671,-8.96619277752491,-4.884665785275235,-1.0228314352292145,-5.528628409521772,-12.039547703528193,-11.327684390351209,-8.911262811076277,-10.19763955492554,-8.905523668831037,-6.794732620664444,-11.552958143415477,-15.05224717950539,-10.470525181190727,-7.4105460040388245,-8.201421846367971,-7.580446055714415,-9.311846537790515,-11.246000139896676,-5.636610519034125,-1.4437971622452928,-7.878977754379488,-15.261158488354223,-16.64977151814197,-16.15170208351885,-14.06414890355013,-10.564512072495468,-10.139790982406335,-13.215722382973748,-16.678333795996465,-13.329937727237022,4.3185145529141895,21.4482210007561,13.656255871624523,-10.566643354023126,-29.508665739287512,-45.34793897646969,-59.70354340332682,-64.34791625628984,-63.95367935793321,-70.82001923256263,-93.90910147504039,-111.64775113817662,-69.97490190133045,57.356205276597066,302.5278010818129,640.7632892273423,709.5511391598545,156.8171981602897,-556.7189669529017,-657.9652460967734,-277.48650863103046,-57.165833455733505,-57.14997330459253,-25.708045929271805,12.140508004165525,4.5633216818045454,15.222165017929894,24.22111333869173,0.7488411568122544,-11.883426692150223,-6.1937365179667,-9.039554803103172,-17.166851278131404,-18.944361779007757,-15.142604010174276,-13.496000728583459,-14.082958932525967,-4.952674951344661,7.878962115876151,10.547192051415763,18.62984417712874,40.614662785258155,53.09112412559611,52.76742970363182,57.37577393040933,59.1465421311896,44.150451369741916,21.616060553436412,0.5877581853440983,-20.209809568520413,-36.86044359218028,-44.74758814134001,-48.192579558459684,-51.959050459767425,-53.50248105161372,-49.383248381963696,-42.101034468496934,-34.65286412583644,-25.304298780915964,-15.224375983410809,-10.927666096423255,-11.949678165033028,-10.243712472816505,-6.075058615139149,-6.900974076372663,-10.007088125530945,-7.184651271952259,-2.8256387711415627,-4.250039970721144,-5.162290240462227,-1.3219356784130234,-1.5823042827805693,-7.375750315510075,-9.13807408125352,-5.421519805563012,-1.9627637571731142,-2.7537920622578724,-8.506234757330336,-12.350559130682495,-9.456011171664944,-6.942784655896546,-7.770077342909394,-6.859102245381493,-4.747242391828536,-2.3351855039279314,1.09009335001174,1.1123434201305944,-2.202282025284658,-2.835353932582379,0.3366633560047454,1.516250742222983,-8.45415512405662,-21.755333723479858,-13.84048016016812,4.208090159488229,-4.748175062830761,-30.421169177683616,-43.581756694649556,-53.200965088938204,-62.90498013228141,-65.53530430029578,-75.24461087731692,-83.57071352498417,-79.77261464162538,-92.20407852964755,-92.21405207763131,-0.0909514393341766,217.87919061842598,557.3954671199947,784.05375365729,439.62464537494566,-346.3463081617357,-718.3112363883828,-410.98876474888,-87.69534070658531,-66.44251762517727,-53.60064982306288,12.441965092584311,-2.1627178698365483,-20.64678410736007,8.738901290104415,10.043402366518427,-5.02059716456789,3.6580533088589773,6.609804298311656,-3.825324875741357,-8.494386481562643,-10.739640006882377,-10.9933002582587,-6.375034660964421,-4.497514050912121,-1.571430027024529,10.51125889277958,23.861600747412687,33.76649601702601,46.95923029974669,59.33026084154225,59.760224852834426,51.70030995103129,43.557821965453776,31.806401900676136,11.73440269097619,-11.18344859378296,-29.712749900028236,-43.04562527335138,-52.60359715461377,-54.708041534082895,-44.518973763123526,-28.66147238835218,-20.631714831298247,-21.123175222031946,-19.488955608091224,-10.797201562332717,2.486575000800734,12.712819192935862,8.200389238160515,-8.068014527986355,-13.644823403879183,-0.030969624670817097,12.426828448327864,5.637174644845739,-12.091658241347444,-19.883138815455005,-12.888123691354776,-5.937275304719774,-6.1973900768681105,-6.816287021780726,-8.196098946672585,-11.612619150015185,-8.328801780133194,-0.27936189454596594,1.3806219312972203,-1.6130033874780274,-3.8397185034696957,-4.8201067031610805,-1.5956347795772157,3.5114715279512865,3.8139877239348863,1.4293058918403663,0.04130981784845922,-1.8883037601576582,-5.606110507434131,-11.02296392338542,-14.159840499361204,-12.432218772186795,-12.470773718269552,-14.621121648580425,-10.405963699629481,-4.04890343373194,-4.634885203192965,-9.484277358505025,-14.55702460749644,-17.078524077087426,-10.584991462674287,7.133034409913579,26.561462426478492,26.692863270879492,-0.220343687665844,-29.322892627554324,-43.146800560880145,-52.382020076513825,-60.73365535321276,-68.00911649141835,-79.1712653367202,-88.61583539164934,-96.74351858412966,-90.81138094697961,-20.98571187749475,158.70765110546301,471.32891326484463,754.2800965868956,566.9652986612581,-151.20368816536785,-653.3347118675773,-458.5080713092755,-97.86375861170731,-50.201160195779515,-81.32101982276258,-17.10044087866126,1.8992236428147464,-17.28086071923756,3.3340772700786987,14.967684100028972,9.263344504721537,21.900269448016104,23.240285026503205,0.31426183182235334,-10.520815191320626,-2.8300086625374288,4.239705358153021,10.524466461666117,16.19718207380848,3.0787267210705895,-22.744932459455274,-21.56253266375163,8.747197651507705,29.697118384860282,36.49781650193317,45.33460815040318,48.5044475424039,43.2940071360341,38.281672067826264,26.692693396076713,5.428388788108392,-15.040832544948046,-31.19450312808709,-41.956352319524775,-44.062569173927486,-41.6669179596166,-39.2439383660116,-36.084531531275914,-31.141068088829023,-22.432437122511214,-11.731469626275548,-6.30630717627078,-6.938168118114845,-6.919533865816902,-2.459619168171792,4.533975012153973,8.153503252329067,5.750125896993165,4.277162819575871,7.064405031476937,5.75973250629867,0.0942133763071551,1.111007925968839,6.397131110941706,4.723211013730777,-0.34007586844853854,-1.8158855837569483,-2.4498324757740315,-1.0973188264247666,4.167969113956408,5.720982309151893,0.8964762893952152,-4.2153213535168845,-7.0483792114735415,-7.100453503265778,-6.358739587029342,-9.205194979995698,-11.012883158723243,-7.642195421168522,-6.358825290100382,-6.519348688529952,-0.9889818634865266,3.2075550728965743,0.9988853934481359,1.4979706979232985,7.0062119193849535,11.58543634652689,12.77934654406927,7.844297549016107,-2.834070393032368,-12.730337927196754,-18.16023763223536,-17.431247673647288,-9.882120541281848,-1.6170342466349688,1.3239383331253585,0.9095392088153078,2.309741440641366,4.375115464387027,-1.7575838408968156,-14.845267034836297,-18.32012801316875,-8.460183182353278,-0.9163565408975334,-4.738512027474616,-13.505821626247977,-15.036527588134403,-7.400317177669222,-0.8458511398041431,7.06567604725167,19.978285113957305,16.215152576540987,-9.258162502167995,-31.198067963964522,-45.4737104099921,-56.97580472724148,-61.062956819395524,-69.51554024775756,-81.13141553130929,-82.79751277122085,-87.8165732852199,-74.1725475693351,24.124548181178668,250.32084867219191,581.2319651877627,736.8467977185227,323.78090929814675,-397.0265906251169,-626.2008810993595,-283.69205652089295,-35.54197184658644,-66.84320801488235,-60.38536710443907,4.826203175387441,-2.5149331222899605,-12.4650721509017,12.966716001981858,15.31708956011442,8.458613132728182,13.02060824338937,3.6797543434200506,-10.37747670462816,-8.318662673516293,-3.474202020314261,-4.7442211332993,-5.118436845208638,-3.1001849005606976,3.163793542266296,16.33957770666028,29.167029491396427,36.15804083679063,44.47287511313489,58.3239839679341,65.97141301777151,54.760241533306235,33.512929686494516,21.2428568391021,13.555836394553683,-5.768882910397328,-26.314516911543972,-31.876576086053277,-33.88963862858478,-40.781617843100314,-41.16605138230655,-34.91302190988629,-28.732480182446267,-17.41961086524569,-2.8709688904809774,4.0959790602306825,2.5943799734175137,-4.552377851303994,-13.478305738688366,-15.129982497706678,-9.966585832936584,-6.323897856030285,-4.996909388546095,-5.468258582403642,-5.30630533294881,3.4425669333910585,13.328868858334298,9.125725631143522,-0.00563040065536935,-1.1660153419416641,-3.0064879438621617,-6.533161496920693,-2.1722494416092353,0.16141504283477381,-7.321622104476649,-9.868450174284053,-5.346070916287102,-5.452565045343903,-4.66991058193965,-0.04987239494673368,-2.47298607246854,-5.8936513314607595,-0.993688121388181,1.6959698129324385,1.2599823485103085,5.78498222255536,5.661367359666923,-0.4345243715150948,1.3102226344500352,3.2562207645254446,-6.078234188046599,-14.808577260633767,-17.29268509187264,-19.203540239560986,-15.547867796779187,-6.782364789947317,-3.942232324693169,-5.9202310127005155,-5.654434726238604,-3.486086306489576,-0.7773992409115404,1.7010800491571896,3.8571008025299074,5.555834422592859,3.3182065475964926,0.5822785115953559,3.550669291933355,2.1036007309115465,-10.470170449991498,-18.755330682435265,-15.857099561155467,-12.731729325757318,-11.615162457491925,-9.219789937070393,-8.617966634415229,-8.937164829435122,-6.6152877864350845,-1.229760719908585,10.749004117287683,25.34723273047258,24.11705078809438,2.1003827969630873,-25.38024231280306,-48.59514134550062,-62.27251776578425,-65.15018065490044,-70.0782164293815,-76.59479894126454,-77.19496698439248,-85.94524846752019,-81.49557072581845,2.8351567508570668,211.5457895174995,531.442302072992,726.0745056503199,395.74070829720654,-317.1576592497036,-643.2098143653666,-353.82746071195027,-61.160402139827085,-62.76849021467743,-71.98162951876768,-6.861616017479022,-2.892468218452102,-15.442707245987965,6.8643444840206,8.23773484467334,-1.4407334583129972,10.486531017923728,16.348964801970435,6.428250711159263,-0.6801055184085651,-2.8073216951464657,-2.4834593026434595,-0.06966528271812311,0.17114128108491267,-3.432488938305529,-4.498385301748085,7.057313813205218,26.68469874570862,39.86687997203972,48.43853635603086,54.72421358160829,48.386580795902304,37.79316337242456,36.97858792165367,31.9242495990542,12.557339374945037,-10.387019832433428,-31.730127261962764,-42.67830109621444,-34.83423270304779,-30.250814948772913,-43.869177773834224,-50.08322117185196,-37.072852083795354,-26.13289425908127,-20.480555290185016,-7.658303272277276,1.4928967110823983,-5.108771456837218,-11.343955969483442,-4.942644866347843,2.03834103555832,4.255254039278031,7.253547064191061,4.782102598820402,-4.57590994560516,-7.062748080769522,-2.314319601804227,-0.03590355430027259,1.8735895414903379,2.882553538974771,-1.700109882410624,-3.4898823377813617,0.3544422413207542,-1.6757622744093297,-7.293172730624994,-7.130938930843378,-8.917075873265915,-14.985716657844415,-11.776129327823032,-2.9655483566434544,-4.301428421555576,-9.962586309098374,-8.672357611224992,-4.384188134212291,1.7958380863308516,7.286997185344317,-2.4730262917064465,-21.453305326123875,-24.332060395750204,-14.263768317915567,-10.810365937576638,-9.956723420568704,-4.062178470626936,-0.7876157736334939,-1.8560027666754806,-1.8445246746302928,-3.116059312255535,-8.474687030304356,-11.613938888918614,-7.025221856635234,-1.7253844506864908,-3.681796543735061,-6.293421581556277,-4.153563555964345,-4.6248315146442405,-7.860949818563196,-6.694266498743016,-3.964439252946889,-2.7037788084681953,-0.35356729483327065,-0.3534431395974167,-5.502590944417433,-9.566718098234237,-6.330267071275406,3.0921231341472115,10.982382997667195,11.578904536089532,6.384477715895775,-4.829021961245489,-24.235540759294466,-44.58156507090011,-54.434715842370935,-57.12584332887384,-67.14278275774697,-79.13413859971769,-79.01880097115244,-82.0388627162358,-86.59879644896309,-40.73062305165737,105.38287076842565,390.2961462222736,696.9396357947471,602.538962095942,-48.51470849156492,-602.7072693499346,-493.08008969532636,-129.20381977377446,-41.17898585675173,-76.03465111308783,-24.580522096840824,1.2033953271270477,-17.96646535377976,-2.5705054819335036,10.158109077411972,0.14483387038708706,3.686123583794436,7.234444558440504,0.7499212584973911,2.9373760007827867,4.206119275515391,-4.150787116359112,-5.501777690579021,3.9454996533409687,11.650045533954449,15.666872290526094,25.622911295281348,37.06230164390925,33.25490436694646,25.414301397806693,36.38313461847217,47.77424855904049,36.506847880320485,23.180685253677453,22.511441316974803,13.312561906997004,-9.773861900902672,-24.0191446239478,-28.218041272459153,-43.59048753683434,-62.448801349950685,-57.19302676531142,-36.104258916252995,-25.274096046007628,-21.47098941641249,-17.093856068093956,-18.460966135035953,-18.054110547559414,-8.299939971285074,-1.8426542054211552,-2.306530914767322,-2.2897564489206736,-6.512020495354037,-13.477484650710036,-10.48369629039179,-3.7110504119946057,-6.216157360962015,-10.132219152933725,-7.419539505080248,-4.893276071593782,-4.296908526995924,-1.8220727027329993,0.04474764744525217,-0.6933702065836815,-4.520112255386628,-11.25212293690523,-11.744622754366153,-4.086697634284793,-5.223510407458297,-15.995593265055712,-15.795123253469221,-7.287071620363365,-7.2974229971350795,-8.059093615542155,-1.959733664276321,-1.0150780398731474,-5.05209604034061,-4.054557043953276,-2.586961084220505,-4.453930367153047,-5.302069780707788,-6.708948893827131,-8.437751017113712,-5.725508064475235,-2.3086654611092587,-2.672239470398466,-3.7679667578028795,-4.900557160603226,-6.74302425008328,-4.786381926242481,1.8503785148568221,5.231500323780586,2.334988462510511,2.640839361539152,8.978516068488492,9.300991855854615,2.845542798934571,-0.10025819674804026,-7.172184001765338,-23.384493442484292,-28.141727942888185,-17.695803167632853,-14.455577278612951,-19.006739749687046,-16.505915379205376,-6.352431787239766,10.246232427267955,24.961272864802186,18.247952846345797,-6.2910836721688685,-31.15259221930274,-52.54892517821133,-61.525764738160575,-57.20294870586331,-60.45124068647327,-68.04654241133413,-69.7180840289603,-77.58637292028722,-65.5455219904366,25.51554245744491,244.8530681834871,571.8925243343864,702.2968755121587,262.33471021703167,-432.7791840135494,-614.4998606229715,-269.92864763286747,-42.53000929352831,-73.40081344814357,-63.00184035882975,-3.5544911787756206,-9.221138007430149,-13.049338936519533,9.847878926095897,8.105994202753212,4.622269190356659,17.243403895547555,15.606307046641199,3.084646813707959,-3.2348808594768563,-10.182278230888901,-17.42249332179069,-15.385172206292179,-5.804705990214191,1.9671145879435263,4.315249733848687,10.153060938512475,25.133838117147807,39.76392313502096,49.002286060804735,54.407988857977465,49.83644855368519,37.79227086135876,29.843717330047298,20.73494430862404,2.7653318879025117,-16.73451342414881,-33.431563116566025,-44.828577922031045,-46.09079253593067,-44.498060499572084,-44.15921525842084,-38.24469076137883,-32.78825950539253,-31.655509442006995,-22.00271989379425,-7.326616578305526,-2.1225606023694805,-0.7708492807555931,2.750805666907274,2.659453713911942,3.179023221583625,12.259263522748547,20.7879059441403,12.576140681314357,-7.332568577695941,-13.149408690588235,0.44838144949871683,10.257797748990395,7.0689811809587235,-2.0276257557484545,-16.52168988223221,-25.136595994407035,-13.34595052689529,-1.3259568909317139,-12.710277090112921,-27.09300015426812,-21.25806439020993,-12.442264034848662,-14.995936999378873,-11.792593059375353,-0.2865521004929299,-1.8952235513305347,-12.923045162138541,-12.094116041773034,-4.643093037767546,-4.1221767530606,-4.1746437327601065,-0.5972838103569789,-0.923747982140183,-4.217517868866908,-3.408088647444796,-0.6235377751330073,-1.5699844239254688,-4.8654929267315925,-6.523969926011278,-6.643117926121491,-5.697329403393033,-2.588112648786219,0.47876510581466825,0.33116794843689235,-2.129280905416678,-4.962748302951702,-5.9065209296061205,-2.469248301780799,1.6182080923330968,0.06347813673511737,-4.724863468299915,-5.666133067160802,-2.6909857769145447,-1.75114140283085,-2.0427338733260205,6.718352884560434,21.680690896562105,20.60837640006166,0.3166275680833639,-18.239575037491456,-35.09323280072029,-58.27284702501382,-69.39523104238312,-66.97494096292898,-73.05516489568022,-79.25968483791316,-78.93497330285324,-84.2504119353283,-60.433064262406084,51.270048769497805,294.1682493063928,624.1732408952538,703.3124695547766,199.4789098266717,-481.61981702365426,-595.3609214270064,-231.56535031436846,-32.515787305479165,-75.4996361014962,-64.37327056117911,-10.46874732369821,-12.80643673906571,-10.95383990508352,1.9140581490722468,-9.1771477881706,-7.780071042327323,6.915303844069236,-0.29422382073897424,-9.329263059956876,-5.2526534638504,-8.76887983271513,-12.92146985924084,-4.578081291870314,0.6589952177204745,0.36547889387290344,8.669005893933544,20.895480609438863,29.207279731354973,39.493642945142824,50.04345380552403,51.25180023768668,46.22127242128299,42.94031968985102,36.46520836522296,19.501115561169065,-2.7393615405991802,-22.331455818821144,-36.91030476466478,-44.33713818328363,-46.026959348428925,-46.12460729910287,-41.50585571339234,-31.935151811792128,-26.536533615032557,-24.47636003090974,-16.816319322201505,-6.599296952717104,-1.1397065900494177,0.7537206127787286,2.359895252442712,3.7345548452560653,2.615907083126883,-1.1055878169452846,-3.3496332290333495,-3.2576359348004793,-2.132278024881213,1.004025063156332,1.255979471276948,-4.829523003267036,-7.160938743122447,-2.4979915128177286,-1.9104406466982446,-5.162858882149347,-4.161348341683507,-4.078662195412262,-9.861193370576336,-12.627381153113944,-7.578329082201275,-3.899694898013159,-6.397419150143365,-6.199037738690126,-0.607109312559091,1.070295153040318,-0.00021125385347708914,3.7587952675647567,6.361616193817253,4.039336268373462,2.7838140484548646,-0.5632616142170672,-7.356777408241898,-7.46685372991219,-1.1864103866113513,3.26294772732858,1.1370651225748976,-13.848881593406016,-30.926340080511405,-26.951897845312477,-12.712270207780577,-13.181531964006728,-17.029179611996508,-9.002595010400626,-3.040266137840547,-5.767422384985736,-5.07232823498318,-1.7796374636584673,-5.93288498959128,-11.773637014544075,-8.459464965357602,1.3060576385599791,12.398948667150439,21.87681574374275,20.126718889639996,3.9219571885596585,-20.105834053693545,-46.37394280681592,-60.900667738616576,-61.70078506029779,-72.62089418878539,-86.19315207090204,-82.10478502538182,-84.77082589603707,-80.88177438993915,-1.5650987156321605,192.36078221745936,505.0371739478761,728.3410079951559,433.64984633590905,-284.931822694024,-642.5765587218273,-368.0745065905927,-67.71306124901216,-57.65914234859598,-66.03876223537611,-10.160521527154671,-12.94550013674634,-25.619802019335772,-1.4235602530535214,4.280601206384649,-0.708294332228153,6.736479130082302,-0.12023036267174447,-13.080992158612581,-5.71215308404898,3.7256980070429906,-2.4739715721326423,-8.34059890397661,-4.356389784457897,-0.36370097734083773,4.640275933176868,19.214507273010163,33.979607871187895,41.300261765602514,52.456616512286935,62.160442185363706,50.76548697582996,33.82055521741677,35.93441656425738,34.07660658773531,3.5663391353968183,-28.817700786755225,-38.98663626805023,-41.275048340251566,-42.20683364018289,-37.137799503069914,-39.85754290838359,-53.331158243385076,-55.84607989793432,-41.35315570684913,-23.50994741656754,-12.209239515996117,-10.953759337626554,-11.87991783020161,-4.809715993915361,3.1713873700667943,5.952437412580103,8.410945503532865,6.322353887335231,-1.7239875990019353,-4.659232982284399,-2.4569022652705907,-0.0621199639190646,4.096837711530485,2.9362244512620013,-5.1248557153785494,-5.766863779594994,0.2380048908717427,0.9788770600920067,-0.34081797931161617,-1.1604084613190864,-6.803052080212753,-13.515171919895895,-15.388298029670366,-13.207905717845279,-9.224894282210307,-7.830867018389451,-9.84732894226898,-9.129112715980906,-5.23015967614079,-2.242173048979316,-0.4659338556018824,-2.8369962889513456,-9.032941716684247,-7.777660934485214,0.96905445045779,0.8524142719939629,-8.36419451243522,-9.906120424777143,-3.702106502116523,-2.319591279569236,-3.078058110507298,1.2023096247795504,1.7642791187682576,-6.046715490393208,-7.183841023002737,2.184586555040198,2.2030210670298196,-9.363692040351857,-8.886854736091577,7.016440571757272,18.378734334389463,18.266518404902868,9.408427261609306,-10.619538813895462,-38.7789241230082,-62.48591830498323,-70.55920397924274,-69.45788624516788,-74.52019420358226,-78.47701796059383,-77.18236521643507,-87.31440246529365,-80.00951928060303,7.248314210984404,215.35543664681995,542.0289069020653,738.7704827341875,389.1937573465258,-333.94169183888494,-641.6155485852337,-339.81083224512076,-54.606123353621996,-62.929759255693114,-79.09692974132723,-22.656271080768093,-13.33797082951412,-14.906549314740026,5.979246026607207,4.300664462662834,0.045313651543878564,13.899103119566277,16.262860860225025,9.061635267163492,6.0103541991198135,-2.760325192816108,-14.092069598451438,-18.479895584202065,-16.485344304296987,-6.997121035845989,2.4912617072551204,5.462900740915549,16.632267605520422,38.22270729329848,48.68985393183276,47.08162337487028,48.99304062486208,49.36342762081738,37.46475996096041,18.60979839140646,-0.955496307225963,-20.774840187953068,-37.642123323408,-48.0957742973722,-52.063126201969084,-49.49653088815607,-40.78932023099536,-30.440565751233198,-23.96209003309871,-21.026513533436937,-17.51766363540216,-11.33805644789667,-2.7182722172668257,4.413611486267735,6.4713722681275225,7.95896977368668,9.893906782182677,3.518033572127024,-9.161438551020016,-15.988754398833457,-15.32371228432452,-10.886247210151357,-5.541746689608569,-4.921557554306341,-6.779928981504153,-5.595326886883337,-6.383527596402457,-9.073678591306262,-6.312878663870055,-3.886782440060623,-7.702247452142627,-9.305364604532762,-7.116948903132528,-8.321858144484194,-7.514903877737391,1.5252946267828627,5.820103097641577,-2.691684888516937,-7.335914204559375,-0.3375040425949827,3.806373534448406,4.088585123806354,5.897318662305853,-3.644423020592269,-19.66050648529545,-17.81274003648155,-7.024700767585031,-6.51522362792765,-5.113477370842547,0.3969249804250605,-4.267377129637408,-13.308639694235694,-14.468383834558423,-11.320064924320995,-8.850702932664749,-7.999591700677014,-8.06105148671988,-7.7531500358130785,-10.242803463240326,-13.820740214258684,-8.121186295451004,9.035383546329133,25.365730524169223,24.50153614109776,3.6027881039127925,-22.712513352092408,-43.84257962497777,-56.7507222121931,-61.09505297723905,-68.11026470281584,-77.47070400821207,-79.26494873099116,-88.42895124082864,-90.39367664930901,-19.246155788376427,172.58150578002068,489.88059781353314,731.7659565114762,473.9890678560145,-234.4935586869143,-632.008885521263,-386.09094260800396,-74.3640840731607,-59.541542096661146,-77.28544660001364,-16.26245227547652,-9.113576222468573,-20.27590818320197,4.866919407613427,7.543490594201915,-5.6870735368190815,1.5538071324099016,3.58573371816529,-4.1265852258571005,-2.5944900481178053,-3.4437341675530586,-10.218464366253567,-7.6992979391694565,0.30881388518322195,3.735665927434682,8.063645019493663,18.73736751047714,31.99615999675736,44.18735791583786,54.20951707826219,59.18414168230985,54.64219175998798,40.823815599275676,26.32309205278768,16.60811218466448,3.7695043801801074,-17.311048446691775,-36.0630927141162,-45.032509980005344,-49.26342036743765,-48.80309968512716,-37.58132791699153,-21.176418713937416,-15.936280759653165,-26.759759953069548,-36.18971994776898,-27.58796753711072,-8.874087417210863,2.6783439580428983,-0.03846277847891599,-14.126330888019744,-23.374515053174072,-13.980859494747078,-1.2119006839117787,-2.859195506993963,-7.665453613105315,-5.085323711425627,-3.502343494108178,-5.038898570850408,-3.2945807137843417,0.39072510983917397,-0.06328808199418923,-6.016685049474582,-10.723431575338108,-6.71860348175716,1.6378624099029633,4.339929912924839,0.8819145962684924,-2.1372056248343263,-0.7743595575225726,3.962269782082183,6.7882432356490074,0.7825636790122079,-14.782371668867835,-29.622649914762665,-32.381805331595125,-23.046048912523023,-10.105620292730917,-2.978441020565004,-5.534294854314059,-10.220555960814135,-9.315358786738816,-5.743970906965474,-1.3351768048936439,3.551419954686766,1.8692412169653583,-5.685174197680508,-10.17239704614706,-10.13891441002039,-4.644526813444067,3.7292562585955515,1.629303767530196,-7.697625129992479,-8.196675862191482,-5.981374454042932,-8.869838763638807,-7.747523769597095,-2.7441398834590895,3.7744587315554696,14.61158208937409,16.114263858298955,1.312457403953747,-16.793491542826608,-37.650650191045166,-59.60235481495771,-70.49735020220601,-74.81303120824201,-74.60803052063869,-73.3886475857779,-87.56851651101569,-80.94057583439431,13.036891476453349,230.08674364692763,560.7599678924905,738.4983596461831,345.9225430840178,-389.11038384868345,-653.7058281519965,-323.0972970540046,-54.16903668152002,-65.68610244836194,-60.86607300842766,-4.990497036834441,-12.695385406144219,-15.68481930293462,12.644820597546822,9.839296724020222,-1.6932352351508113,7.554281670255682,10.583615647076527,7.513735135307213,10.67336922413855,6.258032120957244,-3.9269157139261344,-3.4448000877574603,2.0906994545836013,3.1549985768922513,6.851788315984199,13.18147128130852,13.23493929305201,15.898079872205209,31.636522906698055,47.02841420205754,50.598229336198,47.45362941136277,38.192539453555675,22.305255558876347,5.765388427093159,-12.272286591545107,-31.96954178434863,-44.99706600878499,-51.465458100275036,-55.42430142726596,-51.428939919724144,-40.00533283735288,-30.92615234601847,-25.226873960682898,-19.271917933064472,-15.121286361665987,-12.07337260823979,-5.358378251214951,1.8387086203745255,1.2006035244561915,-4.512713148533511,-3.987286784417986,3.013454836531835,6.357426337228024,3.1898135521271183,-2.054144724727342,-6.190714357090567,-6.456978937063635,-3.4329934289880786,-2.2859779373109728,-3.4828456375420664,-4.710843665631161,-7.8630817661055445,-9.565180478825988,-3.8254558535695757,0.008478035028634423,-6.649229936268135,-10.162349908243076,-2.371617611818447,4.581284641498309,7.43075562432248,7.619670415808352,-5.645132819166136,-25.175842389830322,-26.151661357941265,-12.872628558693341,-7.157109346733682,-8.100248540668318,-7.412707561077852,-8.228788690407676,-10.192622841268776,-6.642464905515988,2.155069020390785,6.870564243002315,2.883831239806673,0.08016515839507576,3.631980450912847,1.649826188741292,-5.291999874033124,-1.2015511124149167,3.8003118251883468,-11.091176838607499,-27.040770028271616,-20.05365390041042,-10.341087249006495,-15.512085031216275,-16.28747859736481,-4.056482786127182,8.453829932585908,17.810848172370918,17.831229995279436,-1.9503223730715753,-30.223224208192676,-49.00383606060275,-57.316797643697164,-63.87584320186907,-72.88143724446431,-78.38876263382454,-83.11504028620543,-91.81677281256374,-70.07685503991615,34.970419215504435,271.94263074287323,608.7898485750256,715.4280157172813,236.99501255960573,-457.7275032520961,-608.013798859654,-257.1517843912642,-45.682593274391195,-72.95421178354371,-50.60505921725568,1.8487451410391031,-12.32507758447484,-12.385792984097922,11.615461241259,7.046313830916083,3.4334221978624697,11.950068245824045,4.955211381064415,-3.74684471051577,-1.6818376332882945,-2.2476946232230803,-3.7982912643206808,-0.25691892138831074,3.9814106158022207,6.726601691966927,7.954865578264525,11.646444408100862,24.582684734647593,42.35774881440412,53.249997173928335,54.55102957504024,53.32471236645731,52.25332783542599,44.30627253858438,29.35122450740097,13.788987159126501,-9.614424907418263,-40.11828351160813,-53.00371976578252,-47.927045386841776,-49.956734002332304,-51.84042475564871,-38.389574956460564,-30.66428585161281,-38.99251481840296,-40.520270555887805,-27.833634153629895,-16.437826373387708,-14.52286901807783,-16.218773562794244,-10.582642503246532,1.1603665712502753,4.352723571061924,-1.634512157724469,-2.920020226935227,1.736344432441232,3.852522047012272,1.842775590477327,-1.3263221765962,-2.9530425578278603,-2.690946945724594,-3.5338862201257104,-5.93823871111692,-6.713497867997674,-5.241566860506547,-4.314417256109113,-6.249049717861066,-9.442440038350963,-8.705006030882153,-2.812758970141921,0.5113308264970211,-5.355068036491291,-13.752416356494699,-14.070159272263705,-7.6094894354546865,-1.286174107878912,0.4451748822326529,-6.141422348467893,-12.921783431551226,-6.182889506367066,3.550753908416892,-0.20814675894166434,-6.722825068097887,-6.21289078355678,-6.681763483873262,-6.900844479931989,-3.439751173900679,-3.136126675905409,-4.273697889165209,-4.220544043182326,-8.738668515942225,-10.241432648321913,-0.45364579961637386,5.589858190119149,-0.9705012033200084,-6.854020753339993,-7.667618499761986,-9.386148356203183,-6.894234683074664,2.910733181232957,13.00320853355927,23.332948863354577,29.065533090991245,13.019905244247456,-16.724257781778462,-32.96379365229977,-41.838111987197415,-64.33747259103579,-86.11408021698492,-86.95501183512826,-88.11372013498462,-107.85379776920776,-104.56529452531586,-32.062427937082646,138.3482586293852,450.1645332544148,727.7294723940724,511.9189414591416,-197.6086733669436,-642.2355440922074,-430.77191023024034,-99.0224900232896,-48.96801933463195,-59.298055220300014,-4.097032043841224,-2.3969277601094774,-23.425556557040892,1.8703282089984548,20.561796526533087,13.844071996112662,10.4894073715896,6.7125858362327815,2.328661167385686,4.037617223146325,3.471702048691465,-2.15649104394853,-9.072107740057115,-11.481334018542793,-5.105578513368453,1.6365793378447648,8.093263487449057,22.674026331946656,34.065210446144185,35.93999754383979,43.40501345341471,53.07284465873334,51.47216253267776,44.38988075385208,31.691649599081423,7.62289067562611,-14.523963265016071,-25.75321274225146,-33.690863066396645,-41.29875080951137,-46.81438956436436,-47.585215336153006,-41.05942913052255,-33.81109743595413,-29.3023524741535,-22.89130230884359,-19.633332234504643,-20.941653995803648,-14.66570502374861,-3.6287066294999626,0.20751163282388063,1.435204074039806,2.65535746767884,-2.29102054321228,-6.195365362745196,-1.020919850705301,4.419177239715811,2.9053767012273415,-1.7626422836616271,-4.380737875304268,-0.4913826269589947,5.485977531331711,-1.2094209708584778,-17.27879757339213,-20.09775769801338,-9.711054654625695,-4.018849063146208,-0.3068473664645506,4.178580207887347,-5.752643403477471,-22.66795723968688,-21.886230579983597,-8.663934533346952,-1.2518915445167416,-2.2267461196995377,-12.013351807694857,-24.192504512013507,-22.87441800528828,-10.982738820297927,-4.075085534323097,-3.947870303673646,-7.162017370548671,-10.937142503704207,-7.987288887984445,-0.5384625675412131,-0.09309860009134852,-6.895624025003963,-12.695326526891463,-13.909598266964458,-9.925935502532854,-2.580635767201091,2.3680300260497056,0.6686398187402762,-6.892449341134807,-13.95224951087678,-12.452860270011977,-4.400319036728481,-0.4762603321327177,-2.4457694461326156,-5.194912268370697,-10.650686733269609,-16.509765055873437,-11.173231338705222,3.8402950034057044,16.555716359951383,22.36065953795445,14.364074347458704,-10.82022530747077,-35.97103306606675,-46.85595458179965,-50.79267376443401,-60.70201051248615,-75.865383859879,-78.88978054886128,-73.75636363145317,-83.24371860985862,-74.20062726813752,16.743523958663843,227.94833934673272,550.0960388342486,716.8778401681993,329.82910192546814,-376.8235578851646,-626.4551813647176,-311.8837193247205,-52.49299341474245,-53.61012305093598,-53.21927856072648,-14.897405835262617,-20.682647699618656,-14.168838950695896,11.884226149067834,11.77776203986234,5.665691480707169,5.2552267704727935,-0.13906377979680862,-0.7809192616571341,0.880146992548509,-1.6081927113915508,-5.394225766602576,-17.550552767596262,-27.113122967635316,-12.69362295991631,8.612340032329797,17.074820500546522,26.214472624761633,41.10928572267457,52.64125856753009,62.18091536889111,64.32647390313036,50.78498637318039,33.55602404019865,18.228683748264245,-6.42819496473394,-32.31054838620152,-43.63497946343709,-49.61716135276119,-57.5378385017505,-55.82414044705278,-44.87453577376374,-36.99432466438224,-32.2513193408826,-25.783476491337836,-19.065026756785763,-14.692872465304525,-13.237153662855494,-11.262013772586151,-6.212970570239232,-3.5390473086182155,-3.70234494303282,1.3855193029769879,7.590160306050272,5.978141247615049,2.9847201613594017,2.0308603673283265,-2.8355415741010503,-4.324547899493261,2.6548078204680365,3.7577518480262704,-3.1977702997979414,-5.0980080351874815,-5.3560843715565785,-10.331682912139891,-11.609788570590677,-8.917334225258205,-9.958359699968668,-11.520129297757713,-10.16073550543683,-7.756870464534778,-2.911506401463633,1.7364537357771876,0.9213678528186513,-2.4368138395665877,-6.6963484343542525,-13.330319245238544,-15.160776969003258,-9.027441309141054,-6.368649443579709,-11.07930302952465,-11.764944752274708,-5.369380296453926,-1.4613492925429732,-2.2740971043594804,-2.030370776947075,-0.019902268852087346,1.7305718223641282,2.82440332741401,3.7100618388643696,7.433525860800186,8.800235625664314,-4.5199106564614056,-19.971816592725553,-14.34474634749484,-3.76044586491402,-12.126590850179483,-22.063366411241248,-17.49469603804587,-10.989949421341047,-7.0602590179785665,-4.538635723929895,-9.793410340230608,-14.583623775078715,-9.476955008855548,-1.2186053589453092,12.302910429934228,28.156850085828502,21.008369494755037,-8.026856924243205,-32.33601634555606,-49.71528447273592,-61.1350979877063,-61.79282635759702,-68.01950903841545,-80.85100939626582,-85.62923527150022,-88.99971526782872,-70.53416717084835,24.1038334830114,242.25576734442066,569.9797880108346,722.7745291969695,316.9283087609673,-381.94583226417416,-612.5988484947069,-301.56011138068163,-59.0665442319745,-66.53725822919773,-59.55316455088546,-9.285418652737391,-10.677547141061922,-12.98546184311692,5.662638267398297,7.3889588737134435,5.162863830797921,11.35644446860343,13.620006747775644,11.562260611189632,6.757714121354848,0.7526241895147363,-6.711835429369035,-18.060366032950117,-19.616463394007297,-8.407216626217647,-4.662804307178627,-2.737467674154832,15.9108657595859,36.47576850381218,44.468476064116636,48.33208387644599,49.05975071201779,46.24741292139044,45.452947710100105,35.387288559435,8.12449531485693,-17.443059686272377,-30.940582147323994,-41.87638354198734,-48.03495626091453,-43.782725112858955,-39.934539644014464,-41.04651916553494,-36.80866257784477,-26.436714792684114,-16.748031701361384,-5.868849080533831,1.8852634354838216,-7.702005739870515,-25.53119973616365,-25.04581916695963,-9.298933516750765,-0.9515313340331932,-1.1245988206308652,-1.786612677557578,-3.0162678792669197,-1.8205154104394072,1.4698152237284923,1.0054429573287766,-0.976415895691396,-2.927190200120771,-6.376409068559525,-5.227707038742166,0.29865594542854623,1.5193255143804674,-1.1969832299405976,-5.374546936240222,-10.29074815171521,-10.217914467664283,-6.180624397101221,-3.067836182244857,0.6831214902036145,-1.019693691691046,-12.666300791065662,-18.016153622423516,-8.621479621118358,0.018189468635705808,-1.1318651031085007,-5.469713438147446,-7.477684691768289,-5.687446228496691,-0.26584579572293254,5.0468235966209,5.420586320260853,2.047722280265509,-0.6137861132044105,-6.115420150619684,-16.051177481794554,-18.39051548282557,-11.573086642309416,-10.005032405254845,-11.98408431021328,-7.189935663102466,-2.415160337666645,-2.829509721577395,-2.7342590294156164,-3.0384810438797967,-4.29863940696006,-1.8194974737158986,1.5373223542571584,2.098341769903495,0.6488533505762799,-4.836370152118416,-10.61413787263985,-8.690528624868211,-1.9291325996866835,5.646232386595902,13.318110229862722,11.824228825972558,-2.364209760646088,-20.7015515322857,-40.05568544645646,-53.70619839278419,-55.90924551382092,-62.86244734107549,-74.87076014807252,-73.59689119346915,-76.52416148407477,-84.67749480936443,-38.90892821337667,112.9482277591571,402.1405935024605,697.8950562904422,579.0473718792833,-75.75387180970867,-606.209979908661,-491.08504313544813,-143.32326654078878,-48.901323754578925,-65.34868253760429,-18.213999107270062,-1.058084521079472,-14.286892046104203,5.693869951935544,16.799706034524142,4.883148583997965,3.389620648273385,0.18594777293361986,-11.990311747389615,-14.062825510351736,-9.8354984380889,-10.898401731578966,-14.177151756638866,-14.224858480639796,-8.367253157823903,1.931276310466557,13.466627864031274,25.445446354751304,36.2698910792771,46.615036266030764,57.609395576855064,60.486632563460624,49.374649193151306,36.12700042652085,28.980605112407805,16.054237064790236,-9.958832404797674,-34.62981940754777,-45.75934928254469,-49.342581383224825,-50.91869151248653,-48.25882303953543,-42.901043823860064,-35.38236917631987,-23.51771553258687,-13.570522547177909,-9.416477590031313,-5.332104039737697,-4.121112265487021,-10.121382946878981,-13.517820571738167,-10.195917605435662,-7.162390308704296,-4.606573413355964,-2.293370409524723,-2.68683715662282,-1.0565360831654136,3.336527117725872,4.406718250374695,2.791442157293533,0.8902485298225287,-1.3896291767849984,-2.8849136198030187,-5.31307051501139,-7.76843028540244,-5.693800626668789,-3.3675894639805346,-5.022968067706227,-6.341089907391748,-6.258584560796384,-4.87190922967438,-1.5396931164628231,-0.16835004193634617,0.8717259852476875,1.3892313527591877,-8.71768590337797,-21.676871027960697,-20.29425251212723,-12.707549902868426,-9.111825940710869,-6.79936125987701,-11.132932997672132,-17.17666078834121,-10.126404782317163,-3.0283861626797943,-8.621287718209288,-10.037386971941135,-4.226404225037999,-4.675803470984558,-4.4236151912372055,1.3796037314403087,-1.1422025414975678,-9.884698624605438,-9.125842799173695,-2.9833446470625304,-2.376025109224944,-2.765840989793766,-5.369422605406875,-19.912415266521563,-31.474710778273273,-20.420530516830816,-1.9811295044581314,8.191726090446291,14.745396018666534,8.677372762024666,-13.241081716105352,-30.205109384505135,-40.736546347421644,-53.999337311401746,-63.93815883328917,-73.42470381696421,-81.72326091000822,-84.88766106935206,-96.84987076125171,-91.19274380107281,-9.334260997452176,184.81355161871252,506.39328446825084,734.3259091557095,424.18941406777583,-309.5880926191188,-669.3362457771286,-397.29173205062625,-91.07098948738702,-56.96115339712868,-49.520342757816664,3.3252601444448118,-0.05981717832514022,-10.99789956788208,3.3113095707935436,-6.751494163521727,-23.201091562048084,-18.103049760560516,-17.774581112395833,-27.265849308775586,-27.320366665080975,-19.87851697193746,-15.93294704060419,-16.92593546925191,-17.79639648310367,-13.746701190833084,-3.438445508434615,12.223232878169446,27.518266890803332,35.0889319590848,38.187587945050126,44.56051740892152,51.46662315649698,54.6445181830251,54.0262629812375,38.169765445926814,-1.2902896868056857,-40.318454826595655,-54.034166031793156,-55.3026442983884,-61.232303535656115,-65.77676209858069,-64.57769789643827,-58.312014378427435,-42.18076380876066,-23.50830611201621,-18.625457701811776,-24.827988317826964,-26.270791448441507,-19.3443513227768,-11.287118301496449,-4.755447859834611,-0.12162527983518245,-2.158102348451699,-7.636651240812682,-5.635238572007253,-0.12120433426610688,-0.6972677774461609,-1.1745775898800872,2.2601123203579387,2.7691727834253825,0.5515923447491318,-3.8230832147869833,-11.910981590021379,-14.072099475935168,-7.963175167318152,-7.705032689191096,-13.521071816110808,-12.369364287327109,-6.5505497518867415,-6.217413246942744,-8.70401030340301,-6.850372206696456,-4.233511319956751,-6.231190932819015,-6.3381683766560855,-1.9816810061391514,-4.486839650242988,-11.350087155607007,-7.5307238649362525,-1.9298984161046349,-10.60913050366716,-22.139046540307103,-24.11973845651943,-24.947461012850425,-28.005137998667603,-25.20356749790383,-15.479414758879084,-3.109224066525048,9.6893291124783,15.85127723913529,6.985086342369268,-12.670316039987096,-35.12076565158607,-57.42573889807627,-70.92336265559666,-76.10764879457346,-84.75528997443273,-85.96815406620476,-79.06612757589409,-88.52330836777062,-77.24602964839542,35.23116371803815,292.5092537547047,645.3130127839787,761.8547980757106,261.44835537527155,-495.5190977727105,-682.7654797079527,-306.39151550325187,-60.10818377963042,-79.64098399862587,-56.821028752654314,-2.6771627518749455,-18.64596909323118,-16.346626644161315,14.037468432271208,9.26663536164224,-1.385600650648147,2.6544238035015084,-0.45090680636496927,-1.163235560495222,4.494463993317851,2.1938692285147496,-2.446778269437347,-4.398192785443284,-7.394899066295313,-6.123333323539454,-0.5958063282619177,4.740967947074249,16.13100399275123,33.567219208157184,46.57981184962826,53.5478391699895,56.81260937615378,53.784519834346085,42.56050481236433,20.93758205932135,-7.04606303788964,-27.300237433203954,-37.65741147989259,-47.32297112435097,-53.130965323209345,-50.01056724395712,-41.996398399259704,-29.29357437473289,-17.446405642678364,-19.58069598763286,-29.46007289333282,-29.41080331436621,-18.99178689166729,-8.030756010432288,-1.6992637502138237,0.36402996490792816,0.7018811327593095,-0.5778659145954617,0.15807360931551173,6.141305049713732,5.426170016815982,-5.51510532962452,-7.995816632413708,-1.53921810281045,-1.155813511895487,-0.40693964534193316,3.2028307115150962,-2.71672530437797,-8.67116497871042,-3.5919753462795807,-1.0718334145951935,-3.7844276885728334,-2.0391873020273428,-0.4319392380707212,-0.654301273535081,1.8668445092529717,3.1325107262242975,4.621345489429535,6.71464241086008,-3.178531017169826,-18.837671427967262,-19.112534388656623,-9.917982185469253,-7.331051663356613,-6.919321479100953,-2.3795725027271057,1.8853297373377922,1.022132286974892,-4.11379414225207,-5.205882453028327,1.1445160411659043,4.777867588528453,0.8483187111728014,-3.279111094884877,-4.577153677344341,-4.983604117393724,-3.5221774578128553,-1.575318269264712,-4.032601407379824,-8.979239592287296,-8.811827460295403,-4.675713804265308,0.12237383325284146,12.59111806207774,25.34239961989708,15.036335248395124,-11.793167596689617,-32.41463406180763,-49.108335736859175,-62.061757328064324,-64.14055334901028,-66.57941752669281,-72.24877598349435,-76.60690340288673,-82.68824424635304,-58.90669140035051,57.90318399985529,322.0160760739283,656.4315468686816,681.5130731850068,122.37576701667736,-522.3159516917037,-556.9329207259593,-187.48290366869497,-30.540293017903963,-76.56533842298003,-51.001373301026945,-5.541648058201069,-14.261398028056227,-8.583455543668634,5.742941967731706,0.3394207874387938,1.821986122454244,4.560778828641231,-1.8286169413836966,-0.4934616915874983,-0.4948830328177394,-10.218016586583287,-11.744740010668224,-5.08044424511533,-0.5853808182249192,7.368083880388753,19.31313546396221,29.309186229690575,40.64238643365992,54.08145906447921,63.495511386368484,66.974730164238,62.7579028230207,45.790212162330825,20.3234806142326,0.5494678513072845,-10.819413928050981,-26.899851865951945,-47.85205948129503,-55.38316748080398,-49.705002441968794,-49.87576816183699,-51.99531631106046,-41.24370573856996,-29.647475844047683,-27.759236993105922,-20.80739534099297,-7.851283717770848,-4.689830172714959,-6.05863658856773,-1.7021941329826547,-0.07169661491318635,-2.807395258949505,0.7220707110525861,8.140239207828206,8.372421757825098,2.1285470627436407,-0.5462422374145799,2.7213309423152197,4.697961630924347,3.9882573092832514,3.725057510681335,1.573764898990003,0.4302009097360946,3.370554166382248,-1.0688358728606335,-12.584696235059353,-13.511964859311465,-8.901337710776927,-12.991412640121489,-12.696490711837782,0.23101068418581328,6.005161221438542,-4.765457279847107,-16.18194490605134,-15.587766054082117,-8.142863618654005,-3.990359210554182,-3.956141648541726,-4.212910101531442,-5.039571896296815,-5.917411656574233,-5.095071805311413,-4.228483644715315,-3.5776966266869143,-2.3179238437801297,-2.2389112716491733,-3.0525095868011363,-3.1297488065631356,-2.2337274431186227,-0.3695210898116077,-0.9183225376986881,-4.338275696638226,-3.862154735070794,-1.6391091959111233,-5.048336714474072,-9.06069499663364,-9.800249314535478,-7.939984905524028,5.402815573884066,25.69960480817994,29.324357513808966,14.583355257049899,-4.351784662006289,-28.13444843658118,-51.05161618069074,-60.27646475906782,-63.96148644587793,-68.15820604896766,-73.16062717013462,-96.15429487987294,-114.58278746689415,-63.35442225118453,83.2680929791087,347.81940214076076,657.8494608737149,631.0030878020565,40.35508789383718,-555.6230655145163,-526.2342034562563,-162.4903752506626,-34.37925853568196,-71.99583071471332,-31.24031260218417,8.070147639680187,-5.923070113209928,6.251834403856879,21.025310260851214,8.829325000499605,13.739512150726604,19.18379490110857,-3.590968783111073,-14.366942020940613,-7.584942530456804,-16.426927376003192,-22.370776697088605,-8.677113659208054,-3.7541247859083224,-8.834598067886509,-0.8124079868583918,12.813388953560926,22.343579555504277,36.64677837141295,52.20235455276412,58.31052097156548,56.311524498767916,50.493846672570626,43.58750483674882,33.69591095478643,11.908256073424656,-18.419135223975367,-40.445342619420295,-51.40703892628055,-58.292210196389135,-56.321325770350754,-45.27960992587177,-39.379499824593196,-38.4432922221075,-28.866830833229322,-16.007672826394007,-11.307329090628638,-7.075706015587546,-0.6749074422779451,-2.763557034068608,-6.464274299257676,0.15060449656988162,6.293487322475025,4.982958345219579,4.753010828445139,2.1927917247859625,-6.556188250607896,-8.259460893498295,-0.6373777409042916,2.016211795953957,-3.5780287913124837,-9.286256995993707,-8.939534056881048,-3.067998290084338,-0.14887194462616904,-2.7055557821023513,-2.8483466348430806,-2.5649273561943318,-7.2974341500268896,-5.271894360785987,7.240276063161519,7.71143868661533,-11.177910521929986,-24.307957196038128,-18.859935482498056,-9.879038154641133,-6.125837393671532,-1.7998742366696447,2.300245129252687,0.716278625978271,-0.6907637896585168,4.92222789618162,6.20276639139435,-7.777183905162939,-20.346838941136504,-14.390989642015619,-5.4268685053938235,-9.94583997887728,-15.702145413408724,-11.840276437358717,-7.850978783209081,-9.725983349802851,-10.424756246430885,-5.450419071428751,-0.08931286695597862,-1.572019557166044,-8.667584884570054,-12.925236580775907,-9.875491263463628,-0.2357825202681152,14.153324499874687,23.482013866682337,15.321631970416991,-5.4123946971969366,-26.093288063479324,-43.967322228010296,-54.72342937338915,-59.5051675940753,-71.17501382252391,-81.23232344911116,-79.88806013671697,-85.33152709561034,-78.34342970304964,4.655615185830612,212.15502405041448,533.130821838178,715.3205894773623,370.3728249490839,-320.5991398402046,-613.1134465447193,-332.95751790336044,-64.33638740852373,-61.0882038190754,-63.72771616417215,-8.696299963062614,-6.968674851088672,-14.243504268383965,6.31791658637425,7.875786913614151,1.0377503321485317,5.3832258337262555,3.5029423939270554,2.109662353185211,5.06251745195624,-1.727681136820296,-7.1965542097276725,-1.2412449711959375,5.078644736594865,9.720515050589823,15.190409499472459,21.58969501023773,30.928178870749896,33.680079973132884,28.966096615224405,36.427935442967346,52.13437182499605,54.436255391664105,44.8927119542119,28.62280596938253,4.916143199732567,-16.021264000231348,-32.95133105929083,-49.68758337697247,-54.240307433400275,-47.864570199389846,-45.99360608359603,-43.399360410585025,-33.51552734598579,-26.283594130331764,-23.497605159338512,-20.148303937451768,-16.719338658570393,-12.010948462999767,-6.842122787163582,-4.997241890985393,-4.862235887699359,-5.112072201094877,-5.001376871081149,-0.02018957201666538,6.4550570574632005,4.669083988715917,-3.130302280810545,-6.4773569957735315,-4.217612755096148,-2.9648510735237856,-3.853875899863377,-3.535651327132074,-3.941814490296583,-6.151087734130641,-4.515042832415768,-0.6399506467441203,-2.0248645630403566,-5.219168097519255,-6.293442089578155,-9.641372501986321,-11.92802000174062,-8.873067256069449,-8.05881599123657,-10.492107659477771,-9.902351468980381,-9.105305832125799,-7.707374998098512,-1.6773378646140245,0.5271974092994398,-3.81192596196113,-4.515825647386285,-3.291675864854417,-4.902087147740504,-3.4896106468287744,-2.251312264362623,-6.725295070005606,-8.685649818093761,-6.717444522982473,-5.831737027124346,-0.7882389132797254,5.2177353482424484,2.163499982739717,-2.2628217043908734,-1.9497010483638846,-1.9716513444074808,6.035659306226272,24.643708428576097,31.115975163026953,16.893666295937816,-2.333253997335518,-22.621918008078442,-48.59181422231258,-69.89925598272846,-76.70084584615671,-79.40755601448276,-84.78209775382993,-82.365906629373,-80.99605244118874,-91.42888888982316,-70.8941382279027,34.98843958252017,263.8088310921252,586.6914968577651,696.132674303792,242.94216582668616,-436.4902689006447,-601.7587116727373,-263.0396481173422,-37.569708306182335,-56.17180909906345,-46.273650616362765,-0.6417885415222386,-10.783175682838177,-11.201419463507635,12.729407822824095,9.737511716126724,-0.48235462087234193,2.824250396516964,2.055178531888825,-2.2327741744767344,-2.90640821992738,-2.016738749054248,-1.5515289278971602,-6.860831561523668,-11.740743809039335,-2.479661657843348,13.113338239174585,22.94921708750033,31.83145199912274,40.185683529360965,42.76121837774064,45.5709266985496,52.09150090496759,52.13206810330823,39.13686554371059,18.99480509182943,-1.3407701917267199,-19.699807798977282,-33.55649092499216,-40.80872839580701,-44.34989303964043,-46.768657547664,-45.61890566751247,-37.61191544658184,-23.38714326500341,-11.744368351885939,-11.063107649748016,-12.841110816229635,-7.4347288439584425,-3.147600882342223,-3.0965422440797106,-0.01615337587354304,0.9167044252063334,-2.122997665467121,0.05649592996331876,0.8675188772654927,-6.127703844137203,-9.051544156818668,-7.154363642527503,-7.637780114490825,-4.252103204307398,3.615895964130033,7.2345090017876785,2.0333749673580677,-14.118416353686097,-28.838319859641608,-24.733650400264306,-13.250590062827623,-11.434586944873264,-12.42341362626277,-11.751075538770039,-12.695623923992684,-10.002082815684048,-3.8586933805267343,-1.32912775755163,-1.9773312371139014,-4.118059502799451,-6.4730211547406284,-4.823685978917634,-1.372726769485185,-1.4127553011618925,-3.2949809493426834,-5.038627723134036,-7.360062412436136,-7.193019578805117,-2.233788684283901,0.646387934113898,-5.740022987293566,-13.580672444610899,-11.50494928864212,-7.34425131985922,-11.732582788357211,-14.22453405619748,-5.807463906263743,5.697521490885626,15.57704827814161,19.95857822934458,9.849085393560207,-11.453749712511792,-34.60891327801347,-53.57522553960543,-60.71700155625201,-63.21130489928606,-70.6620824861964,-73.99794134361618,-79.22720293119491,-85.15022418124212,-41.356281534459356,100.31936543905655,370.04547947443984,667.7757881861133,603.3154951875404,-7.2150597306414,-574.3316961475548,-510.4356398085995,-148.8980165367036,-27.86304054955471,-54.723182224892014,-12.851872312233787,15.816666148977482,-7.7534295899003105,-12.678830938387549,-9.31103418698946,-13.857678445232803,-6.378669225304014,-2.7265572063476076,-8.17502038185584,-2.2889633847107422,3.1029405840298727,-3.3884773912312234,-4.684476902719696,0.6327865475251123,4.1308833960679445,11.589674021691113,18.78452093750873,16.985801503603888,17.750951922003004,30.97805459534863,48.32684424288566,56.832565442098215,48.606002746057996,31.231353705684924,19.55642399828673,9.843971582713033,-7.090969062960056,-23.418167108492682,-32.624695030142476,-39.76610252961511,-44.99502199010752,-43.144716043197405,-37.327997677132274,-37.346335883678975,-42.44144620342812,-39.91331632139142,-28.07804333905615,-18.220918469588405,-13.652795224616941,-11.555064718840562,-11.162017963966349,-7.8172897864726245,-0.5979801881595854,1.709744842682566,-1.6359516088162724,-0.9232709559464993,2.8555644690377413,-0.05457851151548354,-5.289045451653381,-1.1616476536697586,5.075660168965053,0.37184898911248965,-6.7351971127172305,-5.59640825152829,-3.3466436826769588,-4.027512527450929,-4.450909260009141,-7.305699561987282,-10.341554354691525,-7.509194313858394,-3.780833473944968,-2.8810299138525863,-0.6075564040661021,2.383447785782513,3.1202256229632184,0.6426082345918971,-4.880293472488216,-9.400904611643922,-14.852109715853581,-24.905258364002187,-25.400702525821295,-7.180841422756309,12.267875500731874,18.219667266891868,9.346760712361132,-14.755533032797361,-41.981718671812466,-53.18754625995517,-51.05462998490375,-56.304139478167926,-72.21438048364368,-79.58743674166828,-79.71753402772451,-82.96601938573632,-55.063617395389876,45.66108697898083,257.26596097824904,580.9416188935379,724.6617876926637,292.1403638071741,-423.3515792482369,-649.8406846940604,-342.60874605897214,-99.9144812150243,-72.80247970677509,-32.3995160305645,13.808769392289925,1.0395601110063808,-0.9999386617495922,10.377206971525617,3.240472273486791,5.2829322285805205,12.280158169318799,2.7818005943360786,-6.169594058329018,-7.441863719953739,-8.83027920232411,-8.545012454541974,-7.798783216527368,-6.310420798202768,-1.484326587168571,3.8856877380116916,15.28819865618282,36.76786518479388,54.18251475545932,58.88485411912861,57.946209779252236,55.15102151686668,51.01635406272763,44.785157962123314,27.807797923037892,-0.9261479770256313,-26.44612121420571,-40.34650351079319,-46.26697999561608,-46.096211748427194,-44.482082196553506,-47.03780647956617,-45.4324805461468,-32.36991103407093,-19.614187229640446,-16.694629669788608,-15.966590299104617,-11.208040479215938,-8.045358566374137,-11.088565414871574,-13.138468857806185,-7.176153237532832,-1.904667849510119,-3.238697443881419,0.3434655245059055,8.259406825212988,5.821124182411021,-0.5904083501740587,-0.808907485666742,-5.5029238713689,-13.155217373838154,-9.789420740778624,-5.0025810395268735,-9.714508773968529,-12.805069338864287,-11.087980549927053,-12.23495669470159,-11.452143347185295,-3.8979142500660586,1.1127582564938976,-4.146113605547981,-12.59208696573196,-12.084108352033132,-0.2581486545094531,18.25089597968563,31.026124164880166,14.267030257145862,-28.809366741499204,-57.29092357383487,-59.88373939854147,-61.606823479187895,-68.09366934828472,-76.24245936666797,-86.15544873118178,-90.11746054206401,-91.88529723680492,-79.0167387010739,-2.7275411604976654,191.34584730338688,526.1184183175028,774.2456187978918,475.47389716589794,-286.9839479424877,-699.3687034764556,-441.74969969786616,-112.66141498738345,-65.6117982992125,-53.938056098197585,10.375329844291151,13.33129718881861,1.5844018841595862,19.589155113923898,18.064181642269745,9.526505181468814,17.313364902201236,14.813690591384802,2.2653747232947765,-1.8591102608847727,-4.229951002921555,-8.396675366027909,-4.926769062138425,2.2537693345860035,3.2572171014481057,8.4900568958177,26.37338514501686,38.1440139893188,38.382698968848686,45.672179565501104,53.57918436783134,46.98165056604272,39.30606344169237,36.01245782118162,22.99941023459164,0.2482960777631975,-26.683097689358622,-53.85284758160743,-64.26045073824325,-52.52336477277151,-40.19091221896867,-38.83490910815243,-36.78658420777344,-27.893586689703717,-19.379564427447608,-13.6654249584994,-6.670965210039737,-1.3888443586728165,-1.7658230626827436,-0.8475822450698498,4.510452548265944,6.732608648818982,5.340004984098967,3.406005460663965,-2.7115699758869916,-7.477474167931042,-0.8273110745631014,8.194592823891128,8.040963173583812,5.699131859297047,6.501951951811202,5.349823134507002,5.8068012586727615,12.98330328222864,13.659564388152887,-2.8702325751927447,-20.172140458360175,-21.79029785735379,-17.327268656658013,-17.94351900558984,-19.662764423459343,-19.851969795810163,-16.69553455477292,-3.2657296426110136,12.14038875230674,8.318200336720473,-9.913859792773788,-18.230334438245606,-21.74595404582454,-37.53851529914142,-51.182579462205524,-55.664217458254655,-68.07251888380978,-81.60833496074655,-92.32823445800642,-109.29523988780791,-84.75702144824157,48.98603149248257,326.27793577784155,684.0634419691237,756.0044144757592,197.68708853040243,-531.9134020736578,-634.7098455914487,-242.7693445175529,-45.54631630018207,-85.82297860384742,-53.93986957762934,0.25784126619582537,-16.850672321396722,-14.024952328400317,8.895756586394803,1.3674447799803637,-2.584303564854432,5.641437060296504,4.568340964385342,3.228440495074432,-0.9191765645248067,-9.257608893170548,-4.04667000631245,4.480676501182951,2.42632905591194,6.779683146611257,21.02184000761953,31.808042585558745,41.078334557188526,48.47764514921481,49.05522177209428,49.77868723106157,48.986724180468144,38.41037778492483,24.82560803634575,9.083286914438876,-15.074822872927419,-35.212393849618415,-43.604516963647484,-48.8552498543806,-45.71650296014,-32.658921495911294,-28.23203818981866,-29.006185724482414,-17.889349029128667,-6.936108887840389,-5.358635971471582,-0.21346772602751507,1.2358906574766895,-12.562894270599589,-20.525125664279127,-11.110777366330053,-2.966186930295425,-1.7028706668418643,-0.15304309456026388,-0.780441108125471,-0.5690810205157018,4.626511538120274,4.84371202382181,-0.8828234046943315,-1.1208866032259284,0.36680311383111075,-4.802468391834108,-8.886522156044144,-6.420543794321182,-3.945843989640945,-2.620751769441446,0.032691114434741486,-0.18125756670154836,-1.7914379702525594,1.410159192084306,0.2230709590744926,-12.942542183809655,-20.780608248555048,-14.527127961856293,-12.198051499902098,-16.26708351714971,-7.591924571301872,13.789144997288545,27.09041504464989,18.37943939806932,-5.143360810171719,-24.209784872867353,-36.43613904485325,-49.70552540038275,-56.61460433521116,-59.29966815935454,-68.30550336016287,-72.05345282313536,-74.21279134709806,-83.12820613179639,-47.16898558137915,99.13200316344404,379.66861371705164,675.6327552691818,606.4468717789855,-4.103459248467644,-580.3531288385894,-528.6811359843987,-167.17057125258032,-43.37968239285919,-71.02076415675538,-25.895716566158562,9.207818619623076,-3.026856559140935,11.47231537965437,25.67981332768418,11.88786937870561,7.602739056642678,10.519679200221443,3.3789563849165374,-1.4354388100631494,-3.6083055789324923,-7.433577163941802,-4.415078259550379,1.471397112577332,4.507117599692927,13.917010346201973,24.952467827716987,21.923763913369438,18.605173983319943,35.65749208066739,55.1095097835829,55.02560759610994,48.03967731599211,44.67130352282186,32.344948071483586,8.42108199219777,-11.11897884625651,-20.804372278097073,-36.59732785264313,-62.6940777099082,-70.81165912805032,-49.957796123878644,-32.65809960798083,-31.098323076524387,-24.171674388721787,-17.613741006959884,-23.910806131672352,-21.456295994305542,-4.812517231918534,0.6508926842090688,-4.756277133187481,-3.4127072982125033,2.8719609291124977,11.185390013970933,19.887045291625782,15.87559667268794,4.914839839233188,8.531327986901605,17.232015911868825,11.590271983123227,3.312063707051564,2.340805838530521,-1.730265007956623,-6.744440146406605,-4.214916370768503,-1.4436677724478475,-4.273429876931949,-9.793935205137089,-15.32549257500583,-14.980912703476616,-6.378035160053113,4.1454246803657995,12.640643781721977,17.606358692704227,20.871244082468976,28.559318289477165,34.46057361731815,31.27186823710889,30.30518917682617,34.01759539054849,35.70863101015665,49.108229457652214,71.34944203954166,67.86778341271179,39.28828889864138,14.777150482994344,-9.977793028362541,-38.6629415302701,-47.859917280888666,-47.48250180069863,-62.57741803486012,-70.07359714683385,-61.417591113130655,-68.82636076639793,-66.8897242195145,9.137879284719702,202.49397838643526,524.6379721882744,738.9333841704956,424.1933161480676,-270.7750549540482,-589.4033018473823,-334.36512520436264,-79.77116014178893,-73.07113189815007,-62.15010599176705,-0.23200509003457626,2.965960359215103,-1.7103185891517731,18.03508366266593,17.659808283861178,8.488564908949154,0.14978953047966126,-16.203191351570272,-17.777640231390457,-10.221664175453622,-17.352498072285673,-20.04827848195713,-8.569573600485636,-1.0135334358774588,4.854811133745376,14.376011525846046,21.735158384859087,33.50574866725189,52.41714640714876,65.67235457585784,67.88785209111171,62.739761764062905,52.850123608732794,38.4335837157772,14.770106213427344,-18.23074222050603,-48.209240672068205,-64.05405981199449,-65.19001838717587,-58.403664812073515,-50.25846403175031,-37.467553181864155,-18.288385363014434,-5.2383952016351,-1.8130710181772356,4.8500561321071185,14.399777493216089,16.403785443078874,12.520885553808993,6.864928596093174,1.912523185177887,3.40088486045796,6.3359336278046285,2.440910394713682,-1.0317689065512288,-0.1688225316124412,-1.7017594267918028,-1.4130336401625385,4.792891519158905,7.790349010145359,7.487619892190381,9.610691615982056,7.944649110964686,5.435617844430318,14.639585363445438,23.608941752658698,14.913950748278879,4.111102059704844,9.517147351229132,18.805355286966947,20.269613419470645,23.818382427078927,31.042706730510346,27.963941029940088,16.637467946551144,11.137753833826226,5.166408333520808,-11.973085930154483,-26.589326585745432,-26.55300337826021,-19.151838624006288,-9.048541700230395,-6.144495274504603,-28.77214197555201,-61.259254163000776,-72.37322109409774,-71.21121435738743,-71.54504817553034,-65.86010414136513,-66.77615086589613,-78.31520090342144,-79.06750326417946,-81.2482667536498,-85.20728819340297,-36.930735305413336,104.4415626889683,370.91794742634045,650.9576711807842,538.7621413550993,-89.61453684136171,-599.0313339228187,-493.17637355399347,-164.20946695549085,-63.384854196505216,-62.69385763150309,-11.582792030543771,5.813108279004638,-7.697257050198246,4.887494140123513,12.914382981393624,8.562257843243973,14.261173310727813,12.915114283750945,-0.5010317620621532,-7.760670025529777,-11.20924469548476,-14.627207873605759,-12.728998680254811,-10.729522035217897,-10.20204005925068,-3.2781100591552015,8.420976992820368,20.559476423691017,32.88307995963444,38.40671566546227,35.90070415487397,37.211198639901845,42.91694972114124,41.68262736010706,30.07426357262206,10.237895221700601,-11.70138639263056,-26.004373603633745,-33.098120551994505,-37.52776720340468,-36.664206084005045,-31.863645973374496,-25.919322485787788,-16.409710310447878,-8.69159881648192,-7.902229176470707,-6.914093002612924,-4.848667522914198,-6.924838986133954,-7.53711966338799,-1.6895819490747446,4.38268392114094,1.9029675277154645,-7.913859468594257,-8.986900506465973,3.0708979126158145,9.433466538687863,7.566217130462677,7.262278320459784,-3.3747975296015245,-21.498549994870793,-19.773618549662956,-5.378436372395003,-2.7755667257884085,-3.9731585885214447,0.005040305086218666,0.17699266044274964,-3.952362993916882,-8.742649793981947,-13.511996036493361,-13.886265793309756,-11.872284420333077,-12.139236333922454,-10.804174597059333,-9.59019741634911,-15.430758749894256,-21.640159084435464,-17.81623418780819,-5.463658310259577,8.920062966159158,14.801689360845401,1.8566663405716852,-20.01783280036861,-33.73789879052755,-42.18148348930292,-51.848219075228556,-61.25424213886522,-69.22444427540886,-69.17229376610302,-67.1442955693804,-73.19520103658739,-53.83247732673398,27.549004147064338,200.40016779594578,482.49243265039087,632.8686539302769,271.59201229439884,-378.56258384394715,-614.668774942198,-353.2598844442325,-116.59977332060966,-65.09550732598727,-19.661467397561736,15.872015077911115,1.746512119362464,2.9907900036623616,12.181166230031282,1.467089658872247,2.070694705128563,7.691585976887907,-2.650424460087187,-10.58046445316888,-14.085211367530135,-19.97583742709776,-14.090474269748377,-3.6324380552649576,-6.234603699808346,-7.4164834410631215,3.6325421515539364,11.8934083834283,17.039433031023545,31.321027448978853,45.347993159987226,46.763871350228925,43.660377220532624,41.37148892806249,33.12662266850184,18.736456172122573,-0.8105474722161539,-31.726478737062173,-66.32195289176661,-82.04984090074379,-75.74619289697833,-67.97149964125516,-68.03098603575368,-64.15973090091379,-50.39762417820473,-34.58244753442297,-19.78265897378288,-7.262119380133669,-6.4397878812697655,-13.9741968205864,-14.948752611225316,-14.543108574777733,-18.835359871856916,-13.430309647583712,-4.696965207693417,-12.509947036514156,-19.685610014915703,-10.681381544566186,-7.296569209102479,-15.000144714288218,-16.832182425771528,-15.177776079297153,-15.186765597911695,-12.256042609765437,-10.712457838156958,-13.588996787520145,-17.46355898720602,-21.677743205204422,-20.288090595895277,-11.99203500181379,-10.65010663707784,-20.63181965620933,-29.86703320255352,-27.56645699348637,-14.307256047828837,-7.622028173380883,-19.940493635865977,-38.57569329622228,-53.73778689599426,-65.99847552660427,-72.9575689629356,-80.96277490193427,-87.10562745741959,-83.60424783421593,-92.13972799285492,-96.39351601453475,-27.16845127633784,144.7488540874317,426.9695149343622,687.552382244422,524.5444726710475,-146.76435260680535,-669.1050530644617,-566.9001159785153,-231.62147689130688,-97.1001213543635,-66.6506168944725,-19.903338484534743,-13.410975388953773,-22.714359161062212,-6.544411446362304,-3.263377457658386,-14.280536130961721,-16.808021903246953,-27.577174201342416,-41.983495569397405,-36.669662284980916,-31.155148694103488,-42.772964912570046,-46.76349233978661,-33.47000615439465,-20.212294353196413,-10.971553551781952,-6.773531815935712,-7.886217754545434,1.1652094001735662,18.115178474266436,26.324264276137825,32.96765374040871,35.20735312748391,13.958778474880262,-14.447721759744468,-32.14260123406859,-52.799499068888224,-71.40440973339527,-77.82011516268875,-87.22833423413721,-89.83143092172368,-68.59249725364413,-52.53519009030062,-54.53098577225596,-47.432325076659325,-36.48105890376118,-38.40136223718476,-33.690611124785576,-21.751845626089946,-27.85511243293095,-39.48205769355114,-34.31279253814846,-28.730776673414326,-33.16678705055297,-30.088430262423586,-19.44718438546208,-19.506606025902187,-28.39503840029407,-29.500905107820337,-21.38151547476445,-16.87081538175807,-19.70655195583697,-21.90802399992843,-22.70714496555935,-25.661240867587424,-24.334947697019786,-17.06590519374079,-15.042508986832296,-19.59016611932148,-19.656867402596326,-14.09428869310377,-19.857481354923827,-51.89619021638437,-88.32666477917219,-95.46904568351576,-91.35021720446159,-100.48419517545481,-100.65895000765842,-95.58775140843453,-100.28247152897589,-58.285826975795786,95.10876542702833,392.9221264092889,728.2102615003917,666.8957490477312,-19.126546212674924,-678.0975435498146,-627.131771947493,-223.27104196011598,-69.6475821510664,-73.10003544420942,-15.600458163193878,10.061119997768515,-11.716972167136952,2.5865245710987637,21.091199769308204,11.119396067108632,-5.034143011419317,-20.465194216803994,-24.56168739982929,-16.62687205229908,-18.683331595396663,-25.444378186745347,-21.523483478270517,-15.10614713118559,-9.900770520663466,0.18673873735031954,14.096546598487082,29.01521627288043,42.20554432434695,50.266098389489684,53.547877530810325,51.13854570798474,39.31546054337504,20.24464802909549,0.9048347737052893,-17.46559398349374,-36.79600682809689,-50.85024974993227,-53.742958987071944,-53.23088257319533,-55.57396070198276,-53.52410112263602,-44.32933732472618,-36.01620726565341,-31.06148113506655,-24.788254564674023,-16.945821034206134,-12.737550280743228,-13.226072921896272,-11.220081241805126,-4.403131800979615,-1.1318014701482468,-1.3639159184267804,4.049812939847161,11.68352660031546,13.944062396397758,12.38627344146256,3.1591319609336423,-14.689065911952731,-24.15532261145229,-20.457894181796643,-18.720886658409757,-17.948422978993182,-11.101271332331088,-11.752810318002549,-23.247882135587048,-25.32341660622855,-15.658174061648367,-10.368672767773642,-7.176025029443579,-1.0609518597274814,-5.648298555172804,-22.323686378176603,-38.36276762367592,-54.22394635426721,-67.79354161737838,-75.2877102825937,-85.6913844148151,-92.39235838813943,-92.57027513004795,-100.48440140759578,-77.13449867937902,49.25490155817829,326.76527428843144,706.026632440043,806.8517459939434,229.6667200400605,-570.202580059259,-705.4682801286332,-276.07887350015005,-46.58669258540928,-89.59402172474518,-56.9096546795504,4.090522013896162,-13.934299708309581,-8.050044967749585,17.357696982941178,0.330794228144601,-10.274537991714743,-0.060540144224332515,-2.762731868484252,-4.368768217069849,-1.6713728066429923,-11.531457894801944,-17.798832469868707,-9.841547320110571,-0.7986319342352197,7.539828736450307,17.57168806511342,25.745218912999864,33.95289671497934,43.20263797820351,51.22899899822815,56.11954614343704,49.89240965264129,32.14429490856833,18.168866708939653,8.140002283962081,-11.911065830321984,-33.197571487279546,-40.91744565075582,-42.82589414042821,-43.19686680658826,-37.664641293146914,-36.30382218584738,-40.81561740527395,-34.25502503167629,-20.514335564768874,-17.56680612350966,-17.713495630130062,-7.314124635895524,2.16787087220586,-2.3542169213871276,-10.625214257918973,-7.579074079671447,2.3087182323871627,6.236762333293838,4.801946346187508,3.0528568290091123,-0.7273421359847063,-3.54493167910276,-0.9436903413136672,1.8310652248207582,1.0736489139863519,-1.5067737034733373,-4.731163464492006,-5.0119626013748615,-4.876441905575527,-11.099581634715648,-17.41653317399284,-22.12579080058648,-32.31522457584493,-32.59215033787294,-12.159583109711264,6.151986872753604,11.928276867323321,12.407137002094412,2.8697741657289573,-9.716420701761477,-14.17532826052089,-21.59208798205883,-35.96258453648331,-52.93204284030408,-72.6673774977886,-84.3624494775815,-86.96862890066578,-77.79088407389074,-14.52627410897746,158.72925231186701,473.28966101175325,757.9029177442536,571.2955567865986,-136.43376908108866,-631.0255831615975,-447.7304670928374,-96.14822092808814,-37.513078932777006,-57.27323326135331,7.201462296005239,23.092085591667207,-1.0618945741089156,17.152133022230576,30.817972576523317,19.632653713799765,23.291663730383494,29.265513402493276,17.051227875105624,7.066942650908999,10.454981539200071,11.921838032526793,4.499666102760161,0.40163585773641586,3.7062844263020978,5.890330026971952,12.723683934022066,32.19166331647706,49.87686237787419,54.61620146784821,54.39321453631668,52.980674859656105,47.96499223805164,41.59682754075682,30.930675174034434,8.597658989653887,-19.121272685658745,-35.90837272185596,-38.274374969284175,-36.58285312750022,-34.91817874412153,-29.931857766542308,-24.075944242931158,-20.612618377047113,-15.807160602817934,-7.10217218967613,1.6433377804008882,5.401042921639978,5.089868906858129,6.696286030199868,9.876686443506316,10.000224821307638,10.408313314797912,13.001029269771383,11.941740299551565,8.241740680443662,6.255774222663706,4.002151490613112,2.035187785809099,-0.10282862910225754,-7.3711740471262255,-12.754902283959012,-6.649584673482162,0.7159566899310923,-1.5041278654230785,-4.5262904375742945,-0.8493246636700094,2.3463916583950697,2.751841797640998,7.697156192592439,10.814981610995712,-2.0936695884745102,-18.00176552945103,-12.998957019426342,1.468765558611039,1.5140256589212466,-5.111545257788639,-5.245355954993734,-7.018992742094428,-11.520615110178282,-8.228655545390101,-2.4318162986549012,-3.644434087190369,-5.680092688928239,-5.115298357516185,-6.959653271879301,-6.091759106433322,3.2214135181841943,12.680914884047251,14.984385731211152,9.072496615554542,-5.773449327660118,-22.069312010584227,-33.2242745576071,-43.63257744136614,-51.88997190362274,-57.448848866578814,-65.93206464953798,-66.77376867437918,-62.70834439855281,-73.06514829562293,-61.62959188251375,29.81569785282001,225.7307750776437,505.8837820620955,626.2754356123172,250.14836934789804,-378.6340181887657,-571.2908035494384,-270.51042765317266,-39.44622306982932,-42.91528214870605,-36.98249895267325,6.087443882467049,2.311232449479025,0.12404534362754127,15.751340229045216,12.493334572852483,8.144246686715713,12.000624792821647,3.9855497639524433,-7.264445379620636,-9.3000101658249,-9.639639295072609,-10.050017223325144,-7.34370414694224,-3.4661220414716087,2.1371098865575533,11.10902063796306,20.63526451789783,28.861757817923955,36.374253141375135,41.91669890628445,45.93393385479223,49.300219157679315,46.27395105267685,34.972917721549805,23.198526272854924,12.786666157854055,0.25548472107402986,-14.320052641735733,-32.90923628899871,-49.784659214296184,-48.6977153575662,-31.84762210467097,-17.355322620151888,-8.9596137297907,-0.8709957749853192,8.896769431265335,19.439334070060074,25.900023687522346,30.167923124066924,37.69387093668175,35.3967684108229,16.03348034871081,2.8090317301574643,5.861446721874724,7.159281103894049,4.006114101719845,6.252188432124797,8.356370181036532,5.988974066296716,6.139652978335441,8.931740172259396,9.400635333347381,9.73154462936413,12.395016927180365,13.570928189413515,13.04195051548956,17.286252476229397,23.683795676241324,21.262263235644326,13.609615488001161,11.507752734206946,9.200176584209682,2.0412044400291833,1.9318841698578169,9.842306334558721,12.55151937664088,11.263346706630436,13.878897940137389,15.503597834914757,13.303664459125862,13.677883077843234,15.417613185519322,11.672871938534279,6.115692974297758,6.420084875683685,8.324707248892906,5.400259062548297,4.924368556577836,11.372032618758702,11.594338944702283,0.6803002863526046,-4.866063386131682,4.873299133303547,23.476970026591047,40.68490152217635,41.37822563355789,19.66311077392175,-5.568790128741917,-20.856711050831542,-31.71286643420708,-37.23408545971365,-40.232432361235425,-49.97460185772587,-56.22051233382166,-57.53138180797112,-60.40297462801057,-27.240903901597207,84.5738640921836,297.6579206722979,571.0181197282852,610.7164165420801,136.81511270097081,-464.4892960752643,-536.2549735182126,-196.15962082991243,-19.527643417536307,-50.97094982857551,-32.99609929372643,10.770211197078702,1.3670294949154123,-0.9670042803388306,11.036794051600424,6.241614112804562,7.433302361920756,17.136093789431584,13.037936062011926,3.2996131975503076,0.4291823779666011,0.9303180567448734,3.493940918894065,8.717538637382294,12.41665710817658,12.463606470955785,14.54539006674758,23.937011846643475,36.894403130866664,46.96295022312954,50.835908669680634,48.76674473718113,46.45599392453632,46.10160512633865,39.919576691113214,24.722176652090095,6.817982627305978,-11.392515636654899,-30.09288824997809,-42.75887676100742,-43.537031967355276,-36.98081116953919,-31.52220321014771,-27.995906631132936,-22.09352303617345,-13.79097592597093,-5.670193412244941,1.1661974091258624,4.79906929471303,5.773700839585254,8.644203665965353,13.510353639360451,16.094806211132106,14.602831725514914,9.411675285638788,3.5153595868717016,0.5118734625926882,-1.524994138647584,-4.009340984244809,-3.579699756418819,-2.0489859714176584,-4.067476310210737,-5.613070800390418,-1.3728074233781533,3.1227572304426188,-0.14132508398301713,-6.148271404801941,-4.532886831368232,1.5715749264714187,5.830768110422904,11.005266422237636,11.254361289951405,1.091640340243316,-1.9846217480340171,7.358460080037857,8.389211346432827,1.5463312501224564,-2.4412758331166806,-15.371120837167012,-31.148789303252258,-24.967856991517706,-8.609710280108947,-5.1803433043758975,-6.811394750734817,-6.344137172441586,-8.560704789585069,-8.600393415730155,-4.884105627157044,-4.0398112767237855,-2.4776018267071906,7.510144350791965,22.29054071368027,27.97872204366421,15.64920190897839,-5.787777792341633,-25.922222828252313,-43.45896876006138,-52.03920539648371,-53.445141990970896,-58.16996308109581,-58.76189344993645,-59.0866111839409,-70.08723793895936,-50.88683424698174,47.13916209018829,253.6395140859604,543.168080410995,619.6162001327907,161.85642658796763,-465.26711162077913,-563.7951395012991,-216.6140519604606,-20.987715880307817,-47.330716156537896,-31.847469785001437,10.858714655642835,1.6541071057570989,2.7505506856486868,19.76851008505131,13.67395140253241,5.792370913348222,8.445165748036757,8.18184765922336,5.7335068892107035,-0.2878075392857693,-9.128718106484296,-10.171112291314845,-5.381481669418189,-0.883304805092954,6.985829484044901,17.297811027626626,24.609126505858516,30.13590968506779,38.02951132191616,47.998061856439385,52.56557971782516,46.961010874677726,39.4175117437833,34.17059873435735,22.715339681157314,5.190058197722157,-13.38119233081475,-36.48649391270252,-54.83935610701072,-53.559066780977474,-44.14986164518267,-38.87999694262861,-30.942555009083403,-26.544953395196174,-33.13597019192415,-33.16729609287306,-21.088036405255977,-12.816190346711881,-7.963058601766683,-0.23869616984009134,2.90745586581958,1.2447540259159098,2.357421423115307,4.590152145285554,4.604199111311951,3.8229973089184135,2.86029971269123,1.7758591561941355,0.7909976310020355,-0.502561695237155,-1.348588200363892,-1.3398700791177767,-4.103232734020846,-11.850892999106867,-16.198255888496675,-10.522590466171856,-5.628203985297597,-8.348721896495322,-8.334985539643323,-5.987620222309015,-9.74998780881597,-10.397322064702081,-3.6450648884535415,-2.085484269150312,-4.068484801193991,-1.4153139331092852,-1.1829099823687326,-4.220424688956098,-2.7361062071055207,-1.2151188076835755,-3.4353020903527502,-3.3024857340142972,-1.3310823123482063,-2.6428484101774767,-6.731023391362259,-10.54983396346811,-10.279291362741098,-3.9194970871966603,7.7042397125705815,22.275655156979266,27.72214050123394,13.71249489564087,-6.370143122927893,-20.721471433007828,-37.05844135505595,-53.019487691105425,-61.70488085490077,-65.99051710613278,-61.57499796292725,-59.921180735039115,-73.22392177940313,-55.97787582286302,36.88950503437012,227.9323083346966,512.1187927301647,621.2670954637348,200.45763822178284,-445.3521373886971,-591.8978355329241,-250.20853008527456,-25.937707398670895,-39.792918516703594,-26.265057720819925,17.76100500859478,8.118067045284686,7.873894229071091,25.994776338028974,19.88001537131209,12.085667542873212,6.776971427126954,-14.882283863816628,-25.87254419097672,-15.423038359472466,-12.40083273400162,-16.774183532261787,-12.187705207251538,-7.055814809122844,-6.598746289107572,-0.028214130885642508,12.984190759972478,23.616002194265565,30.85616530121344,37.05484774160009,40.11322374424196,38.92951806726816,35.46685480669074,26.670990701150643,8.677127176011505,-10.988494806359855,-24.148051547524545,-33.755296293283855,-40.85554648603768,-42.60747903195766,-41.9266701962057,-38.290638679907914,-29.34479919391727,-23.73531665468527,-23.723090461885427,-17.641930845546774,-7.588962989132947,-5.2126006991172815,-3.861502541900478,5.074006040846621,10.876183118496847,6.194137223182986,1.6729458741966265,5.010536755928171,9.008580389751707,5.090493150851967,-3.977163873920741,-9.168564354459832,-8.133896344779348,-5.333737046112065,-3.1021063740662136,-1.1658157727017908,0.7705393976302535,1.5872199423462412,-4.3640943952602065,-17.414065385212666,-24.148271962055414,-19.089506263960757,-15.193153659203084,-16.496615050719655,-13.360904801805798,-6.971346648943285,-4.819342027635077,-4.640573802227525,-3.8881811392261696,-6.073042824321767,-10.531043199863795,-10.893291437160158,-5.762651435208145,0.1775915595397528,8.035359088888471,18.41740242501078,16.56584581332614,-4.145121522029701,-25.1813308306145,-35.29756456432354,-40.51254872181528,-46.85931278460757,-60.134646256068564,-71.07769831374901,-66.26791058844164,-62.8185741168504,-60.99889065877345,-13.777897956014158,135.82125043435443,423.4416321350006,664.1502110469827,430.1440832849297,-252.5629120245789,-650.5978183742867,-414.7407941056824,-82.99391435243803,-34.495188380895044,-45.55981948026948,3.5888518792935358,3.8531876543663017,-12.236851090803196,8.335752111231592,13.528482754680969,3.2398074457749173,5.6851494901068405,3.013174400547612,-2.5564752899288354,0.7670739088115859,-0.7599411186558163,-4.588269159401112,-1.2855249429394506,1.1064874310311887,5.273020466142089,15.866917652022984,21.1758241153852,22.339005347214773,30.280396147982646,37.72428996585509,39.19043456668065,43.11882534022121,45.61539430574543,35.63301073030644,17.297182301385856,-3.646427682599011,-27.897696913771494,-46.6240466965887,-50.48483019200759,-47.35852825814497,-46.28822259006295,-44.49993486153119,-40.38931049752296,-33.634954194540924,-20.179766481940806,-6.942403507556794,-5.925445293007112,-8.685633675988905,-1.7880008508572551,6.950504208676167,8.012006219646233,6.351696658524739,4.819515441448747,1.505936026672952,-1.0066603281898807,0.5093760638736082,5.347816256612321,6.198585877830988,-3.4108926292604878,-12.63038733163594,-9.571680231462171,-4.732366444687527,-5.979023794629548,-4.269323503131282,-1.5249008091160032,-4.703768718611032,-2.7416417941302518,9.11221842531725,13.250917128923154,-0.03980309280374428,-18.134015337801387,-25.947105890565396,-21.376269544545096,-13.440195589989422,-12.079438031758698,-19.19063826601828,-26.813586426555663,-23.595021646328377,-6.33864602417748,15.341275644318836,26.67770995102818,20.146423182458914,1.6690380677834646,-18.64688609848504,-33.79475552199392,-37.508419129270926,-39.461148339948025,-56.91831935162682,-71.30536730507471,-67.3744112786051,-77.64322450628163,-89.78073510877637,-36.79342541051731,108.0958766280219,369.673473770729,644.3499035199328,526.5294496767208,-108.17512449347153,-608.4811704026627,-469.5286897484981,-116.00303313748636,-32.45272913767718,-63.78532633479517,-18.93488298618803,4.011419209419294,-14.314789363425831,-3.8327712699712855,9.920191873514858,5.053271880627223,5.499488577661353,4.576578167601708,-4.1275649413771145,-6.515672575396682,-4.399137344754991,-3.4372307685611956,-0.9391492423897931,2.1910791105158887,6.480450247509657,12.06331584076718,16.773284353813587,25.947961998710362,38.911416236472235,42.582443661825664,36.87943026896776,33.14066768685251,31.151593832312535,25.14531333873945,13.396593833324872,-4.3106309971518995,-22.22809926127104,-32.47727701793448,-35.31313737291864,-35.47139126395239,-36.129540205248226,-35.45553632055327,-29.01451325361853,-20.343676277542592,-13.144690896041322,-4.3199852165237225,-2.177130372889156,-12.909833406066742,-16.37792082580641,-4.767332236165162,0.20421089587114594,-4.531928462710107,-4.576710100109171,-2.698756684334514,-2.7029721487339184,-0.691443573606934,0.033200879080308,-0.4529435134782851,1.873534314528687,2.3185208138552067,-1.3525601045186075,-6.126409505148359,-11.693710782622496,-14.252308314502688,-12.41451072364141,-12.254935252996061,-11.60556161575299,-5.741635675098806,-1.5508464223077247,-2.309904988694683,-1.869810598831915,1.9203474685350947,7.102111582143257,7.418149755907493,-5.511651990030174,-23.800194080479105,-29.433974510014643,-20.981470766988252,-5.536775279524083,14.394950996170813,23.551909530104588,6.401061189817257,-20.112607011179133,-35.72456793876981,-45.939032380485116,-51.218188500604,-51.72961049287656,-62.57199815366681,-73.28624126198689,-70.7424797624376,-72.98350558346922,-58.42678129165414,29.973910671247296,230.3551081659744,531.912114357752,671.3722178636996,271.13626671564464,-413.2401011984034,-624.8448039459771,-298.0097671204065,-51.0062069036576,-54.230740480941584,-38.365360252360304,9.323310454344501,-4.892078999424562,-11.474575364326888,9.075057920039828,8.255897714753122,4.61586806661807,10.20719137485509,4.318440361753311,-2.93332598679371,0.3709917305823227,3.89829373498286,5.383331321155925,9.395814683686291,10.033635307121925,1.8655927469597684,-2.669613717525894,9.817388177513898,28.066172401753853,36.47209437756821,38.455130175407355,39.15057150888621,36.14264894722636,27.978649485218856,14.135699105543633,-2.5394191663334116,-17.95271215209625,-32.363366075524695,-41.295404988737964,-39.6399749023516,-35.59513394853343,-35.86048336417558,-34.608269029297205,-28.712094917676133,-20.56110370488902,-11.235244866361963,-2.8846861958888113,1.8454905156448156,0.7778247272703904,-5.644970172280821,-8.604520860114878,-2.4847200997470793,3.2645330863548754,1.1641574230927763,-2.9290054929492655,-4.590063826757103,-5.864753879276021,-5.691524673941103,-1.9945546694797986,0.8882711447258345,-1.6190645603625011,-6.106371468763886,-7.113002407297675,-3.739851802308724,1.0136820928935943,-0.5172560259960068,-10.569196486609858,-15.240327635853788,-7.134341660801448,-0.9162934329128891,-4.411446026324079,-7.802109772194035,-7.3798637953805954,-7.454330646666108,-9.778701011798383,-13.88162202912714,-14.54732136560082,-6.117608496484394,9.410453011985915,23.332288352700047,21.623402271408974,1.1717544884868323,-21.03524052854783,-37.24139553476816,-51.586282049076466,-58.5395519152579,-60.12652093268488,-61.92671643117643,-59.924228456290095,-65.52482234204511,-70.54661557914334,-24.05652020337073,116.13726957169779,388.90069242370095,676.8843079334621,555.81507739097,-102.09467547950626,-629.1801415674412,-502.55768017443324,-143.87883665285364,-41.75226507900176,-56.321432014218686,-14.617458612496733,-2.1894769246565744,-16.585690871897775,4.157394101383034,20.04515702911919,10.324379764599176,6.196655183255499,9.85953142324688,12.132351587716734,13.932714013106533,12.909366345273204,5.820886047073264,-8.700552110128452,-20.977086282478467,-15.063731558648684,2.5293626283235753,12.636157988133851,17.320302912091016,27.814215633901995,38.455681600397185,41.05166963777238,40.61513267975831,37.73795464670276,24.36768877579221,5.530990370457198,-6.729552129469623,-14.686177227375508,-25.340136530293616,-38.16696882633066,-49.57563813809192,-52.85205126694126,-44.67216391880879,-33.54386953407044,-26.216087520593064,-20.11776631017288,-14.850977309573192,-11.132487654454355,-5.323450854327593,2.263269808717256,6.278169867389541,6.075097835177249,5.324088488130496,3.863555237078276,-0.01433306485907515,-1.7690778783485186,1.2600001964890204,0.9703207776451599,-5.4195691140677535,-8.066751254482233,-4.950363492937601,-3.3086220544149256,-3.214160066672484,-3.1915106150833346,-6.1858810239095625,-9.701633536738209,-8.155130662783726,-2.7729910578371832,0.8994793647862185,0.06285083494640453,-4.0866134768180835,-9.755975889738682,-13.51400917269926,-9.940789838220152,-2.806418181048457,-3.043166578563726,-9.610806507959206,-13.121460115977406,-11.166007353029753,-6.408147753626173,-2.613433942184697,2.719740130139747,18.50400761345195,34.89075347253834,30.33869927346101,7.949539114224883,-19.519437157086877,-47.36652448531304,-64.07017124522089,-72.25661563057511,-84.08089043070413,-84.37574606550409,-78.66370855302195,-91.34166137370266,-77.4574026575819,18.409136495911923,216.42545979706054,521.0019481600923,680.9424517007346,295.1160924101903,-396.3715197119015,-620.1354363231223,-292.2164037917245,-39.56779258353893,-49.7962424420078,-42.89689914608209,9.760980563032476,3.2442417139975674,-2.800809983659113,14.151504707786163,4.876640183270238,-4.803514407031444,3.8733482857406543,0.02433482890054961,-7.985877087049907,-2.5920720198502565,-0.7275548228779343,-4.741077568955015,-2.0881928352024364,3.169035240395186,8.14892040938252,17.54697204634811,29.297695950581755,39.52993574325166,45.77394165021483,46.64935553632993,44.39589435154588,37.11143325618344,23.161690952805934,10.884909688084608,1.439140410365348,-14.295343088772583,-30.982883954855314,-36.17633409507942,-35.653592233554335,-41.151045556009215,-47.61657649228048,-43.40042153312789,-32.3841334920852,-27.31959034062183,-26.43259831059147,-19.23923077335643,-7.588212779670689,-0.18252285176819427,0.3848101563883297,-0.8617100633642458,4.362380345350385,11.127402861716776,6.8196540587635734,1.914565806500427,9.742484866874594,14.955579481127296,10.544641126191427,9.682379404159196,6.46352303549224,-6.289864518965581,-16.21819569299523,-24.15629938586322,-33.38778868177171,-29.59667951157922,-17.579222236807603,-14.506888118468392,-12.751049346830808,-6.484531713979468,-4.838208816900025,-3.7850948232790707,0.28489795131342355,-2.166418229262389,-8.48290047632616,-10.047794646487501,-11.181070626516266,-12.249067980737465,-8.272114135038102,-7.553452384900602,-15.16912798346152,-15.102481612134984,3.1054754871533916,22.931217855459202,23.383193683065528,4.670269670651774,-19.172205274010427,-38.4128622430369,-49.035125307056404,-53.60272094144388,-60.13408241513923,-64.59399694528076,-64.89243587676194,-76.7239557958722,-81.80665775555757,-33.344237378898335,95.5524398997481,353.43509814297414,650.0316124216112,568.4160885035276,-53.571462940423416,-589.2747127766149,-494.83361451631606,-140.74862755701565,-26.107751970635178,-48.07668208876376,-18.71511353038707,0.416386856772327,-6.766345137956179,2.9469483678757777,5.585894275305419,0.6616530904619369,9.439248495765119,11.742149305096383,1.989970965046167,-1.1417118278921112,0.1081227641670015,-1.3682194295806902,-1.738552441805558,1.2052260065835259,6.3657457247780975,11.841816244105578,18.836562193700424,30.59624036857155,43.35217417999147,48.917746206920455,43.231222871697625,31.819009706072386,26.593918512323807,26.221056479471258,19.06584431323824,7.834402273581511,-4.840821845278519,-28.23598713097282,-51.470491040174885,-52.821834280668966,-42.139876219982064,-41.36369654281549,-48.52187920078928,-49.93470311833644,-40.51515366193365,-26.146578012037132,-14.141324731658493,-5.001361448068625,-0.8869284103260107,-3.827020860453267,-4.39136373948039,1.413346315971781,4.061107452064684,2.97567335976591,3.6375418630670904,1.7583192059773562,-4.298891556169531,-7.33785441913523,-3.9428875518876243,0.935015013670986,-1.127383761177633,-9.540942523138305,-12.417773936305107,-7.783567507207085,-5.82370324167694,-7.54195773600078,-8.47253403848093,-9.30447616919449,-7.262104442394849,-1.4850023414894693,0.1392116996569417,-1.5291462342552276,0.3253423036552672,-1.437805582297326,-11.0043616843258,-14.344870302108896,-6.382305127138132,-1.1921181163232148,-6.12523494581005,-13.106982241105158,-13.164698854323436,-7.611960038576036,-5.975035285936494,-10.861215212640708,-12.183350316456401,-2.001005818319281,13.885397278880891,21.36174643958222,13.94992577749056,-3.7173428866961356,-28.77385790210221,-51.24116093953087,-54.13296284814123,-50.45918837033784,-58.70082648709593,-62.24120523553657,-66.35395921824474,-87.57490620108763,-73.04224790937556,40.07087602808534,281.4269804487064,596.884205291917,647.03409977397,131.60590664997414,-508.63287785163624,-574.4659940071269,-215.17316376610495,-31.920783015537182,-53.90934227535807,-25.314573344838713,14.095697999064996,0.23517413034792156,9.958226136339043,27.036564643086823,2.1601663993085687,-15.871143629974167,-5.913894119199837,-4.376644326054899,-9.349962210837962,-7.618470497364381,-10.40604903855964,-13.123659339007855,-4.811892048848617,4.556421756328758,9.170666674405371,15.113593939603533,23.16641181557468,32.630995339585226,42.271012970120125,47.65039363773467,49.05041526632948,45.933027410484215,34.46810424485783,19.02360911015246,3.759235219017242,-13.624250330365474,-28.48325901743708,-37.70473419703893,-48.206897889488005,-55.773997897141456,-49.25716955553385,-36.796409067677864,-31.687232713303146,-29.679356099271274,-23.301871622646807,-14.635403402313683,-6.64392207989405,-0.22441580837439545,2.775968160285311,2.207375882381708,0.5971554656280951,0.42073996428828764,2.6841909974807807,5.6830417464952765,5.534656631605717,1.0168852465854705,-3.6865991442235764,-3.6166910162164836,0.5209642797608751,3.4270796135902506,2.3416028509089166,-2.7833183022018257,-12.662005043941042,-21.437665547997486,-18.506588217620855,-8.754571747453644,-6.4377664146170925,-8.49683467475915,-6.4823027300821074,-6.50130683332919,-10.418410273923104,-10.263148029355015,-7.596410646305033,-7.066288541343418,-6.431403243486997,-5.626764703887936,-4.328974767134332,-0.34662252424586093,2.245811899403785,0.9237082661969431,-0.6752621057796784,-0.9691922861129889,-0.1687561996477953,-3.8092575611316715,-15.820723100126951,-17.07610155231999,4.299860411751515,17.46769776475342,1.591932659402877,-21.860382661878493,-39.67163228239161,-53.38546266095054,-58.32045993224988,-62.19592505004046,-67.78953176417161,-66.30857480059758,-73.47235522009828,-81.85042192811906,-36.66130971429908,103.10769186979242,374.75714733489303,664.5946237901915,554.4324787046986,-86.61067311908603,-603.923411353278,-477.0937665059188,-122.06807061594644,-28.01464124149682,-49.07378544155149,-7.195999906487643,1.3438157161002664,-20.222955769850167,-0.5013689021655434,12.180712387977241,-1.8352406909486199,-0.004580412092002106,6.773432448333738,2.0178682600560647,0.7531705163608606,-1.4861090261099426,-6.755847817152007,-0.48430424084067436,8.749182757007858,11.542299336948394,21.20863108283946,33.809176859481305,35.67255517430861,39.05507508604461,47.19413359724975,39.97124002500668,23.036265287449375,18.77731269884922,20.0778482101171,9.534402092806527,-10.482179102187478,-29.85202424576526,-41.95906592159163,-47.02601493090309,-50.5209458550116,-49.1858470170837,-38.354648091402574,-29.31340353959316,-28.930891020739303,-24.964915988974916,-14.384499815629002,-8.15816694834734,-4.370964191645124,2.149121918024001,4.365572764926085,4.65436985889936,10.552415730787155,12.667918199847925,9.497373988034594,10.997308639298152,3.744682310372122,-17.526043562283725,-22.04934788768566,-7.374411693394192,-5.818915351407686,-13.820757618635799,-11.888309347709573,-9.374218758296596,-8.951829546542246,-3.29039850729389,-3.8232486644932244,-10.805310114349165,-8.673000055205664,-5.0049949670981775,-9.363455837364079,-8.641042678879828,-2.5562852434569105,-5.160071381940444,-10.341506825914603,-7.51826978054196,-3.675074012131846,-2.8014581697152856,-1.523525072194218,-3.7388457915970363,-8.45130350844632,-6.735698876434327,-1.8798083924817899,-1.5155889100178292,-4.065636860725828,-10.296583674465122,-17.914145880131123,-14.589805058224487,1.3407555628800054,19.731672166388385,30.220205973206994,20.055126109386677,-8.721357407248147,-32.97990715223828,-39.303764643412684,-37.73072853411057,-49.22220966184731,-74.42109246708688,-84.12635208273183,-78.12252053207774,-79.25179900063287,-55.51368756027259,51.18417888029501,285.7467618527878,593.6441240568204,625.426753505282,98.06359033206452,-525.4810539149079,-566.7160861956495,-205.73193784109492,-32.110139482605376,-55.779219883636834,-25.879548730210345,16.112460082769914,1.4994530714213,-2.1323376371363967,12.872992289462417,13.44943484219446,13.214959096899328,17.697160445116545,12.689225473498398,-0.6347490269511606,-10.073052471713135,-10.862060238067077,-10.159091836866192,-10.522768513418473,-7.169438489917278,-2.178946587779877,5.447387189604744,20.949924821634696,36.77256534127203,44.133855217983516,43.928877611676675,38.293243725263814,33.02660688775278,32.24551551910021,27.472991015409985,9.42368867910362,-19.580203837115732,-46.15607389667729,-57.1354239211482,-55.40213827799606,-50.06647710192344,-43.30147162334704,-41.28732428252801,-45.258353435269406,-40.656210622130395,-24.993801355058658,-11.990858727235516,-5.5861910739966305,-4.671547876294856,-8.267156535186402,-6.4687318441806205,3.763893110772621,10.419631094400394,6.8055161470717,-1.4020205006308473,-5.887768976096066,-4.019569155551071,0.6156928436702902,5.6695110398094535,6.275852986016641,-4.998920018595136,-19.411148712004717,-23.66237300371674,-24.2181754803863,-24.986033445929458,-18.978160158855015,-14.941729086479661,-19.827097211928947,-19.54026620249826,-11.342621250294592,-7.158320672354666,-7.170320873699708,-8.04407965376916,-9.777285494596391,-9.828943069252901,-10.647356400199783,-11.892990817644005,-7.225989434887353,-4.726505040275637,-11.201503556155828,-12.622313776655723,-7.290589279816778,-10.696756738058859,-18.948703212912406,-16.452851685930383,-1.0871359060500172,15.375508675084562,14.042794543611127,-7.096638043959203,-28.302993134074175,-42.28821570282193,-53.08302258954778,-59.51092728734117,-65.60890490778245,-72.09875792290508,-80.41990140834596,-95.00224868179018,-81.74750185601962,4.3495481738640365,195.61683017470114,505.667920484923,692.707334548396,340.4459407567514,-366.75687714730026,-656.8135669457483,-363.05543429924955,-78.05534503034187,-49.258304876533415,-38.894676806593836,3.9868805804393617,-2.8604350361797657,-4.694321378949475,15.477923760888725,5.178289449645334,-13.898179476879518,-10.291728085300754,-4.181210922073856,-6.957424731056157,-12.265860373571712,-15.743177132483133,-13.634898048566905,-9.011242866958252,-5.046451075442269,2.559919181624437,15.29205119528125,27.45990663302898,29.50329722360952,22.094601501618776,22.824962930954417,34.73945174286879,38.29417149815533,30.072824592691486,20.51841933443679,6.3797816243769105,-13.96697444602287,-31.062604181655527,-41.95979024897417,-50.02937679297402,-55.982325874173604,-55.70237785260509,-45.953651117923556,-36.25730232180901,-34.69663427142483,-30.948180253503548,-20.868650858088813,-15.093467604098002,-12.419564028255571,-5.883446794262838,-0.7285876258935922,-0.019041867655857914,1.066047555038324,2.6518766272771117,1.7849515631308677,-0.033328227983506764,0.4758737925049452,1.564996291200778,-0.4232767692154624,-2.219215605865479,-3.268927532401051,-11.952272987137945,-22.86247202758279,-20.537679196776825,-12.752693111736484,-14.607201763802344,-18.000576802287192,-14.498861851945307,-10.901154195411529,-10.50598091744812,-11.944222006158029,-14.08805926482895,-14.118355889375827,-14.432990040268223,-17.16988464624248,-16.316131066356764,-7.624941603501096,6.257055196467199,11.565732003803355,-8.30307883269801,-42.32474321594471,-63.34206148903881,-66.40857997332897,-65.63569034275116,-73.26184445207709,-80.78414589981024,-75.53973926573317,-76.24197776612111,-75.54135399818131,-14.295207253993553,146.60578364428096,435.91431503215205,718.747417264714,545.4815939657674,-178.83472727326796,-706.2630660450297,-531.6561714526912,-161.42491873136728,-64.82504498793095,-51.444671715391905,8.541524435934463,8.289188883239426,-6.386748024487797,19.4345453283602,23.008537299332353,11.238659003580338,15.579679940055076,7.854441268719677,-6.995578935103978,-8.081073122382017,-10.830115531627186,-15.664309251559196,-11.202726501995254,-7.106961964046569,-5.322902970860523,4.099257979110995,18.005564775599947,29.398237805032927,39.287871316689404,47.48632858542093,49.562398473097005,45.10690764118761,39.33876425378879,31.969004806759877,14.078587887651555,-15.582836689960478,-43.27192218649216,-56.049513815242456,-54.74644770266739,-49.74364996714594,-48.28447789530568,-46.74570551071101,-39.99037262863501,-32.102166832044425,-26.1710314792422,-17.48221906883567,-7.466750890476529,-3.7243263870370704,-3.6570583651670674,0.11839528239462993,5.2152579385892395,6.831477858242026,6.615540095442903,6.130292303608579,4.952858285744719,5.142969079008577,7.141262955485826,7.765759098590493,5.791792233520285,-1.2931078215169105,-15.797447324723375,-24.536233581880374,-13.752884171046091,0.6292214703850174,-0.6189020121450639,-5.686305042021427,-2.722221287197753,-0.6599257306634776,-2.018448643442273,-4.5568595157141445,-14.484446882639332,-25.713573614292763,-24.19016313544209,-12.856567493039648,1.2588667964487028,13.494258773545546,11.048778237427094,-6.008094792174686,-23.02876916228037,-37.035928350025344,-46.005171434297,-49.59463459012471,-60.650113431066345,-71.89467903916457,-73.41261053568194,-80.73181522106825,-66.30505287329319,35.39725092748125,263.944864993561,591.4987732080533,729.4000618411048,294.20380231500883,-426.65742953012676,-638.1257518979427,-287.3556407783899,-35.9462403760205,-53.78685378336168,-39.79285154976709,17.90571983854427,4.271265012649977,-11.23119569176857,3.850226906267433,5.354016241640773,5.992279560415256,12.839746801566069,8.260388960732334,2.585230203873107,2.989676896428096,3.7590790043205633,7.462530605969961,13.024286704957678,16.28536395287356,17.702757553416355,19.06768835437988,24.300143027420077,33.255422523922086,42.48877081649151,51.565137640600625,53.30101801647028,42.103954643246766,29.634313505343993,22.15715204804553,9.911679220388223,-8.292437871561594,-23.93304461424114,-33.222139343913874,-35.67914045414452,-32.91897523500883,-26.463965684364435,-17.343010962739733,-12.87183251383314,-15.530476399191521,-14.670288251137865,-6.127779197623245,3.7334748440775396,10.052682253621578,7.79175278077151,0.4218376624404967,3.199838808598826,17.1537332266004,26.089881841771025,19.93765545113798,1.7959357948856276,-12.829717342602331,-10.885622853034334,-2.31001129073441,0.37928989258662926,1.4235686539329704,1.1947391447712954,-3.516153299184335,-4.670388071404168,0.5163801075006842,4.398962822701471,4.5819583109028,2.1745044572408565,-1.0056065650844732,-0.7031116828291686,2.6212796061399386,5.0262633702726776,3.2823999601764453,-4.395166176083158,-8.853976461264976,1.8346322402372373,19.07268286215256,24.16399662312017,13.356330815926889,-5.450431417215152,-26.10598276972761,-42.837670915040064,-47.95891689220837,-48.14242601802515,-59.43207167067375,-70.83668181391194,-69.99837342220178,-75.36689012327776,-68.77973155161288,7.258793866364201,186.87469230171888,478.95852985208205,692.9289428449214,423.1309979174565,-263.14709568691876,-631.1337353878552,-383.6869339515292,-73.72048267692222,-39.39686107140506,-45.25216009763762,7.9454427825130125,9.378571640669819,-5.747003562552956,12.288070184353089,19.111568549831187,16.12356327867049,20.803362669594353,14.221406601731601,2.0630229560497813,-3.4985261680941644,-8.682400761865694,-6.1716224527925645,5.395191478839111,12.396387771096581,17.514101190328482,22.086753915871174,19.386794907283512,25.328298071178615,47.11837834109633,55.149167465117266,40.725814136586074,31.89268242347776,33.290884244979516,25.092808235707405,6.631409803298737,-12.488923878442822,-32.16342078558217,-48.204049538475324,-52.163885862162225,-47.9230827775931,-43.440868163536685,-36.53729490278287,-27.77969862975223,-24.956030806350654,-22.266443257052465,-9.826020419964719,0.638872774651702,0.3284708260962663,2.568555258101675,8.822068654332433,6.5960168776835335,