ECG,-5.0545177960372225,-2.160542484980496,1.797598526409093,3.66845123183624,0.4302972115921744,-9.102500736801746,-16.04065509011785,-3.5295472402259813,20.488559264102403,24.992176843083975,5.594206682032637,-16.617409208405245,-35.41739881703853,-52.396425395604396,-64.74816854926586,-74.94675393228215,-79.79640420439858,-80.60195446383565,-90.27375544571535,-83.76763835572709,-17.816989779765642,129.49125275859737,393.45936714379,642.1377178799423,472.9198741806415,-158.44818140052934,-591.1797727840465,-422.04013569095025,-100.64298399896433,-32.247534939448386,-48.17468000997216,-5.431061176142414,6.410686327648506,-5.473863942315642,9.057400914554663,12.131992244209146,1.3705670001795731,5.229689248210271,7.056847625794429,2.94461735599355,5.592503110605358,0.6567782809932936,-11.355506155874046,-8.351442447126194,2.4386542302112892,3.1534337290684507,1.7741517467433958,8.384545828731685,18.814328649453962,30.334690958979742,42.51379401927606,50.150985434699585,49.37918541202929,43.41014727922623,38.186575488025696,32.98373367138979,20.007954998892444,-2.8307969489229254,-27.78084894978031,-46.72095359499113,-54.885019196047466,-51.632763877518386,-44.246602288813946,-41.36101721493393,-40.98534772178956,-34.43111136020677,-21.53048436514817,-10.108959477440706,-1.5763188483853856,5.500059407368948,6.790911364856884,5.978835438010487,11.620173197331479,15.981669433403459,13.690985418597565,15.556035641870047,17.126732413127762,6.337708500767126,-3.7955173038846794,-4.2918551168294865,-9.320624630305797,-20.322323648538212,-27.438197778972576,-32.83963612968334,-33.663042108010856,-23.051438953559263,-13.29215346428964,-14.346572159870174,-14.880884627690119,-10.5775943252936,-9.624699403663428,-8.47611749485068,-2.8958701140813616,-2.17310474579174,-6.513290580266688,-5.724278402501051,-3.1127149582091604,-4.702052649084576,-4.454060016510827,-2.1986229453722856,-5.13116604381235,-9.950543912975132,-10.499977163061864,-9.976343624772696,-11.514398650982976,-10.12978209975332,2.4162356206442723,22.83190625251767,27.996193963206576,4.7861157511726145,-24.201767426424922,-38.75794257938407,-47.48354768326894,-54.99929442031882,-59.19680456462871,-65.1985733401219,-67.8926171059782,-69.22510199255015,-75.78090605460717,-52.49864854743328,37.1440776362419,219.286450880493,499.01427246266053,625.5719733177991,238.61205851828646,-406.5461574974812,-604.1942390126335,-302.65092979391517,-61.240833441426744,-40.60160313878354,-19.1234292042243,18.493384290705514,6.628061241603461,5.181146056077439,21.393247854557885,12.936825793310465,2.443191717134879,4.6392216152506105,2.0764424470548386,0.9685550885748837,4.442377381811325,0.18839754008255793,-5.904243309161794,-2.499697822259874,6.420651335489826,10.248992405406446,5.217474492679302,5.531806791154179,23.168373529921816,43.20685890709357,53.543426591328526,57.509351512828516,46.420838144933924,23.695956060450452,15.534129139396342,13.989325020677308,-6.97491322076573,-31.315519167523263,-40.17685811918665,-46.319844716947756,-51.43589891784391,-47.069954207884074,-41.73394493162377,-39.288194445788996,-32.16297206545212,-20.961125244374273,-10.408263479970628,-2.298901706638752,3.1632325508839543,7.876540470422461,10.118681134785255,7.556954336263621,4.716814003067123,2.6795725439694884,-2.6399882292065513,-7.95514400506117,-8.12001101345907,-5.532087019539588,-3.527943351553793,-1.9946368272654649,-1.1981043328430427,-2.965336935717813,-6.026385531291995,-4.933296176096643,0.7745365182740462,4.534386790921753,2.7500407611877886,-2.3896331652682896,-5.925303786169234,-5.327507724823274,-5.927071338607133,-10.076650328797612,-11.450041416278633,-10.736989409290294,-11.884767927899272,-10.082498337805344,-6.219482143032224,-6.044582390494696,-6.12793494983401,-7.822279519351778,-15.105558680160467,-15.710632278616803,-2.065265293347145,15.631036855826398,28.67193888975973,26.467102924242937,3.147026072521645,-21.19957379784397,-31.6346016023279,-37.8106531117623,-45.16893033297539,-58.97336307280479,-79.16960322828152,-82.52123742234558,-73.60881137664529,-74.86066752836823,-48.75538772343101,62.24738282028051,292.62216884662183,584.1679265350627,609.0966603245513,101.61868538468167,-506.3817959405903,-565.6125604786847,-222.62599799717782,-36.20528555958866,-44.57528772297594,-22.902310870375175,4.155360575583742,-9.261797064867128,0.2815833033726354,19.122082957156096,12.968710740641963,10.797834137908623,13.162166375348104,3.4540440591178934,-0.3029569700504764,2.626208638068664,-5.993424811740162,-16.86601358571597,-15.663319263867518,-7.325600729195864,3.16395690406443,15.874122836163902,27.25214081693033,33.825170778427186,37.89153392738905,43.40856485758053,48.56691206724171,49.79934882503427,46.30292266444987,33.64230813802554,10.703597171117062,-11.482092208924755,-26.302517414290776,-36.42575702004721,-41.54990486078063,-44.329111083912224,-47.61056362323752,-43.94183228910781,-32.988435990201324,-24.729941991924875,-19.822106952953096,-15.142175014680241,-10.141441137895244,-2.6296724116243144,3.4539202982052455,5.922343343744355,9.787191032575773,8.916832750756676,0.1647600029701799,-1.2323684359693488,6.091805796494091,8.624092437531697,7.640679351879827,6.869504389429318,2.2772242698374967,-5.31013127312162,-13.193003009506011,-15.51755939843141,-7.91935266671914,-4.001985811408458,-11.767876829789323,-15.896422739835085,-10.997380185998976,-7.081385799848453,-6.735268365774598,-9.714750896186592,-13.131444077050784,-10.16646704977993,-4.9183263103348835,-2.8668800008620003,-1.438087439445038,-2.7959937064482503,-5.009936378752512,-0.5272926063614385,4.603636421615652,5.786704328355496,8.6830908286706,6.996527097158589,-3.8604386183259027,-10.380470027387867,-5.376756215722443,5.615515536027068,12.714616975957043,2.4257004191724203,-20.61611409586295,-36.24953333297989,-44.912071217038545,-54.1474291660019,-58.43240961258226,-64.2760084432267,-75.18199272042912,-74.22088844656628,-69.32391215072833,-72.65649032723415,-47.81851368105043,50.99923927027798,270.17499135462634,568.8972852138758,613.2524347303813,123.25440256792123,-481.18964469732697,-552.894003908516,-220.49123076415495,-32.86193001079335,-40.88496454369693,-22.183034767295624,7.298629733600393,-5.146512616298168,-2.531209941023553,13.501461135436474,13.288895234010287,11.906218360786106,6.407042054984469,-6.724293670942122,-7.115496398921135,-1.7940030863452003,-4.972688539334772,-4.311627721930765,1.254441318295412,2.510245216723302,6.803053241101397,13.921494590164045,14.616263446852594,18.452470201639528,31.620005781130544,38.814045493426576,37.34458753435927,40.248896164087405,42.96286300789466,32.69963577416576,13.35753188557163,-6.154539961451791,-23.725474927469968,-37.37242369001911,-44.290401301660026,-44.44458421240096,-42.426970383579864,-42.54402397068685,-38.69373715279761,-26.533270105662154,-17.626420978012877,-15.322749587940862,-7.4139379111653785,1.3239722736618251,-1.061638036239069,-2.6322271493100704,5.272884571700746,8.811807831176095,4.253368692109998,1.9181858656547908,4.562990227021075,10.336164812067912,11.12504728008665,-3.719716260074538,-21.609964798921393,-22.420095766452462,-14.258892786106204,-12.019457689070318,-11.540346935327538,-8.313242472633629,-6.441776800525167,-7.339527259704729,-7.766717641590855,-4.1247399343688045,0.943635625628616,1.0366800568099297,-1.9993580516505212,-3.660038471957499,-5.679802723832552,-7.6377292265208645,-7.299842154705145,-6.9114974890216665,-7.041879337413635,-6.274415240108761,-5.6385091949230635,-5.6276245576241095,-6.418819403397544,-7.251164483144354,-5.214031820452249,-2.0707551669167543,-0.8005219919114044,1.9719667434243249,5.57132890523814,4.701637242158715,3.511776468030293,5.356948179359927,-0.40122896680474085,-18.154563188674715,-31.285893382387908,-24.11603951548412,-3.1667515316587043,11.89297994945822,9.636585932445623,-5.504665013143594,-24.646311523165103,-43.02578799474075,-54.066970165088975,-56.90359189586368,-63.07983455282586,-69.63351675478091,-66.8485894852804,-70.96412374989475,-75.05160133916468,-28.951577014263197,104.52696817943348,358.83802274270124,632.217746911059,538.1679573472964,-63.80044948657543,-576.2297741569998,-483.0094375694302,-144.455050455154,-39.15010265085539,-54.597684435834,-11.917542424738471,7.60263726983051,-9.222255795151373,0.1320088495160281,9.154098397611488,4.304955691467111,10.290628456582628,12.970865862537961,2.6602954355638815,-4.4961289383341505,-4.727639552754984,-1.0844470990856068,2.7812914875346393,3.7174578023419858,5.5347382691229345,3.2563790191707382,-4.9943854072303555,0.7451579362476686,23.59285310334122,39.67963234574932,42.40642302683305,41.01687082374289,37.56914576387817,35.616518652652516,34.65774257322649,21.13858875715936,-7.832608443846983,-34.253395805092524,-43.96213147128479,-43.00144196002447,-43.58318772710869,-46.08053809201508,-45.64797122607634,-42.02530308633979,-32.91001664902497,-18.959820947704742,-9.871877116584681,-6.2570491414119935,-1.5524134258265505,-2.824641391222574,-12.533993420141936,-13.97340876697941,-4.419672146681755,-1.2137850627925815,-6.891254867723333,-10.192676953193153,-8.479083330648473,-3.8997460190391973,-0.0938775074693865,-3.2477960903349725,-9.577580537654377,-10.534201145892585,-8.987495048599623,-7.543608828413841,-3.0132054821024745,-1.4637636987321478,-6.561633716185048,-8.60906604851299,-7.5525063100752625,-9.849287111970822,-7.742061550043539,-2.186173106222327,-9.238093833508358,-21.934114517590277,-20.23693396561212,-10.011049728045588,-5.955063864975527,-7.4462199478565765,-10.470563024442846,-11.768551986075508,-7.914283220505531,-2.6465892793943375,-0.9869902063377403,-3.1704791591671473,-7.240815504460006,-8.200171841966807,-1.7028667037500629,13.844145075737611,32.200718297351244,28.301693026988897,-8.546779149346687,-44.02582864312261,-55.01675281571122,-58.4863295352132,-62.41351001380487,-67.37845487402457,-76.82122778591582,-75.5045321234678,-68.34706386703144,-71.64659192272768,-48.5875987836077,48.9483824327429,266.7825871710054,575.7929040189648,633.1206223817526,125.02119108979288,-510.87993375325624,-582.1859043044099,-232.98692984377126,-40.62147568765733,-40.72200379303068,-6.575899988641552,28.045938784734787,13.139551050007931,11.819030156263127,13.304299098338147,-5.598789015253823,-6.178672679178403,5.933236509033867,-2.5918117207640847,-14.55949852971324,-10.78916992246149,-4.529398698999648,-2.4894615725267926,-0.5031054675935684,-0.041557297346272115,2.1911694132030073,13.477134685946147,29.643290036537334,42.75606934500071,51.98398120162507,54.99326216751258,49.57744833272452,42.84013486080236,38.991833462168614,31.355116288114267,15.74870458974778,-5.89652454273032,-29.080865714971154,-43.051163625873464,-42.15543827395072,-38.05891454900451,-40.46271898814161,-42.45983591733767,-37.76071455027248,-29.583446421408034,-20.739575684647463,-12.90851499377203,-8.252528611021788,-4.903909081127715,-0.8761184276022842,2.3288912531640387,5.445602745847612,9.295895572348341,10.156896462181155,7.24115886935709,4.268217148669081,2.7534647114503885,4.450831335705458,9.471322873951168,10.04445053596358,3.6870282078032997,1.0782674580266107,6.480702493245866,9.573817274555209,1.2027676290626417,-15.807415998181362,-27.419622961668104,-23.027118451469214,-12.024293102562673,-8.994152450848329,-11.040982778448122,-9.31265233772045,-4.89753077159785,-1.295503700619422,2.23338392749164,5.555268493671877,5.108543949407864,1.6443414421483622,1.3548318758820788,-0.48894479307697125,-12.870083653063112,-21.888207763666102,-13.833908392896321,-6.708744859435262,-12.018388437516375,-12.932761522670342,-5.539777495916333,-1.630264363687541,0.12140080985919077,2.3402931324546286,1.6236081496327195,1.424837803510865,1.8430982233688766,-2.5715753882089345,-6.753375277254925,-3.205894333931596,5.501907343161811,11.498440604483104,6.578038466496987,-9.297914263336192,-28.83093012662528,-48.62648780139426,-61.59787892392637,-63.073214520119734,-65.9696822019232,-72.6030922247262,-75.0428754505654,-81.2793385133913,-72.26768381042751,-1.4732817441594364,163.74345709255402,443.378803045926,663.0425215331616,424.2997835262404,-232.728018653134,-607.2895161391289,-383.3687380009487,-77.57305091978299,-39.14597757231234,-50.785641551325334,-0.41253646381044007,5.223532415425048,-8.792424593707537,8.146969628755853,12.286189388122585,4.7613672994677385,10.630642733653314,9.501216852920413,-0.2730194773403589,-3.7859978695842536,-7.678157431860415,-10.446089228925457,-5.158438275094836,2.0608522306848376,8.4154857617654,9.141870265092196,1.880347175062374,6.8520965784001655,29.490224583285592,42.900125507517515,42.72619154016861,47.623462444408915,52.200054509036676,45.46219721476156,34.62678945792292,18.53820869996963,-11.107272072239857,-42.404792786914044,-56.65397850831608,-55.249331466754334,-51.19835282000072,-47.87098316304011,-41.760465372533965,-35.53456736952459,-31.855361531370946,-25.77413661075272,-15.888940876036306,-6.985599586449107,0.2430369658101199,5.3392674514808895,4.091246412874305,-0.6450795282304398,-0.37725598876574296,3.318434630906024,1.4585599898073127,-3.893651828094331,-2.5264496018984204,2.67980388445289,1.336360494013599,-2.8814690099509512,-3.0896385838612446,-3.395360156821827,-3.8254860516786184,-0.43933031157429525,1.2067248369605927,-2.0543794628956,-6.036914694458179,-10.450568453668637,-12.788433995767033,-8.91571418164372,-5.4665739317607915,-7.5635168484490904,-9.09049409691302,-7.332396571989166,-5.043389660635068,-2.3868013702679427,-0.007814461200291944,0.508387507006832,-0.8320158151470611,-2.263419377164565,0.7685765470474895,6.281294525096119,2.6352693798239493,-9.226610686223635,-14.402983347857859,-12.618032290078341,-13.2743778852718,-13.168198020573941,-10.330855218934975,-11.108446991177633,-11.533225172035646,-6.270060099520197,-3.435621936037517,-6.032689367625325,-6.597376560896089,-4.980021257345278,-4.525334683930726,-2.7894829785892483,0.471402202769049,3.1890265857154247,5.683979931046813,4.24499461344606,-5.4154987934238115,-14.520825119171915,-6.869720347024605,16.837492457468805,28.480353856827215,5.696064657125778,-29.53192271356775,-45.766066236552035,-50.99484056200326,-58.06322313924696,-61.172639575208585,-66.42338595521198,-75.23469695754473,-77.6692897801754,-80.3371677500205,-66.96188040975554,9.85578075781467,190.0142364872159,477.5330971055534,653.2940495904801,341.23819027375765,-309.31762353161514,-591.0857820673448,-324.60505678696984,-61.44838463319838,-47.010097825305124,-42.041033775396784,7.266584079360868,-1.544502278404245,-15.935858368174632,4.838528269109522,10.338520995289972,5.436942196585996,12.604222365055472,9.66598746121873,-3.6824649201562405,-5.931699625051873,-2.456145902767793,-3.50732994874083,-2.9771964647519247,-0.7405613675442333,-1.1926731100810009,4.1704935397390805,18.384480028008255,28.301839887647482,30.6505884334966,34.298012052902564,39.9607239676765,44.099634672526605,45.255249411661055,40.84510448917239,30.050386602295948,12.132028044219004,-11.443945696345144,-30.108558294437813,-37.110303255479245,-38.69491232561367,-40.15294498166811,-39.53980908324229,-34.58692675021033,-27.222155968156244,-21.033022193905296,-15.11148442152887,-10.031410174938983,-9.825467420102653,-8.204955256102345,-1.4708617509859643,-2.714273047022317,-10.34924181011106,-7.441053013866611,-1.2256348253962397,-3.947913729623995,-4.1162125045094715,2.671863854687701,6.696730630025394,8.627872756941375,8.742124868659252,2.0861929115416107,-3.7043271118019003,-0.15347902233487787,3.661527510807316,-5.802593156991435,-24.817678294165066,-33.013553219795476,-22.75716440077008,-11.722878078169058,-10.799592634512887,-12.037780246098437,-12.848413841453887,-14.62986707534586,-12.289122838868611,-6.206788696603631,-2.130256367994132,-2.4450981271444014,-7.144036775440801,-10.213345114354523,-6.518083037912334,-3.40784035521723,-5.197729031759582,-5.33379002974851,-3.7119357746907866,-4.6076097051773015,-5.071109363929509,-2.1839434739020582,1.5933932910621529,1.8909116228849605,-1.6262187005659445,-2.6510585269057483,-1.9988624548839198,-8.041171697178761,-14.027045939322953,-9.426182648648393,-4.552768929938042,-7.743022009465182,-9.161169048639321,-4.874393267929513,-1.4747267003296258,-3.662975649379975,-12.964935772361265,-20.21866479341549,-12.992631761405844,1.693972799524163,12.127207913030528,19.796611041641995,19.817777566085798,4.899767117767263,-15.068768977867066,-31.783876523278863,-44.78971631894764,-51.14189832642933,-57.9648218076353,-66.1209445769623,-64.5003663477641,-70.08655391275065,-83.34637251838035,-45.99712687239973,85.38762881980821,333.5785822061966,613.6164472594944,560.4378858860616,-13.13415241305249,-555.0317912528478,-501.0854050496604,-158.01774070030814,-29.939012560077934,-41.495628660286854,-12.200988758934372,-9.538580307076977,-31.4944178412892,-10.024639354696427,9.15482657746106,-1.142336162201616,-2.849852049544129,0.15418603691194832,-6.770057721422564,-8.683276353698629,-4.385886301230098,-5.604411981844141,-10.277314069247145,-9.373919429016414,-2.9291663444608353,0.5987318649081903,1.9407244378373008,10.742835458258934,25.557069722939016,37.052994831950286,42.09923280138075,43.170099876844155,44.72967534851887,46.309875601941535,41.41971526495868,27.889624937214485,6.11751969034715,-21.001947082939544,-39.60289668129735,-42.862980604050634,-43.877407228762294,-49.02761088257832,-49.7825572707289,-45.06748423711824,-41.65065335952515,-39.83906418384586,-34.01961437848213,-23.512502396823166,-16.19617774181797,-14.089767682996001,-9.284692766751387,-3.105966398131187,-2.832188964896396,-3.7622229939664926,-0.9366402828811395,1.146588244251408,0.5812835297500776,-0.8317304779226475,-2.1259336139894813,-3.172152137970077,-5.164772406216057,-4.67514115325171,-0.5924300593291285,-4.4625344037963295,-16.44566019987583,-19.178122721702945,-12.694620259888662,-10.10834509622322,-11.108776195022886,-13.103001494585206,-15.085140353475953,-10.97610332477198,-4.263041049769026,-3.039600089116046,-3.7717132358328946,-2.684502810014852,-1.3952640851791838,0.4440682832798615,3.662400160901665,6.903216317699016,1.9205758456302284,-15.933396160916779,-28.72737570768301,-24.035874833104963,-20.112256280628177,-24.5905472758665,-17.730661081316377,4.449801405934259,19.78298231632913,12.775107918337632,-9.092865276489183,-30.916250741646827,-46.33030662224267,-53.6420401942323,-58.101665496815684,-65.56892864786451,-65.8589770891115,-65.24027641197746,-78.558890021046,-60.644310332347274,40.619008914901556,241.57604825880156,533.2640681260103,662.8329019030546,255.17987990581028,-429.11232242009055,-635.2737400534689,-305.5744588385065,-52.83326026173275,-46.416198764995535,-29.31020204355304,15.47006631876961,6.7564432925108235,5.622875985295975,21.557933246101573,13.913527457907206,7.3697314393618925,11.126676227554853,5.660979032951703,1.37052325222567,1.8606891700220873,-4.211601442300653,-8.809515327959694,-5.24246435734238,-0.05662030999912737,7.116698201484008,17.337849388646607,26.54545743659566,37.92562695093738,52.415319355432665,59.42911074952596,57.522160498938476,56.150337849538865,51.62047068537484,35.09119982648806,13.56775932396541,-4.06309838297365,-20.749337778912896,-38.172998577957244,-50.419460997790786,-53.190825986080114,-48.182387892317536,-38.555418867825345,-26.50767066937634,-17.730727501720544,-16.14008638503909,-13.300851434418904,-2.582132247610655,8.994458756789557,17.67846471249979,20.791647887052207,7.5278232999870625,-12.459381710445095,-13.744118283708666,-2.5192464557080534,0.09419962962336292,-2.1399641818638937,-3.31908127696064,-7.144857135405433,-7.302512071419379,-1.6962514474349613,0.08482526908026777,-0.7390760393347451,0.7918956031373359,-1.8791874998686264,-9.565943418912951,-11.425751464722122,-6.123840345505294,-4.0782521092800135,-6.74812984463348,-6.518746258467915,-4.101787977573714,-2.800442183526336,0.146269334027469,0.48708709740846423,-6.026275116235714,-7.941223470999351,-0.5141044031656725,3.7435610346698516,1.3188097674315742,-2.0017797097655565,-7.49718849305545,-13.814264599374992,-12.742910583973114,-2.526628536352441,11.82025204085637,23.798533365644865,23.292397268351042,6.731982405565708,-11.14943461232551,-19.689108099249783,-29.388457790237112,-43.348904194676905,-51.40486363066332,-56.24614666218067,-63.8359540036016,-75.21431270995149,-86.78540133797394,-66.24761698233216,32.61625948518321,250.81623731891446,552.443026821191,634.587234078242,182.2236447291133,-456.7986844749115,-583.6626723603404,-241.85217660137243,-26.869150988777626,-41.76242549071579,-25.958733709317272,12.68643108387004,-4.966059954014661,-5.470050987309253,17.11840978405239,13.82943118181852,9.928846282724953,12.408166142946834,-1.1581580992051528,-8.291885359494662,1.8043960641247756,3.1343089071670205,-3.899810103923424,-2.582872299101864,2.1614744241276416,6.954032793976896,21.069966893501274,38.932574451039294,43.102950336899504,35.68102206393683,33.55175925845627,38.65190884149669,40.895511635349735,37.446468418959,29.912451743086475,16.929474722091058,-2.8813969456199304,-25.493491738631167,-40.47053604531798,-43.76911297863682,-45.0093381851851,-49.2320085272095,-48.27218675608151,-37.6793732941749,-24.753223359907867,-18.23899289559469,-16.382888474697623,-10.839152672006781,-3.654575613013794,-0.35574471294562215,6.338894511886175,16.086098988463675,13.72224219162311,3.615102899097475,2.986026716402744,4.789560386372151,-2.316925186641255,-6.587022609062187,-2.312598455138348,-2.363959505770726,-5.85615300298792,-1.6221529597973579,0.025556137202279672,-12.772708112952271,-23.84811376694239,-20.596499013852778,-15.137841530603136,-11.63147537018334,-4.051232507598531,-1.0711401525912283,-7.400093824939185,-10.407521819681861,-7.107825593347513,-5.248156752917321,-3.789373076831822,-1.9682042696949171,-4.340742788557634,-6.8893277668840405,-4.431120161211714,-3.2850261936059706,-6.6174418275757265,-7.977010716207451,-8.254049892914157,-12.065033056653036,-11.306422758231367,2.4320018713147844,21.12677431481417,28.290093364088722,15.337241716037827,-8.100620331275362,-26.439122069816936,-38.26674108579582,-46.55191771594632,-52.57056624270072,-63.10044484896144,-73.19203723509894,-75.12022133203322,-76.46350601834469,-60.040339244893104,18.07735942480116,200.19208922367392,485.6346924641344,641.1724319270011,308.0915081190823,-336.053515701331,-601.3001612314581,-330.5766837728961,-62.41363884162055,-41.292094151075545,-41.983280667152485,2.5136945814389335,2.0552627977277,-7.386588077450666,7.740072583106611,10.526423721510637,5.9592749827909595,8.198431118239155,4.538108239593233,-0.451642228528609,-1.781953674368161,-6.365688420051801,-8.644949664647424,-4.803470948271924,0.09681938934618062,7.344446485315274,16.41312238201312,23.329550954414827,29.935807115550006,35.26429356702277,35.4028702007941,34.74738499775,38.66721044698594,41.31237528783182,33.13245784811716,16.43775953248164,0.3768579503381613,-15.55496756361342,-32.613967248166546,-42.47746362690108,-44.77141574511663,-45.99032097854845,-42.377723924310956,-33.44747405320963,-26.145543140279205,-19.01081210236773,-14.053350680655349,-16.63357378269233,-14.979113374716993,-3.644746783029291,1.999478883412138,0.645947632210266,2.082666059897413,1.8917051688747488,0.19157216471633198,3.8898230949410886,5.530843475457843,1.3757878659858278,0.8202243320754441,1.6347679679340068,-2.5912611589902177,-4.002836676352459,-0.6827395139391896,-3.8401223540139213,-11.996286577493262,-13.273706071952283,-10.682920722733588,-12.880125264794218,-14.522886336320447,-11.005177765912963,-7.634886626202327,-4.175414180070739,0.14054281453779183,-0.3369477762738473,-1.109847201498864,0.954132268619805,-8.913550487331708,-27.084322716484245,-25.765987474979532,-9.20962320277831,-7.4297063737021105,-17.96776042231359,-19.872425119959132,-15.402157026547481,-10.753098108902538,3.6409236938859477,25.159198042693294,29.6612826639885,9.365509086609844,-13.674280368157014,-24.824769566227936,-32.22802986708058,-44.046511711423484,-59.12244228759832,-68.42649872903249,-69.88320228227563,-81.1519706510969,-90.63908151654526,-50.332356190315096,59.4787655778463,271.7434386997788,559.5448785812334,589.5427948857716,84.33448647464765,-510.98926721914273,-554.9028351337697,-213.56949314122267,-33.62360944814715,-37.77486789176059,-9.701593451204403,17.35743069501627,-1.2239800066805984,1.4317675919402855,16.268558127572252,9.599556448438365,7.469917914304286,9.188456930776029,-3.747786867136881,-11.374870745476908,-5.095619554069568,-3.505297618115006,-6.452435360607226,-3.873779807185392,-2.094659713344121,-5.774592306463282,-2.6458403850907164,15.698256869767022,34.39736841630224,37.248718067750104,34.632689352488995,40.65128534841192,46.509007333006565,43.490377665636984,35.00374618005129,18.119398687510163,-7.4039386411185575,-28.147385836486457,-37.56929198010058,-40.393149057968444,-40.57891321097098,-41.519568992906116,-40.920915486566855,-33.33126996877012,-24.036894703883448,-16.732691109210357,-8.000313718717642,-7.6579486993784585,-21.017275695965232,-26.02596590135577,-11.920490279352558,0.29222544222091074,-1.2867960245487637,-4.631719752611032,-1.078036254109957,4.012843290613905,4.361559963607032,2.4054332872576403,-0.480349732204683,-8.26752455541473,-11.915666317817468,-1.9256862820219993,2.270130010748133,-10.955910139739823,-16.696285732782982,-9.264126455338157,-12.846124745021655,-22.077978960717665,-16.476340534871365,-7.09705911145317,-8.052491483722527,-11.693441804123667,-12.204730464356746,-11.426218513850994,-10.631784021783833,-11.919747044937399,-14.25213230332804,-12.041390692213128,0.4790023828775727,19.988522250973862,26.417873961608606,10.233291484436087,-10.564551347097913,-29.00040208434171,-49.872059651389606,-60.6853378457755,-63.90197088345238,-73.35926516481055,-76.72200268300652,-79.81673270454212,-91.21419151165713,-57.8906791414051,67.81128305524187,309.44630364785814,616.182591492237,642.612777159859,99.95646363730802,-543.9796324726434,-602.348162484699,-245.6318791428269,-52.52202810238171,-48.91715087669286,-14.538023154084975,15.177718173218857,0.19232918767994533,5.7260249691690275,18.064590938764365,8.526324902219631,6.325531056010473,10.884941462305886,2.679512522168655,-5.80722515537466,-6.2441625250608634,-8.528762924011627,-11.616048322254738,-5.8633614479240235,4.961047302160081,10.427856632983719,16.085932334817635,30.474642491628707,43.39050666891703,48.8321480168012,54.961733995278436,55.166347560039924,39.82812859819439,24.014061129276485,19.368312134186645,13.358227764309834,-5.604851629637899,-33.649391685098905,-55.37111932583611,-58.315787444521476,-50.535518001922625,-42.46793038335418,-31.961041925466475,-27.298810019715255,-35.32937207328216,-36.55254668308409,-21.06466293808617,-5.622306119868043,0.9771326163351794,-0.235288057574504,-8.645481096327359,-13.258326673173508,-6.636425527383766,2.2101742873338726,6.557554045232287,7.213663753515739,4.6851624787305575,1.6717864596491872,0.7408191153476533,0.9236110866804879,-0.14416091369707829,-5.241369694428659,-11.219772322009959,-10.056850374208645,-3.8523843317299233,-1.2554724654853455,-1.3268940397228217,-0.6823182730890807,-2.8258740270331746,-6.0937733550460695,-3.490072403362456,0.02154929833131014,-5.162626445967836,-13.477781006366687,-15.656479193695157,-12.239520885484565,-0.47878226879993857,18.578635183685932,23.274271561026858,4.839284220521792,-14.281162937446714,-26.952340838197863,-42.72201987807689,-51.20235818640768,-53.128004033928754,-64.26200113104808,-70.8129282911205,-70.89625575627059,-79.99174070954041,-54.83361314103462,61.32767081944516,294.67951656495916,601.920553781828,665.031488244144,163.84169061205955,-500.88446512577195,-603.4062125932262,-239.27576017333627,-28.148900665124287,-47.24937644590969,-30.598507700451265,13.969668224822712,7.029864452315508,1.1792955903475026,8.654832320456446,8.600646349395562,15.915783691878373,18.364388648619432,0.26396922444908366,-12.898224149984571,-10.54801597173925,-11.4893184572187,-18.19683598864043,-17.57188770018335,-8.462024738554254,0.0366208850254372,6.0267422667289345,16.596485313289534,32.27797442365786,42.92854074446487,45.245638492355006,46.48244204002728,47.05503997572421,41.792584303368706,30.794197343102496,12.03431049025325,-14.188352356111734,-34.19863417026329,-40.98792132893006,-43.89282715141285,-46.72792724568873,-46.33751678070209,-42.85998270986656,-34.481307098843246,-23.143087805616375,-17.219195726347184,-14.267337492836607,-6.684540219851847,0.26283988731188046,1.6896471286371018,3.7083319413799547,7.716912009484384,7.447340049448915,2.3074378529509367,-0.9715923188042606,2.0254681129350454,5.46833556007857,0.664551301411537,-7.091417966561963,-6.361785566963241,-1.4591118868323871,-1.7717531498209187,-2.5741037329615892,-0.2382839558601617,-2.2684183147446966,-7.495211671373549,-6.963997173259355,-4.630214923594369,-7.083604969466107,-8.281576446074139,-6.233142341591968,-7.75601063555005,-9.03513549745089,-1.9419850956727842,6.645128943556172,7.561674137002208,6.282264219602606,8.014542668605799,4.509405765997299,-7.028622224463522,-13.8655616015911,-13.963793575510374,-19.967943420593365,-23.587148532979143,-5.059208055405081,18.225639282275225,13.293506667518148,-11.34590517358437,-29.30572396947263,-41.0370658947219,-50.96312994059263,-54.09691137184835,-57.262875560555656,-63.56372247943964,-67.8426019925993,-75.80490645432761,-71.3890169844222,-13.297994442246697,135.19289282742716,403.77572460803833,641.8517452783732,462.2018630440237,-158.53506239381986,-579.9776410821945,-418.1004015049037,-106.10420185904799,-38.31118955539056,-53.744253851075705,-8.962616013864206,6.960759431806373,-6.65557504795024,4.379790592134189,10.669726938483116,2.489493696391933,3.8586673043408566,6.548079515084233,3.552620491795782,0.914586834180275,-2.7708749930878236,-3.4937680262520976,0.31050543872674474,1.2321030192749656,2.2816339020665994,7.67118152283659,11.62159922299126,15.854673153354792,28.15294431560042,43.7846534304108,49.12009379255994,41.640720322428514,34.41662613677904,32.14881318548403,22.269659144495698,1.9543400293239692,-18.835071960877173,-36.706003693318564,-47.02825523731012,-45.75965026670144,-42.61427018950091,-40.06806687196027,-31.651291306181964,-25.39588519028116,-23.079707418864444,-13.494533343471751,-6.203828320353363,-11.322464330746595,-12.998854248513542,-7.741013834215906,-8.196401250767844,-7.230085421944377,2.1456666946322027,6.292602053218982,0.7312385807623656,-3.2556695839724217,-2.483452466055388,-2.5320571987547495,-3.272266289501477,0.11874471974852696,4.271455436178414,1.929617111116416,-1.6953915381413545,1.3503967402196029,7.1685106125569575,8.89575203477472,-0.7584613110495084,-22.591240615241414,-35.27885616742602,-25.2886979228304,-13.0898260758329,-11.988972657081174,-11.009357411257573,-8.64631480123265,-9.00543238517136,-6.366756111255228,-2.321485664731794,-3.119773966277169,-4.814168125514058,-5.210902183008432,-7.547050728234254,-8.349930590916046,-4.08466680070809,-1.5257355079160408,-7.012321185465,-15.036638845949819,-15.009828108639482,-1.038464261178338,21.66693574169456,30.920679247667177,11.36393976383545,-15.277471231458463,-26.800141175064514,-35.45648210554907,-45.73619854537853,-48.661118792951584,-55.772453171551575,-68.08907510878122,-74.5957535491632,-81.08646670119403,-64.65565108669115,16.0199756931124,187.70583137153912,466.4198834481019,646.8808530130248,337.0916865362035,-324.22167983003635,-613.7395396872159,-341.6530729373214,-65.79953427771383,-38.74289986832406,-27.57943610735481,16.810726641691296,-2.737615270024989,-22.8946452933393,-0.7528525689824921,6.726317775793554,1.2260354163097977,8.17362682508839,8.727686942084011,0.3299494580169622,-2.982420897465442,-4.819257335790013,-5.349797722970329,-2.8827926349627626,-4.8749613659906945,-6.065424246028127,3.257485154088796,15.404195331258695,24.65960094950631,34.47358869079108,41.171339983866055,42.95456710451334,44.20771575649192,43.7826828766173,39.83649973689814,25.862661971523526,-8.547591070641378,-45.2930684625958,-54.172163376555964,-47.472708625190315,-51.93018944898687,-57.79076359687806,-51.85989397575421,-45.021635457408145,-40.12910522684169,-28.591229470073294,-15.828817415207034,-10.23315059750864,-6.981681455603717,-3.4423877472673716,-4.453811845603866,-6.920208067745072,-4.744749365516309,-2.0357607625352188,-3.137724437935006,-6.09719392425005,-9.727592481380583,-11.126477254962762,-9.052636819669086,-10.924666389233678,-17.286331708987376,-19.42967286047744,-20.008862493237267,-24.76373480766963,-27.233766726498082,-24.15064040563017,-21.205720461295137,-20.955325476078798,-20.997305436686617,-17.413450894745395,-13.241699075561748,-16.80887425553147,-20.666514589586953,-12.933206186035562,-4.432348199946212,-5.534481879415317,-9.595317152503213,-17.039837391433494,-27.689382509069105,-27.625685729775086,-17.18115445416037,-12.84405793139782,-19.292250951474035,-28.430817186411737,-29.76634478251498,-18.434129018078675,-0.4822228966168858,14.963253704851962,16.503068312456698,-2.745662768652892,-27.904063754685048,-43.514683666890974,-53.256474963524674,-62.511967018047244,-76.54212457318091,-89.9569975222845,-85.6233377207412,-80.00106891115762,-82.40157527529819,-38.109067259005215,102.21786878213415,364.94571730873287,659.7037090218697,600.8895304104367,-12.60082560076853,-600.5762595855015,-560.9866562809034,-205.89153427248763,-64.48913071154384,-64.92888258355096,-18.465624631100894,3.447806148997415,-12.646570432768819,-0.3206212001696258,14.207811951974985,9.242773337260608,7.798889357474337,7.929473122712844,4.832988151698238,1.2489548010660592,-5.143475987700242,-7.089743055150771,-6.5504519437303514,-13.354507227657315,-15.10087341575928,-5.2393784625155,2.5891008434868663,11.03143854489457,26.760934882044804,36.72889956142987,37.23995725977001,39.18943073866933,41.36149394526628,36.63755358574694,24.99185731294822,6.694197747084776,-16.04796205073012,-33.956874322327515,-40.85988592995949,-42.08770010835557,-43.0234329339886,-40.480919227201014,-37.75632011374999,-42.82266691189153,-43.675699779583844,-28.658146270538214,-16.210900290903105,-16.7542356690554,-12.327814320419694,-0.7328277010974578,4.935357912781537,8.41046403300394,11.633528005596242,8.07487255071573,5.341817628473752,9.109892315167885,10.849755339270647,7.945661449294323,1.464153859339583,-7.948131064350455,-11.22099930195397,-6.859084098534799,-3.985843512713674,-2.7079553306252357,-3.91897333468493,-10.91679228437488,-11.977645250149084,-3.7519600240285467,-1.7285195578494443,-4.6928177037306575,-2.004579716005069,-0.6594765355380865,-4.1096355006131295,-3.7537507607287828,2.1368835113198106,9.25366094829256,7.84517089664686,-8.843650482856404,-22.30499553723204,-14.532679933624443,-2.717176417808881,-5.779462733972428,-13.174539849951527,-8.778148959966291,10.134560093266652,33.61322985852886,41.89004096905526,26.01681496352404,0.3190086749898571,-21.99044628588928,-39.95193287147842,-49.464546832108056,-51.916679683688514,-56.956820854790095,-61.90525648564199,-67.63944473109807,-75.27902452848582,-46.08616780384796,68.41176070790496,301.2430433182506,603.3254972644366,655.1846529880377,160.22627047001947,-479.02236483150074,-565.8602203402627,-208.24203054370338,-13.087372988079222,-43.39181771636608,-34.45545914680662,-0.990375462672823,-9.52635475325434,-0.17406510727582258,14.616972130027152,4.904449741610931,7.314159359700216,17.876448680863852,15.235611016540304,14.455774275016124,10.599969759474902,-1.8826158818347247,-2.0449137155867234,3.4412551528794646,-2.073516999912963,-2.9030963715439775,7.800516564110433,17.73546715658355,29.04023895754029,42.854002593174,49.17639770706954,49.130712461724855,46.97447792516985,38.98642949859142,26.938340001692495,14.22483096989643,-2.5733415156705806,-21.58913145003593,-35.01734702054669,-41.692421893981205,-43.574412764584025,-38.563261188499865,-29.162537718182207,-25.045649169524918,-26.30563702824069,-21.903259478759615,-10.936908182430187,-2.6571843445629533,0.9685747513060488,2.483385085349031,2.4983452531155352,3.707478546678515,7.281383634371441,11.439186185436949,16.166007498516024,17.97979691256042,11.015301810525656,0.7404247158255357,0.03334237982893534,7.830624958671795,6.815275604851348,-9.559264422397561,-23.147000908677594,-19.94769054847546,-11.160216573252368,-8.814922470211147,-8.418164689232539,-5.251693357159912,-3.0014510806109946,-3.527348545513423,-2.310663599394907,2.406738277848563,5.114695668881948,5.001174172593031,5.30657639261524,-0.09683355884951084,-10.986943507715726,-12.698750704642745,-7.843123589347316,-10.443165244701866,-11.61354021001506,-3.463462762902333,0.17156057345146358,-2.4712066198311984,-0.5723472804292422,2.3134409612347557,1.504315964081031,-0.1211803496093351,-3.8789737801958726,-7.1516286333876895,-5.45274287427819,-6.2264339807289595,-12.54199822769224,-13.561896815293084,-2.9420406334602403,15.538391819279923,28.76182709203662,20.67595456085556,-2.0632839705106907,-20.88486394594489,-38.66486118692299,-56.23151879951613,-60.66346240710909,-61.67850616005584,-69.3733943592974,-71.46112012724369,-73.88383311801564,-73.11428509558296,-21.790055478907917,124.26276654633115,390.64666531870097,648.1421667064706,513.2202565954124,-101.84334329964716,-576.4561995310062,-448.04542335218605,-119.02088122530937,-36.23723491243992,-53.52370948374787,-7.337596069856943,5.986642709793401,-14.373345320309799,1.4780393066708486,18.20980913869904,13.352253238892356,7.736037398387787,-6.749644451326274,-23.005409695342614,-21.016630293723587,-14.417114689694671,-13.468215430413903,-10.507038917298726,-7.321390453918324,-3.9414851585091677,5.399530864071931,17.43169088114969,28.14102108018134,38.083761924086716,45.43148429231451,49.786933889019615,53.434373468088275,51.233644876611294,34.19155516840738,9.895644464782103,-4.506274447567414,-13.6467906452521,-29.73312041339576,-41.377415609347835,-40.587781325575996,-39.84255140040672,-39.67599606968629,-34.760270368420855,-34.081609235330596,-34.67786347502902,-24.910553122774427,-14.160004128998231,-10.152524403791297,-4.046595713626477,2.8998517978708396,4.428844807594594,5.0074141402734025,5.213529164628735,2.7618020032006205,2.730681676567505,4.583392021404499,1.020195853657878,-6.048250245059309,-7.818051992590067,-2.968179762068443,0.12892840465672428,-3.3634963357924796,-7.4405697871249075,-8.34481807662618,-9.096639277454758,-7.802102771418698,-3.0179413244808604,-1.5370911212384257,-5.055215952505421,-7.402170130951342,-6.813829137401965,-4.4924891969521745,-0.1371627188837765,3.1679298589863585,1.0217116109046138,-3.80532424126093,-5.071386984756153,-4.396327389181781,-6.9162980734754775,-10.543643399136005,-12.745210478867254,-14.042031037253258,-10.636825768669667,-3.9609339108822947,-2.606680940461315,-3.5146910184934566,-0.5114787783318473,1.6692158078785884,3.5254064962396416,7.968781705335606,9.29430442064092,8.783225756539172,5.206692981183025,-12.763600408939581,-28.814951913616223,-16.18572289178507,7.04710958101166,12.599654745567992,5.032785880696913,-9.229495976844357,-30.36615131573616,-48.22239466292618,-55.4821045338959,-56.9210041115161,-63.08507610353845,-72.4086063295325,-71.7628030100012,-73.78498878550424,-84.11009936480974,-51.866843037577134,69.49994342745886,305.8975101851657,593.1395585573612,588.6484566879235,51.261172736599306,-532.930906818805,-539.3395458069762,-190.9377978507294,-34.275723000479765,-46.64260813687782,-12.640716246956067,12.413844548877911,-6.697678221418158,0.1555514977311967,14.841014094211605,10.450735038596683,12.31262743704054,10.738512431960139,-4.201659877609808,-9.891555188588738,-7.621593581688639,-9.042463626375516,-8.928993214367278,-9.889572661247556,-12.425523366244157,-5.077501042901245,8.712128825805069,19.524613630976805,30.230922129459543,38.20727419391331,37.651975892986,35.18134096627341,35.50695904235126,34.51829797470116,28.127487532415955,11.849064860238727,-12.32297823162607,-32.798375016782146,-42.84699327707506,-43.35105627625769,-40.49673946910491,-44.110962657774074,-49.47156396460573,-43.01978943277659,-30.60762171098014,-23.180490083247577,-17.480734530651308,-12.936448312703337,-8.875121300902837,1.4290364583758404,10.072437497438703,9.48660398909464,12.360805101852046,17.064456065045018,5.322533545068355,-12.39216570812435,-9.872367064934725,6.750818572822672,8.269394717844726,-10.147205085701351,-22.080266700149032,-18.099645906619173,-18.11818198128314,-22.218037165062405,-16.068154300684125,-13.384172730217994,-21.961712225938765,-20.963242600173288,-10.09843149626144,-6.9444781495288055,-8.340032821456585,-8.526815324975068,-10.711816920731277,-10.833296132963923,-7.039324411606646,-3.4207556266184547,-0.7573358852748822,-2.703977256923771,-7.350539081380337,-2.1768963734944613,7.921793006241924,5.355948984587643,-4.915878911917167,-10.245984180365879,-15.753424746277624,-23.088036022314064,-22.859508414699302,-15.076476994428862,-2.906546699828839,13.14330111515957,20.007830955462467,8.668389994087008,-9.310912249876944,-29.707094933278068,-52.80874164457698,-64.24708872363506,-67.8071516382516,-75.85572048968992,-74.60710763945634,-71.59108203121968,-79.87741545425668,-48.31729206067847,78.29837485610408,324.708785007283,617.8955770114891,603.8116535123822,40.17301329620693,-560.3265828085799,-552.4300858323769,-182.46570400727697,-23.55024687748663,-42.83282086988352,-10.47397476705774,14.474499094899592,-4.341784054667357,7.96667601100607,28.51264387876956,22.47425847159454,21.07941880204326,22.323355497059698,5.875994238709977,-11.34047604892277,-13.63409780316556,-6.756583616861207,0.20311923904169848,0.12109592244949141,-4.285837938822946,1.2329862736266994,18.339891235728523,27.16330834562661,21.042559350970457,20.94606184560745,33.83462428339261,40.313391714242954,35.35867228086096,30.751483649056684,24.438735987806705,9.622111059225091,-8.032655672420157,-23.4080079502019,-36.049772723978606,-42.03157560286075,-41.467163273518,-39.92882306772338,-36.217857120456344,-28.28646515861556,-22.630804372268223,-20.552580381912726,-14.054130381830767,-3.290436388636996,3.166194791115765,3.892763833345443,5.27517866626401,9.619505397391896,10.915020909202468,7.572633393677339,7.934775911234667,10.107260894659749,3.04153813610992,-5.357150452532906,-3.11074928627686,-1.1720126307053755,-5.980377719515749,-6.043997213394418,-1.7033312163092829,-2.0808851594011006,-6.209849228500845,-11.151410654114937,-13.157117693269836,-9.669852604021344,-8.782335064297325,-11.13457732723949,-6.624934447911421,-1.47335872821707,-3.996105151657116,-4.097720592821793,-0.8549916121982273,-2.9376263261806903,-2.6621700605055167,3.9069265820333956,6.520033745973011,6.5798797927661,8.461808811838047,7.132899345769449,6.294491399899959,6.642823595224044,-4.69044245829517,-19.86289628748846,-18.203359853503976,-12.04469880264661,-21.798228341460224,-31.854415089232827,-24.111926495158617,-9.186113531749292,6.42255468296897,24.709304124980292,27.15194672214233,5.066689780053062,-18.24971206164335,-36.39720093529668,-59.208296306376745,-74.06423915157154,-75.36215936741795,-76.56904057105785,-81.58794779719031,-88.43280705597313,-75.14014004368877,5.116973449047151,197.4535216604842,498.4521730872824,670.8347749378871,337.5041672553056,-332.2688703645406,-609.1238915317696,-317.801935891228,-41.13563602093967,-36.546811006685445,-45.044934284572584,0.8704867836484027,-1.2894183608802905,-4.735184426815161,16.18543302325206,8.162883612574147,-7.099301224324819,-0.3931694041011071,2.5966873515447952,-0.829117750717387,-1.3617171163258064,-7.857714104875136,-11.8114549877551,-3.7586086361527027,1.8414978625187421,1.8593496665180709,8.248940279014464,18.328886701738007,25.974653764715924,34.871754627687466,43.54689936157966,46.471053520111795,43.484620599778076,35.37255020069067,25.448255522056613,17.681266389731732,6.745315402295653,-10.899847482251449,-26.07389088630451,-32.77881888087444,-35.137411135165,-34.197795848660036,-26.902079822897942,-17.66668048757783,-17.738329148027585,-27.67138348839639,-32.68396616341914,-26.38140635086285,-17.9846449622607,-10.34487208901112,-1.873343295455017,0.19965997576431782,-3.1491361748873707,0.1515302705858872,8.29238014320709,10.24241418265404,7.01070730180686,5.249694068925837,4.591682468959991,1.4848639816464626,-1.133182703108,2.8387617774105767,4.97509110243398,-8.665277484757944,-26.09724278909281,-26.339915063138548,-16.29870472023729,-10.734222097337017,-8.277198003200905,-7.983063019248272,-9.30421935462983,-4.06950221850968,5.338288938491025,8.493221626435195,6.794901200546807,3.7468989105023134,-1.091582785510413,-1.6839662295615767,0.7621677388601711,-6.894711282676996,-19.608432682244306,-18.99681213968821,-11.01712841905898,-10.482351625214823,-9.379141200149562,-5.267521613844178,-13.916925760688851,-26.61921621796869,-18.309123191868185,5.287849208702829,22.474889306579875,23.846285620695312,7.263396408857263,-17.420933198209546,-35.81426482772224,-47.1789650745287,-53.57672672921186,-59.071978454606636,-68.55784757318357,-72.8084814010167,-73.53055681907787,-74.90619589047333,-38.09177665064836,86.8729708535208,331.8416309490072,610.5732793711433,570.3604754050987,13.387899104219457,-538.64732906648,-499.219417739322,-148.66682742149447,-27.497926188756736,-65.76502539958639,-30.05279293923688,5.660020767993977,-11.007329990128166,-7.659207627814569,6.100356309975224,2.303016625749404,4.596490471839589,10.270195813352736,5.353077906081427,-1.4438235201451306,-6.081621799493656,-7.85949980342224,-4.059059880153434,0.8334465062011104,3.138434410116968,4.4993731301976885,9.105759671623577,20.850055649267958,36.935586691574805,49.78551293269648,52.52863211527273,45.870904051165404,41.542536422957355,42.61596207033835,37.083942316156914,21.17828273045679,-2.489820003314687,-31.947376660625633,-50.872804348997086,-49.36898273722495,-45.63301847071248,-49.7580024024606,-50.45653935305634,-44.35558153120971,-34.58681685497661,-21.71349437820255,-11.015600384729787,-4.441379611254003,1.4269963654325757,4.75810863243554,4.93190372936191,6.529141486330955,10.504882331292023,12.62816032146643,7.051553652464787,-4.436494026335371,-9.325485425937828,-4.952530722482082,-3.291052954120362,-6.211986292638526,-6.177480028435431,-5.805567103833896,-8.573904624823289,-8.138183897010745,-3.281886107280812,-1.555334074691066,-3.7591415961267156,-2.8075806749587695,3.4308312119818742,8.865133506787476,9.20175664816958,8.16663283040425,5.595143783114132,-7.69237454088341,-26.533205924055196,-29.549704140329332,-17.46895370826742,-12.919071822195928,-17.520551887952227,-15.90084212489477,-9.503813704230474,-6.900133135628085,-5.869896928532658,-6.181416335184409,-11.834797847403102,-18.18714309736347,-16.620667997470083,-3.445646827607592,16.99825137086392,27.540706944451188,14.92232089755234,-8.69039160618242,-27.644217385354693,-42.17353552940842,-50.92012051169326,-55.63244534355308,-64.79717493699651,-70.32231384942861,-70.06430639059667,-74.44900383035451,-56.24311165385653,28.5007928729123,220.0199273891529,515.0249562351785,645.3894862278242,250.85761763439936,-402.48051005661387,-595.1093717350757,-275.98513057333986,-32.945900247688776,-33.048185269420884,-22.31952024265432,15.494952179452262,-10.657614716874335,-26.031230990434054,-1.9811275495035199,2.50856693224622,-2.729478631178832,2.785586882927774,-0.19584315434872046,-5.6829424054574815,-3.560640406480646,-5.758412479485633,-8.130338389478085,-2.702676239635466,0.9272899246451197,2.642128138825483,10.742434589847756,21.763772153294063,31.213506556997885,38.86151333739946,43.520044810627176,45.83378698896129,43.94251133504317,37.804047426553545,34.177025376171116,27.03311277083683,5.995292509359178,-17.18612089167147,-34.359141568056316,-53.078065869043755,-64.12225069833896,-57.59947104871397,-47.777506872029704,-41.76656803909496,-33.15663824667149,-24.323997912368007,-17.225966492024483,-9.975577452900342,-5.086400060150488,-1.2870448207920475,3.4256747482237255,5.421274356447094,4.618374300149824,3.592658090864971,2.350845232289821,1.110231613925242,0.6072693378004814,2.093283954909543,2.481734442940601,-3.70989630547367,-8.578793837919466,-4.2042822500803165,-2.474173819950881,-8.3006581867377,-9.396023391986942,-5.896670235852593,-6.0461074378759765,-8.601659235640604,-12.485051428338497,-15.898149676507767,-13.463572335758554,-8.370851944529853,-5.8052890401085655,-3.3987225818841758,-1.6197151098982587,-2.3886014283807953,-0.14435489401149404,5.868197516835622,5.178323136441362,-2.9676591684113873,-7.268600709123568,-10.575447829034651,-17.097646643965547,-8.718292940469496,11.60108797229199,9.84695340399121,-11.819804200045162,-31.49879332323997,-57.44295697934032,-79.01994129666924,-74.05282600772429,-67.4441691192819,-73.12254342268837,-75.73706516610284,-80.96374667056061,-65.31714779463734,19.8758424313486,201.14546620976375,486.6003638849794,656.764526337176,316.8937415173777,-359.3918533130998,-625.5666144134497,-328.64053203147347,-58.710109259046966,-50.11435398450561,-47.57318765046135,4.398228394504606,5.266657530437506,-2.794191834458794,12.431021553373094,11.19363210854374,1.9496581505233372,3.27029151672241,3.3452487673742235,1.958823013892637,0.03667057880005231,-7.113652225720467,-9.463151630690362,-2.51893141915043,3.9523303362298714,9.030254211000017,15.381485821394655,20.048779575923106,27.20200694788517,39.617827172350786,47.16307325115157,46.850904935733666,45.454867464829405,40.02653031228769,27.505376944403814,13.60652344799001,-2.673659429614644,-23.649501986158935,-40.764348882673154,-47.69642576420892,-46.56893992501459,-41.181042984395305,-35.64008424727099,-31.054057733380045,-25.798593133686058,-19.667133475840217,-12.297027940091507,-4.455398579357048,2.9210644238514476,9.496083077751013,9.74001109422777,5.474847321182727,9.447356154322321,17.297321197274083,17.968152123011127,17.315363268660263,9.27353657276873,-14.335129132242399,-25.722381060124178,-12.476688270136233,-6.135472426690075,-14.157462631761627,-15.585497257957979,-10.809448048571209,-7.22825410545107,-3.845578419980175,-2.0368738988006534,0.966561766910953,2.506367304134754,-5.682572598799176,-10.080574366081366,0.9002486081137517,9.906721017395627,9.553684121354468,8.328154328838623,-0.6989417171866741,-16.427869738175385,-18.837169891548363,-9.477822547917611,-6.618942609485407,-11.200351036207442,-16.605170453111832,-21.358211355703794,-20.014861573194647,-7.318317966825235,12.25497872958011,26.089580752793637,21.926510615536696,2.801584842804381,-15.085370222379968,-25.325055328769277,-33.37382681266093,-44.687942158479366,-60.7500689652496,-70.28348734874575,-68.20751534354484,-73.98933515295944,-77.34112882104358,-27.729998545990746,113.31790990452433,374.52163130429483,629.3138602772171,490.5724804034646,-126.9213201277635,-597.7634590263943,-458.25511237607736,-112.6323231257135,-20.632044711235892,-46.35575051388518,-10.644494425320097,5.424834952277465,-9.737936135289218,4.531734215408022,17.31361646992969,9.330280369680473,7.93955385706996,6.459395189978483,-2.8730864048542966,-4.017651178481568,-0.34870720342448536,-3.7353441223955386,-7.350526259044541,-4.790189939457328,0.39622308886823987,9.130375084244891,22.81062372852613,33.074671624508,35.1299380844421,36.47500725377759,41.839373035344394,46.791977153991816,45.3504129302601,34.181306076200016,17.393578589065214,2.5737154159774494,-9.534157892102002,-18.761681938122436,-23.506848730819385,-29.674413081697608,-40.44443714729158,-50.815423689821976,-57.852012842862,-54.63666648184244,-37.17711924769549,-21.665250141787205,-17.348297771741276,-12.185301212158034,-4.963801232092159,-0.7157934820948313,6.000912294383865,9.32545466235716,2.900413810409212,0.9593924500287319,5.8126082233536085,3.6990934045821193,-1.4624390963546947,-1.7278914381738542,-2.1707310884443043,-3.5618195501336913,-4.043688579408839,-4.909686148656852,-2.6144846025871225,1.7410380845296043,0.385941126203015,-5.580811303319619,-10.626629678712636,-12.795613667109007,-10.368303542410164,-6.823361094315233,-7.556725597351267,-8.441615691401124,-4.9437032042801015,-1.055091068089089,-0.3636661088060773,-1.9664867135234605,-2.386218217209098,1.3392378638894247,3.664228912395475,-2.865823862898253,-11.198012689552511,-10.640515608391853,-7.495584759572575,-11.805009750784897,-17.96017935994817,-18.25220409718138,-12.939147263065731,1.6982980717779919,21.950106618189032,25.684387476087622,7.728648700343085,-12.62852485086974,-29.421855559840168,-41.371672898901465,-42.526612364151994,-47.951889854389165,-60.94737824466432,-64.10076824279925,-74.01197756268236,-87.33309087480858,-43.719369657482744,90.43002641351796,340.68086916257573,624.9853049171522,559.9288359891688,-32.19602844321787,-568.3140321377361,-501.83817822878734,-168.1336017063222,-53.8067086893586,-64.02512377046841,-20.54214472771389,0.5773772957078194,-16.232763079478186,-3.9186144372007163,12.662048927673675,6.025275895126729,2.8871769183973255,5.262280368885557,0.5736089308214289,-1.7065566636546414,0.7179105240529182,-1.6947405945887049,-3.4944739948011407,3.460408609189665,11.50894419522897,17.132715718406708,26.912324746668624,38.3987556539659,45.78792129869932,46.701015881648004,35.455468991500425,18.095520478296383,11.388858152150368,12.396739415688865,7.0430921221573275,-3.884266501738031,-16.270941580675863,-31.038787484263338,-43.02199662407739,-45.59031231234961,-40.7951165181082,-35.597731586194044,-33.37823207534841,-31.346389997878845,-26.662312092789694,-19.698369569583036,-10.728816982821906,-2.1652498825601754,1.7256472227206832,1.8309031849929749,1.516379158597367,2.1696685516046887,5.455993798705677,8.842104076821645,6.162257216946138,0.25216187152016545,-1.5500241943773823,-0.9826680456339068,-0.3038496245465021,2.7785572587506895,1.6928185618323361,-9.593880524579442,-18.048253723727594,-13.416315103817892,-6.8346535414756815,-5.4129921304441435,-3.7242151790461797,-3.0850773839852383,-4.48488755703082,-1.7141598740640935,3.314540517898549,6.289467102900316,7.06010131004283,-2.201415919700599,-19.987187697246547,-24.662315513299024,-12.878745741726025,-5.236707589745393,-6.592746629936219,-8.3196720637218,-9.333806471657134,-6.094665668772796,3.637760312974266,6.457337053521028,-4.451503450078192,-13.678938479290936,-12.136671371285786,-9.727025744201875,-10.406858063667375,-7.683533083407184,-0.14045152947816852,11.880739238597908,24.078613777616702,22.459197203352694,6.69764506092451,-11.237391940869031,-34.725428926421486,-59.40083516820373,-66.67657717245146,-65.8391738584888,-69.45142634518814,-70.25297347491406,-78.79624564014847,-84.20017577994966,-30.245198946402795,123.3702532548578,395.0108085134764,639.8434530875155,467.8914951720744,-161.81350505780767,-595.0238991970471,-425.8861164075994,-100.44258131639198,-28.128895177847077,-46.81332908694472,-11.160468796276817,-0.8574887786616259,-8.221052086962942,11.356276564987727,19.246595724996503,8.36763724838607,6.215459454987531,6.539307592649951,3.643674881661556,2.0346993276029792,-4.25284305475215,-13.554640951827743,-15.797271627903601,-10.195780100591694,-0.8295944059350902,10.124922549035912,20.10463989437254,27.12208329162613,31.944560519554475,36.27953976724308,40.666553175994544,43.25280131108509,39.150062365430195,27.40438506022705,14.26114895814603,0.6349762569021444,-15.747445916419093,-27.015938501449646,-31.71309749437821,-40.35080939507127,-47.07968188030261,-40.63653873975902,-31.11812750766498,-25.45794456497109,-17.71803470598172,-11.729066832571505,-8.787808231285348,-0.4546750582585357,11.020719921544519,19.394440214974775,19.217309399936475,2.0382778489271995,-17.724985732195236,-16.049754767228976,-4.43750076314404,-1.323880070490775,-1.1992940371246466,-6.453342501464245,-19.47777595570749,-20.795160322699697,-9.24982990710097,-5.999186212487086,-9.708038643012465,-8.878051447537867,-8.445701835388927,-10.006772191145703,-6.35632597038456,-0.7079347526997193,-2.0628515690258773,-7.856625390000863,-8.538511264087537,-4.524597978171801,-2.3050904823164817,-1.0776770736347103,-1.126539889256101,-5.472787105586297,-5.826569541198236,1.742760498989412,4.463803227978529,1.6993677436913206,3.7495823554790224,2.3426926103433416,-7.399984120071206,-9.392793217882828,-4.640096698158779,-9.910156270149656,-17.710596834040224,-14.717993531993468,-8.917860069635426,-5.901186355188447,-4.307443952321588,-9.810631882351222,-16.647370557163253,-8.646407860744706,11.44176149228668,27.794858069926242,29.58399673943849,11.725041056593774,-18.552347013454458,-44.28802228524441,-56.3305120950891,-60.52883147571198,-67.7211337248556,-74.83713385171667,-77.16464776334341,-84.71067498329093,-80.16066456492013,-18.093455294123196,136.82534847516172,410.4249333360284,647.5791214410357,454.78103884108015,-177.81514133867503,-584.2416568408496,-396.0936589788576,-82.73634795349703,-29.300387127855856,-50.63775937649098,-6.768737283835662,12.22025785489513,5.754445241092251,11.581269568237381,0.6390439088256166,-18.560761692816385,-18.98760473803859,-13.462176174475733,-11.119757989978098,-10.24880165206243,-11.678479446032757,-10.446067141243345,-6.282078325956497,-1.5960177085488292,5.159286457332148,10.939454144925842,16.363144710647344,25.45255126556949,34.07613857691972,40.713580914584874,45.361730067478796,42.429812732627404,36.02173767705654,31.05205016969979,18.748071904839733,-0.07247564607911094,-14.081783964420739,-23.529095080666238,-30.535282553779588,-34.95008187108018,-42.34074344089792,-49.20949705538662,-45.96615528206051,-36.56026379246395,-27.60554905061978,-19.06374751278522,-12.497325507639445,-7.751914100283484,-3.0216941909200585,0.405488440308984,2.945394575241469,3.961388416459455,2.086728745126562,2.0382531727494424,3.313462071512773,0.15640836106121903,-1.7902766058552686,1.1470409867358828,0.03412711398962465,-5.205942080241648,-7.0314079013925355,-6.9812908180869595,-6.4494253887576125,-3.2625965662517107,-1.505418519376157,-4.941567398148676,-9.792156168272117,-10.955328553235482,-7.6611478418749535,-3.3011344286938034,-0.689183444626341,0.37170402685457127,0.45251579297466016,-0.292998296070456,-2.237994016980057,-4.364565816400562,-3.4826475922663924,-0.9795032549448219,0.6956645681382021,3.4782526013956048,1.914972355442334,-7.676647059344683,-12.137764760280303,-11.41243401654922,-20.960719145433583,-29.110164469337683,-19.273220081768045,-7.9519961842015405,-7.365314224168927,-8.960634208269425,-11.995621076179049,-14.42292135180254,-7.08182227623476,5.152378065936157,11.368048311325765,7.40807084560746,-8.06385527184774,-28.856332653276706,-43.588491979767596,-49.542831225376844,-56.49951574167507,-68.36844300898542,-70.23704766747093,-66.68049973053733,-79.1631949082771,-73.20411102378894,6.73182740772674,187.77898357384856,476.3912867048524,652.6692443134269,326.5885373073293,-338.14993381329236,-614.5722634858824,-339.851330679044,-73.15772521746514,-45.76565178904313,-30.423537025625293,14.117474579020246,2.5778158863514946,-9.06158076540718,9.399992112039662,13.82821841802914,7.955046889914028,6.607976886098244,1.9149015912871734,-1.900552628679753,-2.6454311638317094,-5.005607207803264,-5.152101440631146,-3.10832666811311,-3.4259952180492776,-1.835672089497292,7.306366902299102,19.716066712823874,29.079390871849064,37.12133565006464,43.56562647987848,42.17985392927025,38.12437992135761,39.57779186830473,35.95651718112893,19.719189867445163,2.8435668101493743,-10.073305227107474,-23.24918653745949,-31.04118398218241,-35.00600114875891,-45.260334319253396,-52.31703296168039,-44.72771367247432,-33.44080816923372,-22.51932785178174,-7.1477947146310115,-4.1644391060121855,-20.1925697618162,-25.91442170592195,-11.3362487482209,-1.034941134936684,-1.3396208200305697,-0.25982256773578527,1.6239548263769468,1.7682781462338344,3.2528354185219435,5.352476621674635,6.166792912658428,3.7245307880975353,-1.174069013951108,-1.3419655901100747,2.3948757908917067,0.4588592590769327,-7.22115898626774,-14.932352223521292,-19.265679536424035,-15.852053426994946,-7.635967266605195,-3.9034473026086776,-5.1657671667775755,-7.509871136952141,-9.22164072841132,-6.623440198940166,-0.4829107702057005,3.4431579535963346,4.416636931577177,3.2713967049926307,0.4963625582242486,0.2969682740704478,2.7348343503267936,3.042267474576872,0.3885459355678904,-5.211833097668434,-12.400057465106876,-14.005918298346838,-8.66981482330073,-6.004332193214633,-11.430143319955892,-17.812888591835453,-14.15653464833275,1.6546990338177965,19.191377673628697,25.25122850418338,14.026764869931746,-12.116426988184202,-41.53599146233996,-55.50292416938921,-52.63549387760826,-56.44820512106969,-69.8223986486525,-71.95474201914615,-71.44603446802469,-71.79671930456965,-23.868291291575773,124.28155539310127,392.56536155190867,644.0249981748862,504.27897009405604,-110.69372876962449,-587.825733122302,-459.18335503824494,-121.86728642492797,-34.699663744616295,-56.68620048721873,-12.005657633769133,9.712239906643056,-2.066457150352516,12.59808808593485,22.524699691579762,14.575230878974292,15.083008017281294,18.251372280414714,16.38115729681321,5.703802277786677,-15.18852230110564,-22.11305349170756,-11.101836340543546,-7.833870241771091,-8.286250344473206,1.4326545773437553,10.122877215322653,17.178106119536686,32.721340035981974,47.01205041191589,49.51103822632328,45.10209131426721,38.96544336957831,31.81434179844367,20.787830208243754,3.231268163565645,-13.845803309658592,-24.821785018854904,-35.08130034273178,-43.66570480765897,-43.287760332792175,-37.70056754813084,-32.687692531601314,-28.260340291319324,-26.79799749592476,-24.167462677953964,-11.793439653458018,1.313053859518055,3.2747176921188803,1.9867588183882336,4.031797515833299,4.623316262967778,5.827696700291645,9.575977481904024,8.255581477559215,3.023489424795287,2.7302010823373504,2.7607883166837635,-4.202096090548729,-9.091994815465572,-5.0655572386528736,-2.8665492439211437,-7.854788250657687,-10.036621891289615,-5.532263770299184,-0.08814199768480613,2.3432812522183486,-2.08346601189845,-11.139981083543367,-12.797551558423962,-6.8733621257850475,-4.916431493692883,-4.49899749078692,-0.5373700155984249,-1.996150444898035,-7.697209294577519,-6.484766648834583,-5.565951975332689,-11.89024325697921,-12.708895882429006,-6.102898742320001,-3.835302324143731,-3.28175415474351,0.9243393044755699,3.5970478691037506,3.298424789906379,0.8118359602835703,-3.0754899973801546,-3.031887936968042,-5.0050559057846264,-19.380131553043565,-32.24635709023936,-26.93699276135615,-14.60963965883148,-7.034831321186207,4.2559069154909,18.626690983461366,16.014546088556088,-8.034940001761669,-33.06926329277194,-46.02644944974308,-51.26050723361959,-56.81526341482396,-65.76690977744664,-71.0465646980339,-72.93939244535143,-78.6862464892594,-60.66339465079368,30.174437234425582,233.55823137739992,524.6891312643484,634.7943227568874,239.05600707940548,-390.56113826705416,-571.1767114556303,-264.46813492649176,-36.32357287609264,-44.67912919873767,-41.29657619366898,-1.2785091559908182,-8.041223412333672,-6.71376075440001,13.861796260923697,8.850651544334378,2.144805020163136,7.791597969970932,3.5290719272303703,-0.3032465665170747,5.236410232052168,4.792944553301547,1.129870372486474,5.87969369284568,11.177787940417968,5.482809204190433,-3.388869503742093,1.94825089016895,18.404309725803383,28.45521236377755,32.80006921853983,39.89415441579771,43.11693561647076,37.18807682190584,27.109418373103956,14.605630544572081,-0.5524313048679863,-14.835662014550746,-26.15053548570829,-35.986767747694536,-43.70213023037899,-44.0458819548801,-38.07704834617428,-35.46677128707466,-35.12675192224077,-28.12479441715191,-19.31796765200663,-14.001771987192662,-4.6436155259859575,6.52537402267102,7.488176804706434,0.6830007707840551,-3.470762248856426,-2.616700813046224,0.2713224142838264,1.2100138674345473,-0.13156394902363466,0.321012854135315,1.684005607791061,0.476528664637458,0.5985862306111365,6.458603703883791,11.368303252056505,3.1756182567536477,-14.798384197239596,-20.91390258093963,-10.115312106280708,-3.766576504908409,-8.155354600620342,-11.422389927052734,-15.952668536547584,-20.363144298645647,-10.134146963700804,2.0888329118280424,-6.432968446943519,-19.495645811626957,-16.220341762066496,-9.830183238994213,-10.369174975948631,-7.719411396375477,-3.01553554283449,-6.489349882165783,-12.395058486298847,-8.257103612260122,2.4768850419556454,5.953642438303678,0.515271285536997,-2.822607258906844,-0.5938394817825827,2.038420623009337,2.695124622546624,-3.126793468600866,-17.835663607449376,-28.014047464486836,-23.860602519327788,-16.442104244837363,-10.69588033612784,3.3363925725341197,19.132410804203573,17.329683176924565,0.872756426229726,-14.683164930135582,-29.75923004581565,-44.829470509232536,-52.28182602711124,-59.728003400902665,-71.45911050381348,-75.38339799439396,-79.32488735838291,-83.01787231415528,-41.76307495673358,89.03933646649764,341.4397305760332,616.7838890270614,548.5259854763544,-21.803187192457557,-544.7568742145166,-485.9404670802636,-149.70977891513712,-29.41182292182831,-50.966848925639674,-17.1388063105176,7.0416752324596885,-8.57717586868489,0.5995880642150198,16.03202159457681,10.662926265402515,8.052928705705614,8.032019962537786,2.8023163769511217,2.6272719615259064,5.579971521044138,7.688645663274055,7.99956478866024,-3.4174286881247316,-17.428998024849967,-10.276054030309773,11.905169406401342,26.23834452287047,28.44863111571109,27.642603737409946,32.09129126601121,39.02195752053498,38.67869403592284,33.47026943945275,26.501830022969937,10.00222356690203,-10.439040498224834,-22.862101199388654,-31.97322304827874,-38.033596867909495,-35.098751091693956,-32.56621644415973,-33.851694588314764,-28.83599276929988,-20.97620174240619,-18.244624623831296,-19.148449085494292,-23.47991914676874,-24.251970799728866,-12.074264759429003,0.5265005516453201,0.7433871179638469,-0.6840921638618642,2.2419315949235923,2.4204715034194173,3.3020557976334315,8.911989529789508,10.162481387134555,5.048424292585185,1.6034006089914143,-0.9775782223587512,-5.023478120678725,-5.976886905417263,-7.982309983654929,-16.80660184378062,-21.2550291778134,-15.240098000662387,-11.255182986546536,-11.031295926800027,-6.360800094914341,-5.39118666387807,-12.941401679956474,-13.880382403536654,-5.885434703829425,-3.5418346564596206,-5.676794900913045,-4.400505991142468,-5.470154668171517,-8.740335801092588,-5.315601227893843,-0.9531252942608717,-4.612655151719878,-9.231383366243069,-8.26772748867555,-5.693839670632675,-3.638433770547717,-1.4564796240252296,-0.6863477430724512,-0.738756251220348,1.8526454766687976,6.405686994408793,5.684322445976752,-5.050510115776735,-19.119095796393612,-22.75749798039364,-9.282475498763464,7.614915343070843,5.665577139361055,-13.626787504789744,-32.35266221036916,-46.73840888060307,-55.8466979138104,-57.44197778499685,-61.078868630517974,-64.643444377739,-64.28670500684679,-73.10809845991953,-66.71718899749726,5.017565842790262,175.7498062685909,462.70213614615255,663.9705182675219,377.979302110083,-290.12381034834675,-620.2154264115794,-371.47624519057473,-81.25998165373042,-45.31080466733312,-46.800938149518856,0.9175174606768977,7.463035763980592,-0.7861085696919723,11.627978902321821,11.671933315617855,3.1878974311894357,3.067574235900027,0.05287627413263696,-7.0348069108886015,-11.00626746689436,-11.592166315122782,-9.622783120879046,-8.653215877080726,-8.615154304664944,-4.09082575729718,5.1146052799748345,16.85319294992325,28.39198855651062,35.938343423360685,43.482841601577356,52.442377266216276,51.383095656979556,39.07885945079917,28.64795829468155,20.933824113654737,7.0038143657204746,-13.129874672209707,-31.608499975832647,-39.67390359001399,-38.98826958916142,-40.92670969507833,-42.41782193874358,-34.55600815888381,-29.089800665096384,-32.368166825954944,-29.560929336078143,-20.840594545916762,-18.473484459432754,-16.33929832073227,-6.932904789398881,2.431686986226918,7.227498447233832,12.087832348845883,18.37428682481283,15.370377788817759,-2.8379849152537187,-15.870276783791798,-6.716876121556558,7.27772992015341,7.332553382392531,-2.8571361739539682,-15.126086032419689,-22.0094317123415,-20.14512993510273,-17.286283630883993,-17.304558122572452,-14.40961699015897,-7.532435085442454,-5.51164122953308,-15.451280927850153,-24.74459814433758,-17.44787086415151,-8.36857851482754,-12.773037086374547,-13.262447077762232,-5.128020290982153,-6.0780466044406545,-7.610600391571847,2.1945272433074194,3.412387811284262,-9.693818043065225,-14.982690074704877,-11.561578105972643,-15.327658960192135,-21.975663458847084,-16.137285398986517,4.946419122328539,24.85700075131843,21.936186471358305,-2.0113891842995315,-29.090645732542264,-50.52699068004014,-58.01280401495225,-54.88908953683433,-63.15761137742021,-75.75816262274014,-76.990261938108,-82.6909103282418,-69.98015448033854,19.969013682062155,219.3041467150789,523.9850634739743,702.7087924841114,357.7464576602817,-343.75114730069646,-644.6944327344937,-360.4632030201713,-75.51488031891063,-48.07106180318189,-36.22704613515436,16.207459043997815,11.569868406695392,-3.673911441446066,4.963842437698787,1.571531874637607,-0.9310234037906584,9.45967408004774,10.973214688176501,4.7003430416562395,-0.18898437643606947,-4.027237330104503,-2.535626030651974,2.133925229605664,6.516090058129132,12.805212606959856,13.123354860967616,7.9988019501194145,17.49645031015803,40.33930848921033,53.770107451444424,54.950914170009575,53.10833181509,48.789749810524114,41.32535438735266,25.625242015416152,-3.0104542686618876,-31.201474252845223,-45.77169152079371,-50.58259025118841,-48.2975962500045,-39.81471709611222,-32.972962650752564,-29.551843819390218,-26.51792714469031,-23.9114180584288,-17.21265272639461,-5.9536079953296,0.26679320590551114,1.256485796345272,3.1219329020731568,2.721812756813229,0.6877590532295335,3.884973484198263,8.511375674558504,6.954283327810645,1.480008863850066,-1.6522272106463305,-0.06068716997688739,3.817289123563856,5.426714660503721,2.5125033074659067,-3.0003860826465,-5.944686959366339,-2.6450626479227077,4.853597898959039,9.930723166432772,5.691903113375834,-3.9578164643268883,-5.154953717597046,0.3377251251305271,-2.3188188061849013,-9.074518953135911,-8.587832248007427,-6.300646073341048,-5.859220878843667,-3.700388098365183,-3.8887914021125187,-7.308776685430246,-9.650886390257721,-13.827961418070863,-18.257967584360323,-15.665393873894601,-10.13962359048505,-3.8076783567224357,11.429028520436095,24.14431708881468,12.252489268441744,-12.07082808391435,-26.65299044997076,-39.84487660748934,-54.031136133086285,-57.90452791713916,-62.29155529539673,-68.58824961478936,-66.3739731732619,-70.56101408952121,-60.9193266977947,28.618535373234195,238.38419138034087,546.0318130459721,696.8734038097205,308.87363458299217,-400.4737207063416,-653.5540779488944,-321.67717953144603,-46.57406234724816,-52.99922901974255,-48.514490316425416,3.404761603933707,-10.065789923723415,-15.007707044876494,14.727836986743666,12.165311233294158,1.591080071022497,9.233803204174936,2.83918395079404,-7.79404817312311,-1.8857624995326692,-0.17813191124454208,-6.2905068569716835,-3.3682421835887015,1.829525598546224,2.986540747511075,12.1456846098903,26.77517744617074,33.76077352805993,39.24270491821598,49.54877993045358,52.96941061794395,47.12946455878032,42.33560116598062,34.44436141100255,14.327586451405843,-9.345383817717138,-23.516850082660053,-29.618277005840184,-35.72202420730507,-42.01312969023417,-43.40831288228172,-40.36456684380451,-36.73125500819047,-32.7386327033343,-28.076529035956963,-23.186918400975987,-16.99331589956018,-10.113979805862465,-3.701211449667346,2.5006241479854054,5.027034776280628,1.8727208103251556,-0.3475134912647633,2.837478944627583,8.107775058095601,11.257725641513552,7.904746067856562,-1.90418467063418,-8.761285875340109,-7.040685428210348,-3.68984833667003,-6.549376851817714,-11.448377208250868,-7.68578403520706,0.9520167227798879,2.069647613023413,2.760644870956347,9.162626340061967,2.3796480659695494,-17.231694900471823,-20.335455873176922,-6.499052495790147,0.22024308063478948,-1.7769533194268536,-2.6360583429625777,-3.938817203831139,-8.362257623338726,-10.356653668189365,-5.848846701974001,-6.705443223641268,-22.823331659519592,-35.12104329453848,-27.481344682894417,-16.640184259723235,-14.543822344874712,-12.700336387416822,-10.482867646684316,-9.969126013761667,-5.839515426405185,-2.6570096894411037,-8.247349194307805,-15.226983222487027,-14.174789850624673,-6.067406877516145,7.450481920931068,21.47795277144042,20.83062344860389,2.371254929625991,-17.720925863475024,-33.764950302157544,-46.51565246105733,-49.495415520221,-54.59999791647974,-69.53186780328505,-72.25520767359647,-70.37675348948092,-79.49925834317835,-48.90951264901157,78.06977789000652,321.8504568802116,594.4185401762226,555.863661058542,15.819862136840655,-520.6016620830251,-491.1868150036678,-161.22961735262078,-36.76394508702129,-58.208032660338475,-20.953857215471984,8.124641704365452,-8.206467464516063,-2.2070995660411548,11.055382267643624,4.276468722088046,3.633352681468704,8.686158502109839,3.055458625126951,-4.369527939502113,-5.402223007134035,-3.1883778161154397,-1.530932714369976,-1.3005804008884583,2.6291013478246548,11.25241033606059,15.462081929422673,14.31307200833862,19.725539213378795,33.4220422054449,42.0462511128532,40.44370032309649,36.80849369750877,34.746357216712326,29.71258169012718,16.97807571202125,-3.7499682213320327,-23.362187880847813,-32.939139087559276,-36.42469763738801,-37.46254348436872,-36.229039591735216,-41.83729186550765,-51.402263797054786,-44.360789032706826,-25.145845807301143,-17.15899133023052,-16.853866935953242,-11.020174684230838,-5.548655842012323,-3.4463273323696466,0.7767416169336379,4.614062962072682,5.524320771735683,5.718030794529573,5.415698761508447,6.49110873431122,7.593285791457356,0.9254710572136009,-9.420629369968715,-10.89204504455127,-7.823083809793896,-10.573855951967104,-13.554649784674346,-11.805615164930439,-12.740153656010566,-17.01805102976433,-16.149525946062333,-9.204858020639993,-2.6555057389104952,-0.4678967206092519,-0.7425820327718924,-0.380354033925153,-1.826096162135304,-5.31113824241643,-4.800442718745835,-4.841310669664752,-13.313162209736067,-19.42487390953074,-15.591761728630669,-12.095235223001126,-9.386696139108404,-4.090526517528055,-7.10653610324351,-14.654784669590498,-9.798102371221745,-0.21912743660286615,1.0706497992178043,1.1019499396807575,2.071332347804862,0.9320570906403116,3.777326210774854,4.119386877462844,-10.480901589579503,-27.340930839572653,-32.244467305453455,-32.36566114892133,-27.660046000173228,-9.128702380578353,11.601902835896919,14.796349737912646,2.725822885567009,-10.599171210085316,-24.826767737572375,-42.790776876423564,-52.24371982314567,-52.54363134120616,-60.9525270219019,-69.21582821058348,-65.09077245869571,-64.14447666855284,-53.41857965871289,6.61964291494057,156.67630540471825,434.21021023735466,642.331880599894,367.41659561953156,-291.4177921872792,-614.5612574898862,-367.23440871767264,-84.44437186916537,-45.44984415824754,-33.74727071990052,14.67897724314085,9.12789953080118,-2.1651926312523404,11.831825752977062,4.911706361134717,-4.059214060707318,4.761611098698084,-0.024877159735440912,-12.185441073410484,-9.619379628656615,-6.647413237079007,-8.312727589406698,-5.383047947151304,-3.123217100920551,-0.4868889513896253,8.691406353492859,17.83621988170449,26.981025621596967,39.7990059586459,46.72754718050856,46.32346786755231,46.95117398919255,46.09490127428448,41.289607299343444,31.785203810557345,9.396100962576956,-19.760009091513453,-36.863077011920375,-40.605730533364046,-39.701929699005184,-38.05087934499517,-39.92269810665876,-40.97567741217851,-31.09028751025469,-17.427500714605443,-14.893031048245987,-21.508095015492717,-23.784580630376887,-15.276286398876376,-3.3816658900561656,2.434735922818845,4.450602231041312,7.133000044267588,7.585890650321852,4.748694089140308,-0.03228722708065668,-6.01838524171589,-8.06097804609088,-5.171270481624823,-5.3149071900157026,-9.762135410434784,-11.551956722976184,-8.098513461222952,-3.085630192090415,-2.7212323935370417,-6.833952235665384,-6.720320574834265,-1.702585242796518,1.1262484977944904,3.296962112945579,6.543911396674419,5.134863008723487,0.7422452727003517,0.4902969815136409,1.705143962692354,-3.360874266730182,-15.21628657799027,-25.751984463833075,-26.95919093356875,-21.038447438893645,-16.594149861509347,-16.243422530693614,-16.317307615856322,-15.574723266419433,-15.634629184369231,-14.817113899347309,-11.78415966584016,-10.017637578689463,-5.77279592212107,8.1813898346391,18.447613476324833,9.053735830192636,-10.262945378860561,-31.073811373067354,-53.18996432330227,-63.16122355531212,-65.23567571033867,-77.06702344323045,-83.87274132423802,-82.52212222117976,-87.48344835259803,-54.57823669363968,80.56384689911313,348.06177270010846,665.1962625155903,668.2560673143803,93.8978707074935,-557.0438757730132,-593.5320860975617,-218.2573008857317,-38.03272728082297,-60.02495065679407,-36.12958686305589,-5.30679882743496,-14.58933172299336,-1.1815241791735716,11.66515593679014,-0.03225790454449218,2.4867409896946304,8.995685491956722,-0.7921278746603413,-3.275117323845711,0.6362874860828853,-5.988632540412362,-10.329569142483123,-4.779575010108269,1.4537329927483742,6.990958116871861,11.036206114125466,16.23789152987986,32.400509341272056,49.973847095514756,53.393231214271324,52.67204665730498,55.648249731866244,51.95609445183282,39.97360413434525,21.598426148647242,-4.316295675898514,-24.813332520965353,-32.56271054619607,-40.31893848056152,-49.08961591203234,-45.92673521534459,-33.120487509925894,-27.14948593704288,-35.92747821394502,-44.86725828016412,-37.15573196750623,-24.034637775517865,-19.01267496657893,-10.761833847570387,1.2835065916642936,2.45115335329681,0.950983112913871,8.195692515363305,12.725842782821353,9.720236206900324,7.927751022482568,7.499927641489894,6.217394366687207,6.124250025663311,4.219149007614623,-2.683017600185954,-9.829366482748226,-11.473397878419496,-9.492067464658176,-9.297169572001067,-9.36236074375553,-5.847662861788294,-3.1290974639882077,-2.8382152548890422,2.328932269843242,8.983823850533682,5.25258287397789,-2.118556857269464,1.694461371697166,8.196176284156646,0.3011827379792109,-15.280310801253517,-20.468825460708786,-15.438974248625724,-13.714820080750549,-19.23802255061311,-23.634600121512488,-22.318059264429863,-19.752861401673197,-12.905968249047058,8.050661053865213,28.289898567008223,19.41201647812125,-9.411316144959443,-30.624100124891687,-44.81694830294428,-55.083629308265486,-59.04622456436238,-69.32936297610819,-78.94454732032436,-76.42829213680731,-81.10803770693126,-67.61352282275811,34.28593849050992,257.1155539691105,565.209942831757,694.8921435488845,282.03517308285825,-418.72742272611345,-635.361273465459,-287.8421701073233,-30.28748825791392,-53.90496661378878,-47.88894576904945,13.365921556984873,3.336703866378077,-4.234402602786486,25.02262842875482,18.823113389054846,-7.289599828078055,-8.256321873289268,-1.7295596835703542,-3.8764761661189127,-8.45225165037902,-10.306257839234377,-7.3997990530181195,-4.955732431542164,-3.3653807152179893,5.177745365141737,15.701110337864861,21.41254808452039,30.014160503649695,43.60923974060259,54.44566020483208,60.251925442221605,59.399187917285346,49.81922538285157,36.33894539484167,21.969768102488764,4.485848532760525,-15.700460497309312,-35.23167924817455,-47.60475940819575,-47.27672088882892,-38.67348632152513,-29.737563526233707,-26.06264992942716,-31.451177299941467,-35.76219331523186,-24.65550796563116,-8.677609077106702,-3.5261727026716994,-0.977170463434696,4.435900953213043,3.4647783362423326,1.0526281371765043,7.7559827262232055,14.51394304613167,11.723762659529692,6.00740552877577,3.6436754236141033,3.2054252431187256,3.599782045020844,5.023181826321284,5.764293065772989,2.3746542523295098,-5.1516763616036165,-10.224849243092514,-7.9146791282783155,-2.0465207176551505,0.30033394059649154,-3.123514116770007,-7.955127747184273,-9.9878881153705,-10.01271738615228,-7.055099570428201,-0.38555837570144025,2.278345132866466,-0.47927961603977964,2.422315513641899,10.12071511371488,10.248349283857928,2.962357686220817,-3.9929306417933805,-7.698921391136524,-7.827351356394738,-7.332168592512373,-7.029577885823297,-4.213081378572991,-4.13722332161052,-7.871079028487088,-4.266831913040031,2.126391252371878,-2.7307711851672654,-10.010988057469737,-6.784515791230995,4.662498196630774,21.398216126383453,33.59578386057567,25.660731888336798,-1.2725485127504435,-35.54365184654107,-59.56962662982454,-59.39073426764433,-58.83116967298646,-77.34963568297132,-85.13355145541264,-80.7128344121198,-86.57888075929169,-55.506501260791296,68.08303041590496,298.5005728634381,582.7759709865976,619.1302167685055,131.94461953783684,-474.7799385780778,-543.0980725215304,-205.2433278112686,-33.055533557074675,-60.707344362812854,-37.9312669722153,3.9710529557158267,-6.6562182975324795,-3.6731105199336898,13.324440962149772,6.41086324041968,1.8737214879188362,8.555022483746189,7.19950393677852,3.929946926849986,2.030775278227062,-5.072048772981557,-8.267745415512344,-2.7981117681514247,3.05811176033185,9.363341175022493,16.928977237812582,19.318255364573375,22.26024860474122,35.82248110145639,50.057857668409405,52.42553262258635,47.38846723180202,40.05877102608771,29.631658818908882,16.763164629033533,-0.5370537687660266,-21.197111526055778,-35.787615320168634,-42.91043613146435,-47.71377962426509,-45.652716510230036,-36.155552487421694,-30.40323900994938,-28.8098912233457,-23.01590089279403,-14.999869660114314,-8.113540200921225,-1.48154911290408,1.5024698393296045,2.088073975119407,6.279356698815203,10.249774259866335,9.446319712822405,6.326316918488473,1.862212287845228,0.4602148673875526,3.898757126339561,1.969399161897682,-2.234340267589422,1.6878178089471305,-3.0401941541150173,-23.35674635458045,-28.774657000854432,-12.713957728540677,-2.6683409479633298,-2.5396766867106884,-1.412167576015559,-4.264803942352167,-11.477200715528982,-13.689560410543342,-11.918639207156048,-13.307828156175969,-17.266271679702562,-17.61606467709931,-13.74626237738211,-10.484517634779326,-7.483241397543658,-4.4335099873567145,-6.705878158102017,-11.712354533904172,-12.014550504223923,-10.120444347581213,-10.19220244780744,-12.667713259614445,-18.04663585349581,-20.913164866975425,-16.42649535350834,-6.563636663172385,9.251914589858664,22.25900718757537,13.847216413175392,-10.463527534308724,-32.24775796750094,-50.0081090460636,-61.30012812519094,-66.26151534986687,-75.97578185858434,-82.18069701048144,-81.1809144489461,-86.51644779133943,-67.61893421267519,29.75061658093024,247.28490925898137,561.852444234098,670.237733486101,216.28732797214786,-470.16282117718066,-644.5439230479108,-307.4446010913505,-67.824000909946,-64.77778877069342,-45.1341295473556,-0.8753215319721477,-11.409607538637303,-15.050761343266181,0.48857835353294377,-4.917228208986096,-10.333239725302782,-5.762020111907393,-9.34457389705047,-11.92112652286767,-10.440521396974958,-17.46337810997447,-22.90268465519294,-16.12574440436033,-8.221179971793031,-2.712806043991769,9.730546858738819,28.06976459885183,42.31732989821148,45.92908291745519,37.584108599923326,22.454248631064576,10.569746317372486,7.527558609140522,6.329779106319531,-5.75653402752776,-26.71695251922282,-41.859801556839734,-49.756809918173545,-58.189169822277115,-62.99968314441301,-59.00263479766342,-51.01524684856513,-42.96509609752835,-36.37082819840074,-31.525337725809266,-26.002856253857964,-21.536621944744663,-17.54716832356231,-7.158185815538701,3.3221416315249463,1.7611282490726268,-5.233165017432043,-7.509811585214056,-5.701464122304468,-0.6251555317407806,2.8033749544935525,-1.2108960518151513,-5.851451728051995,-7.288814623807578,-10.853979244102511,-13.128280445165622,-11.818066213340852,-14.940643543470664,-19.8493813851223,-17.25033267840207,-12.252514343646432,-10.964790307349151,-8.653011442444623,-6.580198455362485,-10.337958265649565,-13.155341311807554,-9.095044438328273,-4.403729203570048,-0.7379179993700831,1.1896761681448709,-7.8792989327965905,-21.498008778509377,-21.860933781313626,-11.311646065998282,2.3924019780536874,14.022833190578988,6.524000853721008,-17.39005208487403,-35.045998688895324,-48.14839267195531,-60.10939812349532,-65.14934236254554,-75.05909436711235,-82.50990152985754,-75.51931350724841,-77.179978316996,-63.69335208360246,30.612838723795022,239.45395406877182,559.0299681719856,735.4719273998774,344.0495129497504,-400.76955207738746,-682.900168609772,-367.2152858985785,-93.01848562781728,-74.35565189923264,-46.5823795564372,6.840659625861392,-6.579490643672834,-11.478262738434733,10.26128953322733,7.172622066441978,2.814810140773008,9.45793096988347,1.299602030930087,-9.478633319419655,-8.271683692091925,-7.418044770584091,-8.020781602956067,-5.581933888831007,-6.76066098213788,-8.054126017295722,2.869849059228084,21.957025521900164,39.314678888742286,56.73714621808511,70.0940051187242,69.26301113467215,62.190779994661824,59.36189560030781,51.10119313255447,29.0130178075291,1.3726405539365931,-21.945418974289595,-36.31983736066702,-39.01710100611287,-32.82218722770502,-27.602466634603154,-28.88536150143674,-28.765332068310375,-20.194429470522742,-10.210111072983427,-4.457550850832687,1.5395150858791948,6.8570236575969545,6.025292291670045,4.4506498766783995,10.709794351132746,19.665255858634044,20.498601651898834,15.485942950123116,12.825601941023233,8.974481160285148,1.741484573619151,1.7398461087523547,7.47987636320623,4.332841989565658,-3.786991360708632,-4.148322428401502,0.25768881359114193,4.245307281297722,6.390527927461486,3.8499980025568052,3.242509173044925,7.809704731798277,3.4141682019741983,-10.32280319679253,-14.710674316749953,-9.666445724030593,-8.070411450998908,-6.166443270472144,2.9252982724916836,10.938723446125703,10.08269941141274,4.301387840530075,-2.4651553415431433,-7.82270388425345,-3.6898500222104236,9.301658148466448,16.472443642957835,12.86340201424115,4.682372542971991,-6.861005361384194,-21.520572649996016,-37.74766543287704,-52.586412484319965,-61.62442057077181,-68.61607555337969,-71.64547821476813,-65.74448772774055,-68.46655400124178,-70.06625276205817,-12.05542155521583,151.68584369448035,438.53200708836135,684.2261613900821,479.03407503655865,-196.8333640136641,-635.8781063338454,-429.4332725344711,-84.46065751177711,-29.05425756319564,-54.599549413700885,-4.413097346547637,8.896223278109304,-7.802951481537091,10.184139532662554,20.21825276924406,9.34146305283284,10.606156128079029,11.949823847061955,2.309815751703261,-0.8086800380320793,2.4739266058789946,1.0900067546503995,-1.752595554448174,-2.6830606616601314,-3.1656018635136896,2.9636489018218306,18.140874921507965,31.364698340116988,38.572129311371825,45.717654489194004,50.91084272844266,49.71576171915051,42.961347854177845,31.835565172829103,18.610351483057364,3.043967577519218,-15.07421667407863,-27.7437471275234,-34.92288586411759,-44.40941664373119,-47.88581865970414,-39.93317470832286,-34.09726814407759,-31.30922804898973,-22.80337878455242,-15.031603175868362,-10.689109784614814,-2.8152881013554767,5.458326342008349,9.951589721647785,13.511856855963842,15.754038559034054,15.499905397058601,14.581169946254898,15.301628091052127,15.573153243829882,4.334104687862517,-16.798146713333267,-24.046640992481706,-15.00837544337801,-13.165317209157688,-17.189937689215945,-12.151112341480973,-7.023254035123404,-8.651930656969482,-7.274642749202435,-3.3000789243616975,-2.6961518136330644,-2.50974323677383,-2.0320873886511572,-2.7714656092542693,-1.2109672783560494,2.248984399679096,1.2877192862454798,-3.6470781663893,-4.462869741204185,-0.8819051779208884,-1.06781566075166,-3.4022602338094883,-0.804483695661081,1.7207482431977121,0.05377778831762914,1.479205977365948,5.950940822450971,5.1450255419175,-1.1065994452184462,-8.358124005457483,-15.25874611673262,-20.715961697779147,-18.990691982630615,-2.1494556859315903,19.327313086853007,18.98788891617731,-1.6055736812068648,-18.292896131442113,-31.251876166537684,-45.230465781603804,-50.380342787116646,-55.47246207143707,-63.649647420863275,-59.15272837630404,-60.97810688973788,-71.09646000620323,-26.466175689366807,110.27771849072109,350.5525978692474,609.490702777106,528.4850389732698,-63.8512490631862,-591.4772426425448,-496.2723962800439,-130.41813729745436,-20.909222706246773,-56.02208961820453,-17.20993448067071,10.222174061703456,-7.077663713846324,4.0968299723495,19.77107325623546,8.728966685675264,0.18938648973690775,-0.1749066481213717,-3.1715697560205207,-5.945884990278207,-8.535317163557163,-9.309242333121215,-5.84756186061311,-1.5458102595366587,5.047775478931209,15.635701398035211,26.064197635281424,34.02643065559281,35.699992626172225,28.634421859201368,24.08354481602587,30.819427350442687,36.08211569898944,27.012802395645313,11.139609120785938,-2.8002140632123744,-17.70815871578483,-30.24885096987132,-32.94624261863815,-34.717957484371006,-43.624394026785495,-46.426258691694336,-35.920352589427246,-25.303200980127556,-20.866190085302488,-16.18456199911026,-9.201237477262584,-3.9055663389557616,-4.540876273138757,-7.586186071646267,-4.056767028937772,0.7858867814909409,-2.862484315420051,-5.04479306966368,1.2378706507449557,4.017748272349591,0.6855403560915239,-2.2691863170047295,-7.140410266644443,-10.834103803081096,-6.285864661860881,0.5932150217711989,3.622384044836066,3.7111925250047904,0.8428835484083681,-1.8170273213783368,-4.3338829061168855,-13.643230637054133,-22.515617532416798,-18.46473483878149,-12.212611429854725,-15.914826693083063,-17.912719529294005,-10.462069367890106,-5.452441733647564,-7.304383648445736,-6.464599019155063,-0.9883808865199875,3.6846389252643004,4.888902984009938,-2.975790312099509,-19.503031814770534,-27.064016451798167,-19.732997540562945,-14.942417835277627,-16.5619529899397,-13.870388425626697,-7.22315891129632,4.1061452622414,17.431691051465116,12.892209632872538,-9.658499650069977,-29.65632811660347,-45.423610139898145,-57.0812373909835,-61.11338765894223,-67.62071214819564,-71.94871729168044,-71.78142054729646,-81.17854122557067,-63.58713218996478,44.99307074909184,281.390585719685,598.9323200240066,671.7377214346395,167.33261906433563,-517.3089437901439,-636.6428254066263,-273.3144652618847,-51.90563436552104,-52.217847563904236,-23.993385200345948,8.176264607131074,-9.844247606244764,-2.020121868263015,16.823659847279465,5.673970500311064,0.2869614365765143,4.9915509962645865,-1.5507918850001516,-5.702652880504072,-3.2264239149277234,-5.968024981313501,-10.211827693899991,-8.215445160912536,0.7416296988482807,12.317730664933089,21.5468096385458,30.010144691613394,38.10358535362209,43.32347855390532,48.427278988807316,49.811878229719525,38.32150250564346,21.123668081365388,9.454651948586559,-2.3557239545592896,-17.864039027169476,-28.72488785359661,-35.191583645091505,-43.19550947443173,-47.31539061865993,-42.690566409404454,-36.574259524747774,-33.79037595792329,-30.74355355912857,-26.30745252327082,-22.089825464212204,-16.46902171280537,-7.548265106603454,2.298430541164855,7.122676286064244,4.7269754096659575,2.094895940827932,4.361329547247671,6.554533558383714,6.421937202790263,7.134151720702015,5.442556387411273,-0.8810945214545622,-5.083199341277469,-4.1393499446116735,-1.5701688798332096,-0.4263421132453118,-3.252175509449901,-6.820755766054072,-5.128599682967053,-2.2203396855754978,-2.146832881934899,-0.915115605066001,-0.5865381171651514,-3.459653442087835,-2.3449080752958817,2.2396980826091726,3.2359739352006223,3.7104973786347673,4.506539504126296,-0.8906961351390601,-5.3900369501299,3.2910902783588387,12.673423157705011,0.64225723869626,-23.87830176741514,-32.13083439575369,-17.942763554473927,4.793036979253793,23.166136916686938,22.56706742677408,0.09763230103076204,-24.91685228081208,-41.26564379508281,-50.664464879877734,-51.26405287735399,-53.54519833622753,-64.46358324682905,-67.32021946460702,-65.35161686986497,-67.39263535955986,-34.917591859020234,91.4206187196188,359.9919802222147,656.6451590209774,574.5183817657255,-45.75588350154281,-593.6589698982489,-506.23266571222615,-142.3474774134327,-29.968097367348022,-60.520013795818585,-21.185907658110168,2.028286170754967,-17.195202699462623,-2.7883996132866438,13.35697400912259,1.216308584398334,0.29646089058218017,7.606138800404647,0.6149957876223144,-4.519333403404296,-1.107487490308138,-2.509224075318138,-5.626079872445953,-1.8755993088781597,4.532836620319815,10.128608832720616,18.329119318643958,29.005449656410967,36.78973328771609,40.182453524935035,43.07485994238113,43.96007581273998,37.09528151274161,26.799100977970014,18.511059332260288,4.957685840241502,-14.794667992090972,-28.39636547819442,-33.81052825980923,-37.60879294186442,-38.12904391125268,-33.49159792032995,-28.77649303134288,-26.390883806588775,-20.421244878799538,-7.673592222700901,-1.6532404346191534,-12.51971806574799,-20.643931707848566,-9.734486936269956,1.247780465822471,-1.930333334852703,-4.410663030513607,1.2636698561731876,4.115372804257806,0.7763045141352727,-1.5823049645191656,-0.22656764341984648,0.7489968598441124,-1.002757814005335,-1.943762611592069,0.20588589429903337,2.226616580498378,0.05985196271430482,-8.068301586595624,-16.729400001223578,-15.59678785180351,-7.678749797920986,-5.631967893125328,-7.344300544356427,-4.684500283735254,-1.2830455988251561,0.41980988168465494,1.0387933558207187,-4.707140565566744,-12.954993903467713,-12.797848302387782,-8.695103473223705,-8.13881164355628,-6.059219453589208,-1.29653082500106,-0.09926862775266088,-3.531008462357949,-9.060470602908747,-12.92490099399068,-11.27489743600488,-4.576323745576494,7.804570931009191,23.537160429628322,26.284762556676625,6.997929228291824,-19.907696567080762,-40.7681416553795,-52.06847166472638,-55.8944260459549,-63.72190099107985,-72.42657835592158,-69.6779289142789,-72.32181778360349,-76.05853716442282,-25.91513477075369,119.63089733490101,383.75161950271746,644.9858829288399,516.0395355456362,-105.97878939551545,-591.8519717730634,-456.8442404607182,-111.55328982345529,-27.52033939077061,-57.26282480002577,-17.34002226096362,2.8981431917451133,-7.622177983724754,10.29562108322408,22.144805310758898,12.113473926538315,3.3851447585542243,-10.881482989027589,-21.182146140622958,-12.673162148887933,-7.188238645382654,-11.51353931305399,-10.366563088607712,-6.276328866723471,0.13880484902220735,14.776890672608433,27.917708475006748,34.38017756893885,38.40217463874832,34.1049005197348,25.846369364107677,30.798969690287542,39.14847880081858,29.19235808839354,10.909578069800407,-0.5689493489370765,-15.517714354937631,-35.54103885075891,-44.0363951245231,-43.62322458008003,-47.04543235166769,-46.72813954587025,-36.69160319516912,-27.910365115258287,-23.570425435046943,-18.04806347249857,-12.441025173202124,-7.715313005329273,-1.4274040634369918,5.030264206330749,7.49507067341329,4.586586279868633,1.9350154137610112,4.235315205147549,5.2383361171046445,2.0093628033512125,1.2404768423613088,0.4417613009429946,-6.040187313673179,-10.005121508834314,-6.270631005890285,-3.661717564557204,-6.620103208300074,-8.856756862975558,-7.0954737291989485,-6.083284276316304,-6.351611193115172,-2.300226686664896,-0.05247038949819505,-8.67790282222703,-15.537074651365247,-9.578819342194917,-3.306701474638002,-2.98472740194242,-2.3139392483341528,-3.8580662621192907,-7.202886685335767,-4.780054756776519,0.010458290832621842,1.333996667732996,1.032359138217692,-0.35624818411828585,-3.544870404711146,-7.382485591812554,-8.157095606470422,-3.1853847266190805,-2.066041393303731,-11.128748172975808,-14.211400615702502,0.2756375652633851,23.709226590990202,43.18203798425195,39.143365009572406,1.724816263696379,-42.79887955396589,-64.13852408329448,-61.7398945893686,-56.57200705053108,-67.76521257545372,-80.90745270125645,-78.69821051445592,-84.0696447655146,-85.60282289716397,-19.21486352762276,151.7495660762225,431.3482295566522,646.1916449995019,407.4421569121789,-246.14395021009747,-612.9621679855592,-379.67047425700275,-73.18010769125371,-37.999627047722605,-47.30115555575851,4.569666211529231,7.074060067315735,-8.865470342296131,7.511646147409215,10.547301725329206,2.7315420347641837,9.489292058191282,9.718992957150277,-0.9728771991106591,-7.511357740065916,-9.400295084910816,-5.430275336345056,0.5106916569117019,0.5456285892677988,3.397065388502603,12.356759946564782,17.58442960353876,24.84309175344652,38.711221458846396,42.90927678141123,35.333195467553004,31.817767869717837,30.52110622258123,22.542350757742216,12.375741393041954,0.41907568397682393,-17.363456807523637,-32.8862046119269,-38.546295547926505,-39.42185781676061,-40.267191033808814,-38.34458750737305,-32.36629033448348,-26.817326297491448,-22.622916350578627,-14.686121203766149,-5.916358391302737,-3.4403472438108427,-1.8796317489147008,2.9743762748695914,4.7517034982149635,6.192516968363602,11.460679804620666,11.69588178425606,7.314129030869603,5.746064242249786,-0.34511808650870357,-11.94694585103323,-14.929201315290939,-8.674375521746448,-5.46418397669308,-9.897028767949276,-14.099694891956778,-8.966050691897925,-5.551141901362108,-17.634919629391273,-27.21322221987372,-19.910201911005217,-13.552670183268972,-12.775068277467998,-6.250819365165693,-1.9314935459614873,-3.9688192635954174,-3.0162806881363196,-4.697263251984921,-12.670149948475252,-13.933817727675496,-9.420021272888675,-11.741198260552416,-17.245404892708372,-17.466764367451887,-16.398481781106035,-16.430912333567704,-9.743450749664593,5.497836854026865,17.419471326244338,16.485504431597377,4.886834917548912,-13.34393448614092,-33.254778134912954,-44.4308011143949,-48.155796139060186,-58.09660197640055,-70.65963094622249,-78.9724377981255,-90.29007612319782,-83.1045014135747,-20.6206220486753,124.2407405859156,395.6247180703057,652.8038267341027,477.1622355898928,-172.83995324970817,-623.0940997381618,-463.2572375682012,-135.069181492454,-43.844382283871106,-41.93050801468638,2.273609355956637,11.932151157707565,-1.063673473771857,9.840178464005216,13.539978355992119,8.191110682967464,13.496551252624707,11.98674791033044,1.3225250184924757,-2.1314532767248906,-2.532331092019942,-2.8920479258953344,1.8421476298618296,2.522976983694298,-5.24476337807404,-4.559982909818338,11.644628616938522,26.287783230980885,29.367620873725585,30.999636275654105,36.48164175176765,38.43057478646386,35.34028028060856,31.57909519731212,24.360294998099,10.023351821179412,-9.575079598082764,-32.52746129905186,-52.365133777826124,-58.836080835719585,-53.98696215688396,-47.99401812007079,-42.77147672392822,-36.691435995016015,-30.054415345679978,-20.135303252979874,-7.238807641480152,0.9118195338417561,1.8123477625813678,2.135072993655907,4.370398661409823,5.60190314263081,7.5235940143251705,9.723627118888922,5.9757392990559755,0.46050597276839156,1.7870752364505371,3.824446081829654,0.8593782977133362,-2.3239864704671813,-6.929389475363326,-12.99438501116717,-11.863869373639801,-6.581394098679787,-6.4693842877691115,-7.592282696539813,-6.825191541204861,-8.490439867257535,-8.631337627633012,-2.233635475750008,2.836012601622823,-0.35484015045051187,-5.010231954110968,-4.102895461661577,-1.021973444901338,1.5123822953922232,2.8882356732987944,-4.414946362842635,-17.87829600987593,-17.587207463373428,0.5879091911408207,19.16152996328855,25.89236981395839,14.896116772321742,-10.13671535004604,-29.81898812575453,-36.18556133270494,-38.88469979881995,-45.91663604289168,-60.97631020600904,-74.41684931952985,-79.51836394592101,-87.51241728642255,-73.39616888533442,13.502742736888294,200.9559556394214,491.0923685605121,670.4500137426785,346.375452908548,-337.3617138327148,-634.6342535411712,-346.59406907134985,-58.4453059168033,-38.37459239043945,-36.18583171396589,14.362081073751355,12.834948187749163,-2.603530156912134,-1.4566902792369127,-10.123876709889766,-8.042453052976198,5.4174014706781675,1.5412621436936371,-7.16606916738839,-7.122433283035962,-8.177890074259288,-7.757848672732451,-0.8583735373978534,6.10379405469837,10.15622298305434,15.22898626631478,25.555082839738436,38.17901635913907,44.64828747160202,42.89423778037409,36.44277348265068,29.399780801086415,25.897126043063047,21.79982769518513,8.464412123150922,-11.683364201503448,-29.88159014771658,-40.753530563719245,-41.78202037881474,-37.95014646912735,-37.06286112195693,-36.75573467329525,-33.00109433738049,-29.477940399686904,-25.597552949692755,-14.637161713412745,-0.041586059333281966,5.091154481323585,0.22436241813686664,-0.4737227808218343,5.747674920031629,9.248558120823208,9.919884223134671,8.60251375893668,0.836329301252146,-4.585179473658004,-0.9651627687445448,1.3687136364850945,3.7128217537426753,9.724279369660557,1.092137677047365,-19.934264607207,-22.79699358708138,-9.064923061644093,-4.6468181460699505,-10.470478007963363,-14.948230256480784,-14.543806071016725,-8.656505822467517,-2.8433109795396287,-2.3462294216802917,-2.3913868766625015,-1.1481560815963743,-3.281841925404567,-6.524518273072182,-4.020660985337695,1.3770270585731392,-1.7245358368631685,-13.443292233402897,-18.54150576162533,-9.708781001770287,7.454077326278778,26.55988951171784,33.403656683282335,16.201385686770813,-9.222346596067725,-23.521455747951258,-31.600069342603096,-44.40626418642468,-65.73598424718901,-84.67411179693427,-82.91628897264033,-76.24870940033796,-82.50368045338689,-59.51390242370376,49.43322259290167,285.3195906117876,586.6296220862731,607.2060030451041,85.90490757236884,-515.6962387767712,-547.8219226171093,-194.05008079706846,-24.22081933809629,-44.34447842517429,-16.9626101016475,10.101894221228484,-13.947782781706042,-8.46302808981557,12.346857715132233,4.663567001427976,1.8233352237436007,7.869181413096984,-0.6061891753872928,-8.592223060098744,-8.289912094346484,-9.70631196583108,-6.944403988619686,0.24428050607900365,3.221520926495065,9.275135062096613,22.43946797678956,32.53953741244627,41.88238389598585,55.25026029808687,54.92053162787998,34.14658933931668,19.010222234507076,18.235930130527606,8.898648107785991,-10.544648231851657,-22.122046400340114,-30.561883991306786,-43.08385873459624,-47.21462602623167,-41.50543853864979,-38.615218482341916,-38.16985638528085,-33.15762160354039,-24.30557544305002,-16.059079344866753,-11.839112865849495,-8.357708785948851,-1.0080293785206784,3.732136068890455,2.6987057908178986,5.047125180273243,9.441725996106724,6.431625995041484,0.9768329726529403,0.7986447478072662,3.130912939124057,4.308060835865808,2.531411885710826,0.15850150030260224,2.77479338067967,6.047044140253203,3.3996111811374217,-3.0940390981092527,-14.577146612593035,-27.529259556076063,-27.117330824145178,-16.253005133009847,-11.779625545735104,-12.031021745239887,-9.241359046802778,-7.092245158909085,-7.253648416095995,-6.435191956355148,-3.5705401369138308,-1.520134594977307,-4.126737025194284,-6.447460468646753,-2.5353179452752848,0.4566500152431683,-2.4247383177918547,-6.711441538035023,-11.425258267510563,-13.951648054709947,-11.08817890926957,-6.010908924579739,6.895708263933048,28.061009425567836,31.429244847107025,8.540804884905093,-15.642458683642285,-32.77836129436457,-45.72061909232833,-49.17185884065595,-55.59160272067273,-67.58354643377888,-68.36608057605793,-77.3443337667614,-94.50232521777019,-52.973829816669785,90.41209725238481,350.44059024629877,627.8323038999098,548.009515189031,-48.30688488116397,-575.3239608432899,-489.98342954072905,-138.83137781713526,-26.532680293247523,-54.26288644337242,-21.924498269282807,0.6043087019558868,-11.692771998210123,0.27438436986308634,12.764227897530526,5.485677623901422,3.7281631992688222,3.995216649122373,-1.8315991334735653,-3.5274884163452835,-3.204526901343714,-5.167495465971347,-4.011245608237987,0.5183107259460341,5.357034794796826,11.235763849435799,19.059337548049456,27.35996293923111,33.49498594175738,37.97759047067748,42.729092789582104,44.85603170233912,42.59404739546208,36.531969651179395,19.203399896172975,-11.53801431314644,-36.508100367797816,-42.29697845273503,-41.521502755910724,-45.45331354242735,-48.28441167733166,-45.28630464039902,-39.290364061455946,-31.97290078783769,-23.111935732405115,-14.919628041306392,-11.263144628273242,-10.316955480131693,-4.533890553619498,5.752981903757561,10.367018778784036,6.06795975849263,1.66398919151559,2.9741441622004583,4.7211900455631035,2.905447998989656,2.2373225753547095,3.1538502701181317,-0.35405353945579776,-5.771812193047472,-4.919416924142393,1.8368753069273271,4.36449490557381,-6.687008119785627,-22.34167036052486,-23.068181106578656,-13.061181080683621,-9.836606838095118,-9.869121815665281,-6.654733729701594,-7.018607421516773,-9.604381378001346,-8.480682287719699,-5.686101377175602,-2.4921106524115686,-2.298652554962908,-7.585396615553071,-9.356889079968674,-4.614866169948137,-0.7794143120703385,1.1612478457084858,-0.4318676500748442,-6.073201115521453,-5.131217550342033,1.5629761079225766,2.5401425361246934,1.6454746441174617,1.7052729316148412,-2.138245822538284,-1.6068855845272232,2.1273204602677183,-8.399392602213593,-23.448423655955104,-21.488308290609876,-10.787162260568074,-0.10088667211131597,14.557142632908123,18.689436099428175,0.9649547577127962,-23.319289077179775,-42.964383409940865,-53.9597053792388,-52.699435908056415,-53.35643691647567,-61.97127926293168,-67.1319021086349,-74.21884232306527,-70.8739053840179,-9.192995526909797,153.79721506563888,437.118092328848,661.6676520635729,429.5590031051888,-226.82176382257302,-608.2850679932785,-383.0043683211826,-72.64257135599934,-46.853684231579244,-72.68193514336518,-15.99963767499397,-0.8503286729476045,-14.752182897663115,4.340693451533102,9.695597380920166,-1.877312088003663,5.338006743404682,8.838339309063322,1.0445700474012956,0.16227309875078433,-9.006378732343876,-24.672431227387662,-17.97163445960598,0.24470913310468445,6.385411171737152,8.970045804836655,15.300154775095525,21.7659801015647,31.435345516872964,41.77840919099518,45.43064362962903,42.79563789830015,35.53164645317999,25.684742369846916,16.282037090491833,4.254682430460004,-13.17410945402176,-31.543025769448732,-43.558969506042835,-44.259327587696994,-38.1030811022687,-34.660981514708155,-33.433029107465416,-28.61931261749291,-21.9033956316917,-17.778057518764896,-16.144386088325405,-12.55466796294754,-5.180800764733348,-0.9015410808612714,-3.160550407427131,-3.113931746945026,2.9066868400437578,6.440371008459952,3.7998647843155506,-0.6790197139649408,-4.0046595858564125,-4.4252921136029695,-2.1968401621405143,-1.689759401414463,-3.11794079845164,-2.5517192211217363,-3.963194789568149,-10.902267711544347,-13.149989805916452,-6.001905729542663,-1.9415598661766342,-5.807494035885114,-8.46067687786825,-6.517866225888621,-3.611360371902599,-3.6493989019759105,-7.69336257914583,-8.691257408392422,-3.9163435700749343,-2.101010989495693,-2.546442743998295,1.4641889998643336,3.0516647586802463,-0.6068886826949651,-0.26973771610343356,4.263749874001435,10.051280862460303,15.67267102016348,6.2977288982059605,-21.04136516176007,-37.81363375685382,-30.60191372364688,-20.54440444065983,-19.51085832174777,-19.64695559552884,-19.43380465413085,-21.112683481841934,-18.170378837343723,-3.705060721003896,16.86553943336159,26.225494741839242,13.93838631281205,-10.769895513542263,-33.13820797187755,-44.540245162356776,-47.588101212184355,-58.23101051156883,-74.28482779853884,-76.04236248485157,-77.0756048843374,-83.92259023003648,-47.073730837053695,76.04648565851899,317.2298191441418,611.9582589285644,599.3955806815634,38.957284335809206,-558.5679210869191,-561.5090528692612,-205.85714766982372,-46.40478898174656,-59.95884022303893,-24.445645868012868,8.398963904871778,-4.458904155506339,2.694944255195562,15.475935336802378,6.7434731002793065,5.005253959767767,7.296724698920546,-2.7230190121190674,-8.072493423698344,-4.3585328401563235,-8.787548121994535,-19.303142253617374,-17.99043761115364,-4.879037238988016,3.818294198502749,9.139257071933676,23.41889910614911,37.21152309210753,39.87817051268481,44.93311490690394,55.708226862640586,54.337186040828556,37.89939790805741,19.305916333936363,3.9504309294100874,-10.718524533732522,-25.76657451436013,-34.29928858451589,-34.06412942600555,-40.564048716712875,-55.40398127788369,-56.39150081542966,-46.51745573911839,-46.03428897564527,-44.516205983679185,-31.22787249294113,-21.580704692834086,-17.110226162775675,-7.49602940216926,0.2207100874603114,1.0621742509567014,0.7520872767574751,0.48682781165196154,2.631376083209915,7.274983696492825,6.125905989288356,0.6833762857142531,-1.3498923910435146,-3.0727199895343205,-5.222978412694875,-2.939187786399147,-0.9133188665310321,-3.0450401238283025,-3.5928850563052226,-2.3922258119474886,-4.743704843807789,-9.315425198769718,-12.529992735653142,-13.047803744853098,-9.28875733986933,-4.123154031986212,-3.224476391792212,-3.525900075542845,-0.0652671793252324,-0.26633941431725816,-8.960537232074675,-13.283097224689492,-6.078220337748093,-0.24297387917823343,-2.3706409680026317,-4.024062454040584,-3.901490721150406,-5.6383995716808855,-4.578452872189211,-1.410610995683248,-4.659604498221146,-10.596222461953541,-7.660279336450912,7.154558553626268,28.09172487921622,37.83646050086236,19.95708160516395,-13.631910831417091,-39.91903933744102,-54.060059769274034,-59.276550049922605,-64.111025175897,-76.21099394205211,-84.85669868016556,-87.74808334657892,-86.2683035582573,-42.731322207523164,90.30985665140769,345.2320965401874,639.9183877792962,616.6384883377613,52.74960744957369,-539.1134478497074,-534.4416872729048,-184.03586988102433,-50.873006475378574,-85.38486003549208,-45.23350040909189,-3.053082384652541,-15.264463978938036,-5.534397268091173,11.620885956093563,4.15270506540444,4.481203635312482,11.757285718586836,7.217290531264728,0.26402817867206885,-6.04332202458425,-10.69275802344628,-5.018325128719936,5.122056861456521,9.253519590864855,10.697009049748656,17.529433798513512,26.980245089762004,31.069092894244363,36.863627028122046,48.40150037999713,46.87003484167276,32.84604001840667,29.614416790007738,27.884923405453954,9.173026910168511,-12.50453526802833,-29.038386252457812,-44.619188715736655,-47.51964395546494,-38.222535787967175,-33.92243294155547,-33.27348839053793,-30.756763151224177,-30.166734108184265,-25.70535910734292,-13.55367112947605,-3.241796948605339,-0.2796470644883353,-2.0969476036903725,-2.115050465410027,4.10796945123289,9.356613977532769,9.407619720052612,10.20961048776666,8.653733740434706,1.3869526190949788,-0.9040334859794639,3.896023454094328,4.168700110042752,-2.9055930654389037,-9.8404559977173,-10.872715783629118,-7.517909074105503,-4.415515646821613,-0.2036947507605209,4.057646577849166,-0.34125109209257865,-8.91330577062666,-6.754675063935231,2.6406165411862252,2.777275670775225,-9.680399517825162,-21.35448422038074,-19.284667380770987,-9.072127802327518,-4.8330484321329,-4.914094376841518,-2.076838220911055,-0.050428680022630346,0.4351416976627096,5.2742945490851705,12.594690502282955,13.388747085532895,1.4635478261882753,-15.701523737424168,-20.354194769002508,-13.151074939840818,-11.624306968159619,-13.654949950879388,-9.46541625492538,-11.796241039397131,-24.517531360594802,-26.24348320180149,-14.072092814046766,-2.726754864451207,10.033530716549265,20.27556450458419,9.361098267755017,-14.72936791642922,-31.956863934058397,-44.13090037804591,-54.50093155248798,-64.71735423974431,-75.77199310480732,-73.09556219929053,-66.534326381097,-76.77693918333597,-57.78641745765688,54.3982744982889,287.68930116737846,584.920558868675,629.3172826874498,137.0373380405073,-483.4283122646493,-558.6523302889605,-212.04736968044259,-26.739547295679046,-50.75795425714638,-31.48551940753549,7.167068573137335,-6.2606216827310135,-4.270254146928175,14.608985664279054,5.2615829536377845,-5.535864876253433,1.1483070713148145,1.2752380543203952,-6.22074389479722,-6.343359545285704,-4.089824107570732,-6.016202327377127,-4.07315916994702,3.758139548210497,8.76817741498698,13.446164170521236,26.133448567586793,39.70298406258591,43.27867775191245,39.7808710159631,37.56009700412422,38.516219017635684,36.413635969288116,25.73517355086545,10.611108500898865,-4.836101869640239,-21.96382077215346,-36.028910798484844,-41.29201016865669,-40.9724934161891,-37.518000500175354,-31.337276365977274,-24.55671894467793,-16.007631970929204,-10.999385551398657,-19.464955333744744,-30.329920856374724,-25.365760951552673,-11.747403894385165,-4.83947052713456,-3.2519921555979074,0.2023820943161212,4.6617986928601916,3.871662204885066,-1.9240072487927087,-4.5429216667276116,-3.6643968487467085,-4.832819883927771,-4.569517660957853,-1.2142505917252286,-1.862074489500399,-5.763153876180553,-6.783980231291485,-6.669622011566458,-6.8614143673453025,-4.456023558088312,-1.1294729270359483,0.24803317011731707,1.3013146285657484,2.1933988439629033,0.13261868112554076,-4.955880971741793,-10.11992416326525,-12.73454070893425,-12.13077184042327,-9.638985367046208,-7.119994842146905,-6.408697333356036,-9.053058554572882,-13.134713757259245,-13.942772856638133,-11.233419415894083,-9.276315898776959,-8.355265312638156,-5.83384009320023,-4.171998762115823,-5.4544040962902525,-3.73454973249844,2.7719406807758347,4.477685292807245,-0.5703756111728175,-0.9472038944829713,4.119352784583825,0.6844304113934072,-12.643492865153426,-19.590791608621036,-15.072702128588077,-13.336780625425472,-18.69797389983553,-17.65387915960787,-6.675614784232478,6.001865840938136,17.40150427240333,19.364235726977782,2.8458855605929108,-19.933738882026084,-35.49814778061341,-46.3352337274798,-54.47837675886714,-63.08338408856471,-72.63007381230408,-76.03718267171342,-79.51293814251561,-76.2311290608842,-24.957151967257005,117.92961733051648,388.23485045886946,656.041683368098,526.6893633576276,-89.92456472137596,-572.9197580057964,-459.1366905865018,-136.05523605377238,-45.24727128230413,-60.78055848499803,-20.464848643314795,-2.312211020250814,-15.94442806046131,-4.449459028515848,9.589447447137243,9.250263855956483,9.743544942594529,5.204637856306359,-2.740524943329868,-3.035860166329746,-2.621337216035087,-4.237228843561544,-1.6714779409247065,1.1425432984021593,1.737323855591412,6.2726945824286675,15.822194383808181,25.73089240130974,31.614999887481382,32.23890756577107,33.940894943711214,41.7346531051673,47.848424498123265,43.02688955188807,28.899569614523863,12.079828108479763,-4.165479943694376,-21.262045141135324,-37.341633388407466,-43.74977648311648,-41.53334166732674,-41.57516204628106,-39.880695033017204,-27.879613744446328,-18.98573259814495,-25.048874478432527,-31.50699533524726,-25.285753490524726,-14.674833928666184,-7.648771701736909,0.1619211779764509,9.912487136423977,11.991413165088172,2.986113275851885,-2.9739100297610097,3.044024242523413,6.867371189445486,-1.1184191797729923,-8.376655960377402,-9.421650023064402,-12.771882799934488,-15.16186552490109,-10.499850232138648,-7.719444254478873,-11.093397951770534,-12.840661575323256,-11.528541635632457,-9.293418271604722,-4.4116615779651305,-1.4537965627083498,-5.767554340785194,-9.918364655068238,-7.515233707431193,-4.574612976632736,-3.852638700637428,-2.415998629680576,-3.1972928753970997,-5.3597056423342835,-2.452203428755851,2.150660671836973,4.701549874182463,5.781192634482952,-3.8700391164307497,-21.200124516463966,-23.00177066978868,-11.276333384255516,-6.339808107391697,-5.441083560357811,-4.518792350520975,-8.362801266473648,-6.8314974754150235,0.07005434783019737,-4.274253388134422,-11.595890941928324,-8.171964431014434,-7.2168984120894795,-12.038364368033196,-7.850820689923422,-1.3323904205182409,-6.97857600754773,-14.606667440507277,-10.921031404100145,0.6786509651685799,15.454794284774987,27.556476123899728,24.475452399757245,4.342433108118904,-21.63704214623491,-39.50053840730524,-40.333586227578266,-45.021199506068065,-76.61780459886663,-102.54612452298304,-97.9611203746457,-91.20069697897068,-68.06804934636412,29.476533682528967,240.35064709218096,541.0770686522411,654.5148491722177,235.55579910167484,-417.5715050581941,-586.6857692079208,-266.62074214743143,-49.71016840016422,-58.47847826744358,-35.526190436109744,10.50572137663712,-7.666976211972148,-13.428216121468756,10.295330075106596,8.537564083337012,-1.918724878660175,1.1322794992635483,1.3457201494436308,-3.820565264658459,-9.745827975006156,-14.76059586633586,-10.697609568568735,-1.5371974587408763,0.15761772845839706,-0.9516958460301321,5.697670903534125,16.960663221676477,28.54328164241309,41.7774488550956,50.97932165467558,50.52724879492818,46.325290993702566,43.71676713100894,42.102980453961415,35.666039560665816,11.895280361089585,-23.571244630364713,-44.27475867044849,-47.817714453370286,-50.43578165122868,-50.21508701874137,-49.63581808236381,-59.18964260618967,-60.67700491591552,-39.53397413567825,-20.94469481671791,-19.059143993132842,-16.4069403974268,-10.840197541246866,-12.244344404831672,-9.741389705150091,2.7568713627777335,7.077544048411189,-0.8933574608805372,-3.3708942457006437,1.1712157145826794,2.0172823683844445,1.2476171705938341,0.09864844808654638,-6.3824458873216265,-14.255040117990834,-18.53872744030419,-18.105373787570187,-10.407957094222638,-3.337749752167003,-7.452095832847242,-14.262394486329597,-13.239843971816752,-7.760044075901096,-2.614503015134069,-2.657922947115896,-8.774780592963724,-10.948522876348537,-7.988630876871499,-7.943310971230741,-7.015303885127915,-4.539570521916463,-9.24368864714033,-13.91756219565874,-8.208362262047128,-1.4579980181064993,-1.7999676682004733,-4.266682333777082,-5.248039716536937,-5.548497991481353,-6.3475445923210945,-6.765030178145446,-4.952591446819866,-4.627430494241086,-9.322203506796116,-13.928701636261277,-13.026825004195763,-5.93971647581105,6.336763286941505,18.58055464135893,22.343021049819832,11.643861135139119,-12.68873970163558,-37.29497181704862,-46.461088475743836,-47.11684702415472,-55.706175222823695,-63.03958419209718,-62.51200134909211,-73.80751523490605,-80.6134127520495,-30.14615722038475,116.6999301071783,398.0049138344401,673.1685095347516,516.2430609000148,-144.14636072472487,-622.8592508970642,-460.88273139212123,-113.88339909661295,-32.61187521230317,-49.16361128779867,-2.653759619161562,10.46080084778913,-4.513180526251034,13.942069581254016,25.453528315180343,17.41256023137771,20.119720224503098,19.364167404483034,2.2390735801194035,-12.92016721238292,-15.440290030719519,-10.37670392632473,-7.209457020609367,-6.655509419489832,-0.5069616318651375,9.652082467738193,19.143011925232972,30.042684113088132,37.74151343642636,41.658850154258005,51.16254432514081,55.77855367050665,41.599541504339086,27.545000145178676,24.60941438889529,10.732154021842996,-15.473418943391192,-31.138529398493827,-37.49306398704465,-45.83500230274295,-49.46545863716513,-42.91949423340541,-31.17421116975185,-20.239625881340473,-14.95094733039406,-12.321918930949767,-6.523525587933078,-2.1737857166675756,-1.3204371130127441,2.8063308564917637,5.241693014522083,-2.5921085395509778,-8.64826531634889,-1.1652118951602182,7.260918037973082,5.041706492290899,0.6400799246244002,1.0831820220397042,1.7537506842659916,-0.4363410538735888,-4.207441727738468,-7.47356653891476,-8.149253770066526,-7.656674674142014,-7.723177707635179,-5.77860252509943,-0.4381154268099987,5.894146877214781,6.611267111436792,-6.527387731486625,-24.676226650179537,-25.629665166962567,-12.60178455629261,-8.744209200408193,-12.531500707068274,-9.39417182140133,-5.752017007032265,-7.5086797036078075,-3.5410966479123482,5.123794519485603,4.526740515904805,-1.102187326362607,1.2142083722759391,5.280054812878135,-0.2087767481109033,-9.55075848588382,-12.833960012444733,-10.889699557352245,-8.54301446922443,-6.250014865773242,-1.35306845933186,2.6306837215798335,-4.5731249037171295,-19.146429712981742,-22.590849025678356,-12.890238949601578,-1.1104247483956708,13.20863856901445,24.16283799139117,14.309597285291426,-10.863766697697116,-31.43277727529636,-43.0298746520139,