ECG,34.09415305817545,218.0672738605798,1279.712876253303,1905.0119066138118,1753.0863938162354,1964.2123574468371,2277.266848508063,2021.9315205991545,1765.3971012213528,1704.411481076174,1415.5054539548937,1132.6491634011238,1090.8060655240984,989.7600291425019,818.4241156907483,762.0447421523988,716.8005329445284,667.0026869652568,722.33000154304,754.4950420533303,659.1043706969949,596.0147570196748,663.9675570086793,754.391325905121,759.3320922327721,700.5347765638699,702.5333115768199,806.9304963686361,852.4612289664092,759.7045377055347,717.7908172288007,801.3297254206316,800.4131169375817,661.7971796334898,585.0908888286697,612.7792573350218,636.2661550394184,648.821647289544,641.1171011912829,599.6495032142655,637.0865212590959,733.5132481980927,696.2464366276577,581.8370530854686,592.8525592301344,679.5900901336174,711.8565069671031,677.5106702249261,605.740498377731,602.7518002001225,695.530706716587,695.7685195156234,587.3605650562461,577.2938141088393,636.6279218048439,617.2796353107772,582.1773052279013,600.7595523856662,630.5308542233347,645.903541699121,617.3364044265318,554.679010776309,549.6232438950215,612.3352993254982,647.6322526880979,605.4431956390653,531.6852055823638,511.0121743501736,553.2568574512493,579.1133860750625,552.1129087033019,520.3357566139944,543.4089624693245,591.4003251200845,544.9749476917525,430.15978620181454,409.5966874842725,442.69189546268626,413.481446276367,400.0696123158384,421.4592566937588,429.3752666109758,550.9070521380335,833.2634689123279,1117.415677455809,1190.2016815046704,785.4057761279435,74.02536484419704,-182.38980409877195,153.31188622472826,370.66467453689575,321.6402901127624,411.7004391963113,537.0278972103433,466.64860780044376,393.74610006073317,428.55539108640687,457.05824984954006,450.35488936259594,412.84594116186577,372.60434517870476,408.6155404657802,457.6178077942583,410.06883694512214,347.856976506814,358.77445568878534,378.50217414572296,381.46850751077307,407.4118674280792,438.18503508463255,472.44352961424863,515.6138900577126,484.4361450577692,393.8769384028176,393.4367658314188,442.77172622779676,389.89939203132985,307.86832540039063,298.52654663093597,282.6429627674796,249.09793043993932,268.3043672845797,292.6068190305451,294.3971836115837,320.18058301983865,315.71316449985864,258.6604480782304,270.9630171538612,342.22805853485363,321.82225036367083,248.29793425726496,270.90443282812555,344.1602748311203,335.0379972009813,271.18573930016885,258.9218703190179,288.66152303376157,280.0532118421538,246.70774286893868,263.11555807866324,305.44909392191494,293.590904894583,245.77115942676437,233.77681649000306,261.1042463677777,288.18068809181557,286.0757915381306,248.32155477440153,218.72222092055517,238.14860097901078,256.51397520466907,226.61435361824948,208.07878812433546,231.64118213326594,221.40473531530836,161.02039630915368,121.83420250621248,114.89487573048086,115.67170004140621,123.13667212086654,112.13062987207991,106.51731230626774,206.24417688851543,451.1081870281492,802.3399875285546,1033.9438981711435,705.7563378221223,-112.45586175780522,-567.2775190293502,-278.35212066510155,99.44667639733939,132.5232455058166,114.0146683181764,187.44330283182563,198.69736493232955,172.79505100770876,186.36769246557822,193.9237582770724,189.84765494157602,187.0604946486585,161.92223733718123,146.77893473599113,167.38358475700898,170.90419632627749,142.78831401137245,132.85967858835238,158.87537141155366,195.6419792739053,207.25992839071455,188.8378440560798,191.38564569769267,226.88489942945563,232.8873573306014,203.35966907385534,190.77263804702397,187.81340337817102,165.25442180298427,133.70866073724395,100.28203851046513,74.51570361793992,75.74472325615699,83.35820852316814,76.63176483991288,85.4230098771456,115.22179197415625,121.79455392548078,104.22010716323135,106.8482916314822,123.78648789210393,114.13403274815519,92.17198677237343,96.96927760943908,114.56625389488053,115.66566424683083,106.21685245072621,98.9539432984846,100.3867211848277,111.90378426070549,115.70220528217806,106.95878879673455,106.55954047556156,113.59641088399889,118.6686892754314,128.82626590816483,127.41438542331994,104.0490489316239,95.7024529651668,104.39496231578511,91.5500700222193,74.79192988386168,84.11062555258411,94.50092039102202,90.36701479308718,85.45469230152636,83.06853467460664,76.48898922176261,48.469236501185634,2.9889717997378966,-19.285952553372027,-17.426816813729587,-17.95126404002862,-12.723017567108514,-11.563722524680003,-10.382441966832744,78.71522762762322,329.2413834625926,706.7408342834626,935.4506363191032,565.1673522926939,-272.0103464198021,-694.015138740036,-382.1586664889282,-22.142221994086725,10.655808023756947,14.93707178918504,71.92971430045522,52.0763707575735,44.09911352788505,88.20818503563781,88.52976436517179,71.02721727565182,82.84365064971223,81.42883046402108,67.45889833320862,66.52902178427416,58.809151819986226,47.320680569478384,56.5353143772829,72.12622827025828,74.29358141377259,75.17069003053045,90.43670820527214,112.66247082562296,120.5175799918232,108.30734227038445,95.34257927162908,94.01511687872454,89.57056394375448,66.49079135049476,34.35257726648794,14.347341959123327,10.112020212445998,8.028793366682905,4.934856633119637,10.0748656645777,22.228183823392698,32.343027054561404,35.93791309595355,32.2285862914555,31.627910100538003,45.3747689836901,57.30002863151577,49.80634337483325,41.72665158935774,51.245611016311244,60.53355100350791,51.124980147814995,34.815592602212774,33.83836934635431,46.21341614354138,45.60190245862823,29.19302465165306,28.32899286194349,44.04876370713613,40.0758072361414,17.670834304822293,13.367633168645824,28.249331269193206,34.94905307586217,28.997237370290236,24.14750892331255,27.593908636289996,37.140534680621464,39.308957904171265,22.731928891126756,6.302718374831599,16.724865275130014,39.743904974567336,46.81420362390493,45.06198026398054,47.77748036633636,41.753676653677005,15.399646999071877,-19.354599964377137,-36.45447935441321,-32.135636906065585,-39.3273217666481,-58.40425014146313,-54.89683293345409,-48.936806332187786,-53.802126669954674,4.3284916593476055,203.82405578261898,560.216068402034,848.0484612799451,574.5945651199281,-239.9642496284685,-725.2328440698145,-446.6929185272819,-57.53566414729654,-22.57197504801077,-44.69646388928691,31.43762638823046,41.82958302514389,11.66383634767633,29.143853683182357,42.520562332413974,34.390671405910844,30.636397285029062,19.611894142652716,9.878320127481196,17.111097060975773,22.795304481948598,20.659872064101393,26.18951703718298,40.46612158192767,50.313849479150214,48.81802743662925,46.44754284705438,57.811615468591285,76.70628404092781,83.33487553225225,74.82399908378989,67.73951307423656,67.36751937100404,56.1690105170634,26.38562592037008,-1.9971590693556038,-12.9478235492493,-15.627841980811365,-23.653583667226435,-34.44447536923617,-33.45241562847579,-16.09636511195953,-0.5112131215584839,-2.31067623652795,-8.15408843143312,0.9466522469318726,18.250382228731205,25.059639568581485,18.158723505759188,11.120350130009395,15.940921550577464,25.412241674143054,22.51737994669845,11.189783150946482,10.742408209975451,18.698843699288823,19.82340998348353,19.327247174375856,24.187729540788,24.42705488447247,20.507245256452542,20.764481284056657,16.8154606994817,9.691338316507185,16.905718702656344,27.12795067177626,16.740589073848692,1.3273980436957054,3.4470451412178136,12.66913762669401,15.75141100564029,12.584391664317636,5.105057345271433,3.5512585386088524,10.60386707391853,8.509486066515503,-1.1704350766834821,4.56477719106908,17.854794083679522,16.019710103804712,12.261233719183046,25.32553680716951,38.422011609073735,32.06060374514981,16.353415431921828,9.989672240619377,14.382637281026362,16.943182163052658,11.107199394677156,4.478617012618717,3.649955842605813,3.713287942791146,-1.9874255972952266,-11.221786319956276,-12.882275524199855,-1.7803636042247142,8.382933027583507,6.937587453497333,6.859329106137469,17.874761499823208,28.285543166505427,27.631553289143962,18.49794337144346,12.441109501751303,19.44917424216679,26.96746277873047,20.228613817520635,16.45094906239294,23.49554650955299,13.766282606762825,-11.856418553437305,-16.946585284498703,-0.8227925313751641,5.837830417011734,-3.1504494571046138,-6.941148589925842,11.588303305101958,36.666014390777605,32.28832313123634,2.127703351326069,-19.639374416027497,-32.62624609332046,-46.67119530821291,-50.59980066816813,-50.866715974559845,-54.80269244177821,-54.32179737346548,-67.4699876353269,-79.79133188334956,-17.155584441661574,149.8035725002214,420.10602917453207,683.7917739795781,559.3999008812749,-76.14899040610875,-581.6535014848187,-448.9527013980039,-105.35189140258778,-29.621284699673357,-55.49816938996159,-10.116770068271194,2.3327194072563096,-10.707113638410993,12.748495413656194,20.039198116851914,7.362675805688335,16.026569949007246,22.73589944942396,18.755846246021328,21.630036166747445,13.533171244557542,-3.350728151513934,1.8155679745625868,19.31472764393544,25.705839920889428,27.68498313742576,33.15772070117873,43.06689855403685,60.04956873865245,71.70095620771328,64.47782766699754,50.16755052096019,45.174029395099296,45.141664353693585,35.08854155421998,12.570869209058213,-6.6658746308750985,-14.943427084934537,-25.716941130205146,-42.081012426353446,-48.0061237403138,-38.927262147000334,-24.27566509263923,-10.876629792804351,-1.8301786374320366,5.877276400976329,15.263437613543932,17.088401593712703,7.261055170971909,0.09872608141811146,2.0848522078210925,1.5913864477508595,-4.474873774749726,-5.295502594024018,1.4710966721546557,6.663372981727175,4.307515037946939,-1.715724573510947,0.6945513119807707,15.136726614103239,23.28123507108473,15.26438609550246,10.31319671942559,17.60017972052055,24.438403099043633,27.073735898758272,19.7828643246376,-6.243963729454523,-27.84077768787131,-24.12240671465817,-18.229046149502302,-22.496457070903766,-15.493479669187735,1.2896279285138936,7.104874573105832,7.325454821712776,13.991379278023391,16.139666143464705,6.03679565614468,0.6639211531705804,10.903803332768756,18.589080966752185,9.429864186040245,-0.6266787863101015,4.791258681331886,14.030928692499419,9.238430654099933,-2.1886840677400397,-1.7671536317173917,6.7146697609469115,9.062417014962769,7.65027441704806,9.316412984035143,14.368891916650222,20.64115894439473,17.850933579634464,4.624464727395305,1.0424423154697031,11.541642430427798,17.168027597012326,10.434863719049826,-3.105670334048531,-10.186380183800154,2.4817961019791444,18.146318539601133,17.320222640960587,15.7140222755762,16.663618232087497,1.8939284895316568,-17.90780336029441,-27.236902970233842,-32.52859325650868,-36.98850706479762,-44.95946861536467,-55.74143461132398,-57.73720588220665,-56.886767728839004,-43.69245706999051,28.040086630916917,204.88161195987513,495.85825598789444,681.13932375352,364.79176291998385,-319.1168058444581,-626.4904892466694,-339.28828606948923,-43.925735556757026,-33.94902654886068,-49.84651330318779,3.968198116709928,16.608611812656328,5.67010133840878,10.909703067968856,8.102034969599304,5.701516865176789,14.21640294506544,15.495243944759714,7.559459799354023,1.080445648444309,2.9469718756107284,11.029578016867077,11.144179145354538,3.1281603190133502,5.200189511375253,22.535255923375917,42.40250364585808,51.25205233323757,49.294311116407314,52.71724483676117,65.09071109357268,65.73764538829414,48.153280254877835,29.806752057232735,15.384686953449368,-3.4427278641522534,-21.552772347022362,-29.652883206070463,-29.860241826904186,-27.944549771296785,-29.138182494496505,-34.65766123910589,-34.10686277694923,-19.88007422399136,-4.375869088911308,-2.42604708778567,-7.112785179217804,-2.3500739018032806,7.9441098413179905,6.378094114438735,-4.044399900050769,-4.726929761362912,2.507378621510945,3.9435566768974226,5.101088804597072,13.866259215926373,19.956210424342544,17.767536796241952,12.894186422044443,4.4701516646984,-2.0744902548402884,6.186592142087198,14.600529036876862,1.3861921040604548,-11.062535196038034,1.4229285894080315,10.774586132297676,-4.118211161549097,-15.253697247292859,-8.287241802640224,-1.5229002819580812,1.4793033483617115,2.396089898741173,-7.988044241198622,-16.155892875360507,-5.486507748838537,1.9466702904898325,-6.662297101088582,-4.773176553870322,13.091830294524787,23.146840938768808,22.179487441398777,17.36372195477569,9.3257172567839,9.504598582391225,18.746157353216944,17.307511639057726,6.034313791766634,-3.2367975167022482,-16.076356877654494,-24.46194775009407,-15.652120472408118,-10.775872636210803,-18.859107631411554,-11.713572183607457,14.618194488014058,31.792551150084897,23.764400336303645,-4.114031774956301,-30.070749892825376,-38.115036136771366,-40.08092008110158,-46.854224380979204,-51.83422829237905,-54.06103788075545,-63.872892786634075,-83.4042818015567,-77.64465658714691,-2.9440746052496323,147.4671682695968,388.8496524048203,625.7019514745471,493.55147312241303,-123.63597784106325,-620.9969091027391,-502.74069872182884,-149.68174110230007,-37.4834655214704,-48.2445886816098,-4.576268383588214,18.73393237798254,12.777687584375396,28.886616413351813,29.123301866688685,7.2823046793076145,7.905717921217244,17.818851829301348,7.274415659035277,-9.164972081792229,-12.531543531006193,-9.241481363951282,-13.996778844959456,-23.595572913646265,-17.589897301314032,4.5124175251742695,20.5465426791012,29.658931885881895,46.61106433693898,65.31867243984503,75.0127769105699,73.14537739932757,53.30984751222401,28.79296842979119,22.009779341542796,11.663788525893402,-23.29869141297205,-49.04690004689283,-47.80489701162902,-48.47365396396374,-56.27884083513209,-54.864676947055784,-48.09820042598746,-40.222029009540705,-30.439090215375597,-24.102851533471156,-14.922364450200687,4.008561936371954,19.6519898690595,22.604410999751284,19.398260962166717,18.345300330564413,24.314459874369486,31.616196834068127,27.11410111931326,10.405421779015464,-7.538631812634009,-18.994053803202036,-21.752054135125828,-20.477267962358695,-21.320857895540293,-19.01595331843161,-7.947726348553481,-3.048853996744608,-16.82913167623751,-26.335529963338235,-11.77541063059974,1.7573669308965876,-3.2283179327162532,-4.135786948731967,7.27530594700856,17.54287313749795,22.15619091400019,11.290309399100025,-11.082250230000152,-11.704881065681464,6.211941773627959,9.763466219635628,8.89873667981411,15.135351037133928,3.130401147912522,-27.62486551677179,-51.005221204784156,-57.75296411173344,-51.89604893273945,-49.98100963906568,-61.0607629737205,-68.43935815240508,-67.81411853759307,-54.99134032222302,3.372311605894609,152.12828393572437,435.2900901078873,693.11087859146,482.99966439530783,-224.1659183949672,-685.1007494792026,-474.49782460437103,-118.70147198666889,-51.840713593670486,-62.33196046620898,-5.825965927399956,5.766794385393943,-8.018812652238928,9.321617760082043,13.76527372690041,11.740349978689682,26.367741130040148,21.91108692774761,3.4425176204793058,5.430565681562658,14.44597714123685,16.890686962750525,18.76083333248155,14.71979585228475,14.442148732593502,33.10571695558167,51.054820475391054,56.284715516265656,68.22865348705258,82.33979296312565,73.65635338198834,49.3269062451218,34.36967511461945,32.657417773821905,28.41648920233861,10.52947090318132,-9.3109534404615,-15.843705839039819,-15.748064953336723,-16.386896185177942,-15.272692050312473,-19.92755666756039,-29.618721637363972,-26.07202341836819,-10.859864593356956,1.8581432787817498,14.235186153581104,23.763717848030304,24.156009680716146,27.739861574146218,38.919182307731816,46.31608680687755,50.3167023830958,49.092497570750425,36.104307087093154,29.344492793586454,39.79602524217526,41.99239810656884,27.815084502952857,22.671624072241926,29.441894201478753,28.865243908835595,22.046672447916606,18.769985462839955,16.688155233660154,18.38062694940183,27.01573905551291,26.38271166571333,10.148081916451687,2.33406341862856,13.073795799505874,27.843265303419926,44.94349275085235,59.7102219341837,53.81916791710721,37.55816003311163,26.709315394644094,7.103235656716933,-13.095951437151392,-10.834477370564827,-6.101702613475773,-15.60663526091701,-27.81795696346606,-37.91716079655872,-19.957001652157814,60.69321941591434,230.47992153551647,506.6812671501399,670.9656569979531,338.020989411783,-316.13714226260214,-572.1659342492662,-285.88146193944294,-15.54688219860195,13.7595603432814,25.64275013561479,63.153484151325515,51.68759053493149,50.64015913045168,73.98184650727278,63.19038471137452,42.48741214022007,49.6744293659732,57.60150500060149,47.62237848166821,33.33321806238793,27.331442148130066,33.78316014566188,40.582264300246266,35.56853863851671,34.50255966814841,50.30095775761859,67.32185626094147,74.90347206738262,76.88885800547747,74.52262902668204,73.27895218615768,74.03112749188075,65.11634500581306,49.82786271774145,39.592060659681664,27.690700382274755,11.273921403166113,-0.48157113098305615,-6.7919052300660425,-6.29584274072851,-0.05332296464953146,-2.115785844578589,-6.652809520700345,5.673570392069003,18.888355746461635,14.148800209548817,13.37997895205389,28.29212706273232,36.27219687029587,31.786728713873387,30.935645897423917,37.066456271680636,44.176358220364705,45.36594753698891,34.169316788005375,20.41232444580571,21.20403928541193,30.924333051336063,30.059054283762386,17.543483375673162,11.325042135400224,17.93555921866527,20.80510882233957,12.007444474725702,6.713853755031579,8.989748298530625,8.256307968004222,10.5076152387727,23.92519368074913,36.19474980988262,35.9265086519291,22.722020589117733,-3.096096889299428,-29.950855453166092,-35.88264616172941,-26.227826935159197,-34.23325994222942,-57.523851096486695,-60.26415154616062,-49.409489194511195,-45.534789665506985,-16.00626991229545,91.83629389053388,329.43190462313896,615.4249889651732,572.9389951384283,7.435809010582389,-538.5836005023768,-497.0517676525243,-158.12065294734367,-31.074453433008273,-46.20013714420277,-2.55399060793782,30.311461327261387,21.31118170430611,32.48705725632031,37.775065581989956,20.765719061103688,24.434339767277653,39.85145872760797,32.2723298086766,9.596435771510034,-5.3700729374096845,-1.2984460856837572,13.281618869135542,16.620719575624562,10.304416938130146,15.048174443699917,32.43787702668782,48.127509122497145,53.761455869795455,52.38349568101523,52.673987902757574,52.90446539353675,44.89594162749292,33.84696314029239,25.40303070425085,13.764592545146158,-1.0687392699708056,-16.474118063676315,-33.04077754349464,-40.32825903590357,-32.494565038129906,-22.449632472178678,-15.517710645432846,-6.925746525965118,1.9165735974167646,11.570489159674722,19.52453365331727,17.329722440130187,13.07934223266588,18.003849798236104,22.255102308695374,18.506278984138994,15.164705999018775,17.601972581629845,21.479549730968664,16.53748943350844,1.7574353646607292,-5.3441176970501765,2.7328209166268813,11.70233175216891,13.569019512947975,11.620491400062123,10.459204668633731,14.739984147378433,15.816240380899856,2.61997457917529,-8.771111458992602,-2.034602204303985,7.715042813170113,8.194141419029663,8.114976413320663,7.333427019269813,-2.7762533067010082,-18.549165290703378,-30.269756834587554,-33.67560258516054,-33.03865941937102,-34.949083712824944,-40.32901599507111,-52.58998267373708,-62.81133228024001,-34.82481410464793,59.65251403997672,256.496659425843,544.6254746741891,635.5117355848904,200.55233487737826,-440.3979181558405,-600.7419450151712,-285.7760597908194,-53.33747712057675,-41.627157065182494,-29.481762151616856,4.922714154970123,4.5020360326409055,13.607813847551462,28.0388354662406,17.720001355735263,12.369901802108602,17.491867169781578,8.127960415005234,-5.425231109575559,-6.128213665943817,-0.3851985833550846,0.7346821805379522,-5.145590969951881,-4.61667573762971,14.057759932621963,32.23192193749978,29.406476898976187,24.639752496938016,40.554880650995926,58.663388943436516,57.13564400391968,46.25665270657035,34.402861109646665,15.29789019701839,-5.879273978829573,-23.090659931194622,-40.60018918945788,-51.39732620398497,-47.139937147310675,-40.72904852367273,-42.67133211625792,-41.49803507548329,-28.17147122848879,-15.093275365637584,-15.632932983884444,-18.895077458633917,-7.1268504885596755,11.855821293296817,16.959601127634418,4.60136741398555,-10.504831063673214,-11.92659352491173,0.09104808698991285,7.748209664986666,5.466842526591495,6.855580082328444,13.444253148884089,12.849099694942549,4.55531704993742,-0.3396509152163789,4.0341020340926965,8.305523367188318,-1.6321869548752428,-16.388546030262304,-16.051742781985848,-10.305358603428633,-14.769300160448186,-17.196541259628546,-8.820267001824742,3.0677583071726318,14.819445926594831,16.094006395100898,-2.4418435795693973,-26.872389252269947,-39.69172709426999,-40.469082772333444,-49.65636853411094,-81.30220099912431,-102.20006654335796,-96.86316493750209,-107.534395963383,-111.14227268343484,-15.574155902596928,219.64589203572342,536.4195413963608,644.9638258941532,207.01724910668364,-472.38648876829564,-651.7340262781843,-310.6149949318303,-64.86851635621363,-62.14569765632328,-38.77502049260195,11.018466262332225,-5.417608279926242,-22.35604302726358,-10.023999066174014,-9.312008565385042,-21.047130649925563,-35.1512814851604,-44.87390013780318,-38.17291130467353,-28.299156608403564,-33.07558641003165,-41.698902467107665,-38.20424076536603,-24.92019606244721,-10.478787507296353,4.979937790477351,22.35847612970148,36.532456228496756,42.50961335024284,35.479670447566335,20.26154806642723,15.089562588338104,14.553645015938862,-7.916037691787814,-41.66915286262662,-55.96284431612284,-59.08524577853349,-70.56822486987298,-80.52319318406028,-76.74211044396495,-65.27690822294522,-54.74071211728243,-45.2800393017435,-32.09041260062125,-16.984641924908537,-9.581435102670667,-11.527838155098863,-12.372628256695805,-3.9327054711238603,6.109456280134388,0.09308313744256225,-19.096945994293144,-24.89755816207878,-13.279191213184475,-9.298258273414405,-17.83565586637075,-20.1966517103454,-14.058741711464904,-14.921053116409816,-27.528246953681588,-36.268206460562425,-26.359680621264573,-8.60744506718283,-5.207707942751149,-16.650842888730736,-24.37627641363104,-17.572826808046308,-6.265197299455501,-9.973247320108705,-29.43684956004369,-41.207373868743325,-32.58053968412498,-19.74209135953334,-18.115180098076223,-20.126519262461308,-16.4059832915558,-17.343766828643112,-35.72705761925424,-59.1996831032057,-64.82022020091742,-59.39210152140886,-65.04567347655251,-76.89371575171806,-89.72771585630599,-106.30920990823839,-86.07158265673408,11.964590576926994,203.70042233584647,501.4772943967459,682.525826539411,334.8189141229295,-373.26361115128105,-664.7483826079382,-358.71010244827244,-66.2345473645095,-49.54243374434725,-51.68843356049606,-12.67088161781406,-20.933659451807102,-19.839809728350993,1.5561465787425952,-12.031549283705687,-25.21857784543046,-13.031697310493595,-11.450260586407822,-18.21593444786621,-17.042641518396962,-15.87437727686643,-10.341691919644962,0.6588083462702734,3.0990334960102164,2.1641379282677953,11.660796189280045,27.34124766979081,38.47287679581217,40.571212974703485,37.49580355913747,36.63981683865044,34.32851988109567,19.678593273852833,-4.239641129199855,-22.195408190701624,-29.80016763725929,-36.377367273238974,-43.33429834370523,-41.29909519064468,-29.336967247216172,-16.18518926477248,-12.51755361482273,-26.700056846346705,-44.82881647524818,-38.7792537980654,-16.118348172785016,-10.52033619633545,-19.581967130398365,-16.349094075753115,-3.9834817251810613,-2.538137916350742,-9.917442891711268,-11.140737118604953,-2.3288246446722667,5.9065727741089376,-1.0857234564822598,-19.940888664196166,-26.704973821700378,-15.102377986944333,-7.400621625510617,-11.411875646961093,-12.02151994276757,-5.025814638435547,2.6755933299696704,5.344822614696593,-4.069469920286188,-16.92267293523126,-12.115736576866755,3.0984920504076303,3.928529145865202,-6.714209499097919,-12.033352489023036,-12.78216837837613,-17.411089467070067,-25.901561603970556,-28.374268544658456,-17.955813615528584,-6.796378383753982,-7.431560956100196,-8.30479299751941,1.862160393144972,10.677150032489276,6.0414008594484425,-4.520851732993625,-8.868476667404858,-5.812601028282533,-2.9624773908827926,-6.526465014854882,-11.073586102389063,-2.094570074822734,16.282717991859684,13.648719328570671,-15.619083930451026,-38.234854407405166,-45.7438533958687,-56.47672640443224,-64.83097612482956,-64.70106273492601,-64.35643989172046,-63.1754450009966,-74.11429973118373,-89.73531985879654,-44.60353553901225,95.47651290134755,334.6749703027845,614.924135216956,601.2129130433682,42.761764425336395,-559.639301784002,-554.1233256228654,-183.24594560470803,-29.70100660323598,-57.47453866469052,-20.722784556007454,17.442927852075286,4.059824810135696,15.948126262722738,37.038526444282155,25.582839613823595,12.15563443217353,10.111837946972459,10.152422619296772,17.355793892371686,17.78675535381809,-2.1946425859758047,-16.53677922007908,-8.734489855089699,-2.970929805376036,-5.569137603150887,8.951115752798923,36.09290179789971,45.15272796801989,37.230018013013435,33.002166836685824,33.74668535548136,33.947402850455134,32.378323228294235,22.0847704217828,2.5774706360424915,-11.794342951290297,-15.533933297116084,-20.369080786193344,-30.375919900160667,-34.25327215751486,-27.146591846664656,-18.075278328890654,-14.791223517663907,-16.0251994115132,-14.856239139259404,-5.393650725999284,7.210593774860872,11.595820876668881,10.410440130309329,15.493637404364485,21.958463767903986,15.777663226821325,3.684052941497571,3.903012103020579,14.19405872045541,19.827034065603684,21.91127181624865,28.379660072893067,32.54647580606622,25.063135574753936,10.006787854473682,-1.3158990698706106,-0.7218119498854279,5.574901677833159,1.7474027791565856,-7.039040895312233,-1.2993572428238522,10.624691043060036,7.844868793838334,-2.009097704114529,-2.6828372859344682,3.405547274151118,10.521816392840552,17.95934831358777,22.107584002232585,21.913037991484437,23.40599208333469,26.12864405071206,17.52499039175112,-1.391271622749299,-6.0820701845161835,7.908722413788388,10.86045842258175,-3.5474736520599173,-5.178850360911465,11.129638553149384,15.784126861459688,1.0575907253819707,-7.083225862887042,4.003291846942618,13.667856697648617,4.275994931034455,-9.837199839853735,-7.105523454772408,6.49932637707235,6.996412657976975,-9.865261749136922,-19.32808933413611,-6.258135020636217,11.543507085131694,18.21950503303694,19.714208264714628,16.750259837138486,1.7794417835921585,-22.11085504716826,-42.236947187086656,-46.525245784283186,-41.4699255823037,-43.747753344520646,-45.10609795692584,-38.02610964177876,-35.50646259525293,-19.697424547757777,56.86314295407712,252.2955005456178,555.6801013838051,659.0766243699645,214.11075927972274,-437.4533376366802,-576.0114616600031,-238.36485329351603,-22.31768451729056,-30.092707246921886,-4.485075790832919,42.931212403399314,27.67332878052122,18.2821980358461,32.5940338819064,34.18441472007073,37.99954812291203,38.93573608074304,17.129103867256106,2.057834488250343,12.787984342996054,22.503360596704447,16.751929685751698,10.346661509724584,12.910013277307414,22.085756198330017,37.20139293651347,52.03386240442432,54.672780149320175,53.81055903548561,64.5087477477582,67.31249603882455,43.06772429383599,18.66801469415608,15.913409253886094,13.258629623463385,-2.5707002788001123,-15.901801771896118,-19.7464205937433,-20.052621263157636,-20.245816085284467,-24.411797052975317,-29.024900402501927,-20.73967426817417,-3.9225531153963225,2.9131591903898824,3.567911397686824,10.031222693431996,10.045724912282225,-2.3796214326628093,-4.7569043219388565,10.922057459082417,22.81724885591388,15.581201003079611,-3.628733633992552,-13.69150560660941,-1.8962849760085367,11.972414697157001,5.029037772492574,-8.10549332643231,-6.930996030035818,0.5105070912886909,2.6699654315276824,0.9897026007570293,-0.563894822566068,0.34521046776338693,-1.6543804022984254,-12.083220846096566,-17.737298987159512,-9.308704570066379,-6.32325646028205,-19.927897082744053,-28.92146352519729,-21.248794241571794,-11.819129549500879,-11.356112679656157,-18.357622715155138,-27.82888977435436,-29.668476149417053,-25.41677020047141,-30.03161561715661,-36.45919224668451,-29.229342200594466,-24.36341301102827,-32.95092160443515,-33.45143630287089,-20.44136229693966,-11.707994513741028,-11.933665831775457,-20.150428748731443,-30.564800512610447,-20.79137347931795,9.367439497103469,20.727613621524014,-5.8168057856551485,-39.413560655639564,-53.89977291417607,-61.49583050361766,-72.52160263242548,-79.2176830903538,-80.89279780844574,-79.70570424681999,-82.73672045538657,-94.49057483067983,-73.6649320870883,31.77921395230112,248.72397144905545,549.3277855517808,654.045766230104,218.04343709083844,-457.117581405568,-647.552732003795,-335.7602627312636,-99.39071499858696,-72.85553153734375,-38.093225918239796,-7.572972864669566,-27.929840896884002,-18.5763198256641,2.6627844507001868,-16.37950317030949,-31.578833235824618,-23.149489253819752,-19.65706625645197,-20.29810573273501,-18.86731216822102,-21.616860493971735,-22.560575869624685,-13.126100119489166,-0.38593815640081885,2.425742128985412,1.4571589735761918,15.213932781847468,37.76374948415695,48.47103754787379,42.07319679874531,22.23843442339822,2.4907675031179792,-1.9667705579540993,-8.08700759880125,-35.809602401803765,-62.94976966847064,-70.00134151316948,-75.18682423857356,-90.28691002122486,-100.34659204423104,-92.88533437654937,-74.3186459282201,-60.598132782278725,-55.65467112855225,-46.91154470781879,-31.12399594166895,-23.74760786595658,-31.86161087480606,-38.061226580443986,-25.501533982154186,-9.003819831113987,-13.948877139663757,-28.96153322608948,-26.5137216769281,-18.20278438807989,-28.618098057905506,-43.31459425076075,-40.290372395848706,-28.911806092848565,-23.787052766787703,-28.12543132297,-42.411900464903084,-53.644712638402076,-44.9737368789916,-27.12587866895801,-20.940424400455612,-23.34387063095234,-22.371604370873264,-18.519762024028324,-16.698825538181346,-20.061751230088092,-28.842647500104867,-35.650985408406115,-34.77313491211346,-32.11268817613519,-32.731094766338046,-32.3841814880613,-28.68037418885875,-26.735317788125542,-36.45445630358499,-61.90323039698472,-82.49309709765942,-77.88288709730048,-71.16466917011776,-84.69101801514608,-96.49516632707696,-97.01594360585437,-90.04604072596901,-39.797458343351735,94.90290780694635,348.9124141784601,659.8986069474265,665.7525718570029,82.76437607670718,-615.5526799180409,-711.9399530388011,-330.2312527938768,-81.93464010615205,-64.93437486156981,-41.49094839778692,-0.17365990343247972,-4.255056918869855,-10.708094642138548,-5.565484320897376,-5.0630585135244885,1.1200050778902408,4.323654430267432,-5.972371419660384,-12.827252272840916,-14.470729937748104,-22.662812580108728,-29.540772025736782,-24.190872638243953,-8.595872889168454,9.194830480347694,18.880828225342448,22.37412942119551,33.3607566906595,47.2662229397538,46.06437424220662,31.799826947182904,19.71758444777845,12.94279596561159,1.9548581805723977,-21.72525026655707,-49.25462910976324,-61.42164987071665,-58.49727579059524,-54.394075691550384,-50.75342590292047,-47.11712318997217,-46.874295436625644,-43.296213907888855,-34.319681936582015,-31.98654709606327,-35.233754665172775,-27.867517127799868,-9.824455719603694,-0.8640879585923074,-8.855161594399604,-13.83298873327358,-2.2443769494673944,5.836891083471983,-2.9405326743057394,-9.073589358611201,-4.318225032040804,-3.2167064301663046,-4.769882007565908,-1.0986182874649977,-0.49329685099748133,-4.205499966309578,-3.8351174630042983,-6.920229802701595,-16.73734844168414,-14.742841361199371,-2.0946034227870918,-4.012286425066726,-17.12401997779206,-20.802520492005215,-23.041150656945838,-31.361655830528306,-28.10678819342526,-13.718018277721434,-7.947682591786219,-10.866695861913957,-22.249172030637887,-47.529581736556636,-61.95671480210435,-54.716690223550195,-60.6475622050612,-78.91903586340197,-82.17631837556131,-85.05796767013422,-70.87095480231955,27.586304748922586,255.74955048507746,596.334414761404,761.5624251686426,322.16403830374355,-464.1804410666653,-735.7177585123957,-375.9881564302764,-83.27477300220022,-72.9673860104992,-40.82468991479357,25.0508714551072,15.354943462680716,14.271453497153068,31.21801528562561,7.721318859297005,-4.419407828498915,14.923889636482963,11.932095969244049,-11.583021831860297,-25.89826890812376,-27.152265260828536,-14.914117192750755,-1.4780129110987499,-2.4150321368678878,-4.007366100518896,10.416450881884357,30.922615533858767,41.77590485344181,43.438224926730584,45.95520318731523,49.8933567510543,44.57099634701818,29.169705947839965,15.413733174956246,3.7585114756558227,-16.65317803440778,-42.56183847568474,-57.37429155124268,-55.63449989898269,-47.05848893726453,-42.030425471379914,-43.52261411969496,-45.09239881739484,-38.37359001130417,-28.584657740933068,-26.492966280829247,-25.976294475540165,-16.230361971014155,-4.177868373272052,1.4515028415489812,5.561281863884412,12.58687960034355,20.76510140236691,25.28819386234357,18.04909260777783,3.57839628889789,0.6630630868912091,10.7211443716308,15.745413841489631,7.695339248344752,-7.223144154110274,-18.715212254740027,-21.927462986735712,-23.230882303153155,-21.884617961620258,-11.552818894124574,-8.555724606579407,-23.016770226705987,-26.681894970013204,-6.174070240051476,9.351043360209115,1.7835506003559871,-13.475885757945578,-16.317076578701943,-6.38426721320841,-2.97713317002691,-12.282754945236292,-14.944660278924236,-2.8296069690626133,9.584550833759224,9.257068664481263,-5.310670567525991,-23.80440650033873,-35.66029575232908,-45.134775601209846,-64.00596593896881,-92.12754094310264,-104.18171824442331,-89.49278974679025,-88.92658093616991,-100.06591227161346,-36.32549944003377,159.91733849492635,495.9291232608221,805.7551370647949,624.2529015781786,-143.80870613846355,-708.3882893519688,-515.4432255648467,-115.38046053006101,-46.4201513489826,-75.07697887988026,-11.721782213558967,-1.0898332246466893,-26.199829271811787,0.7370090132914866,17.574347541787137,3.4588379210357836,-0.932570993849775,-2.3146635435597442,-1.781563502811423,2.3017183553966234,-8.456790555372088,-18.403193078435514,-8.85988805195215,2.202796239733014,7.997077104614602,15.471456769552194,22.486649361264924,34.97795058731811,52.18103521402571,55.479070821278654,46.23243858824378,43.28805213762472,44.40699302117654,31.931789227221245,1.7822163977029226,-28.791952557674968,-40.92620709915131,-39.6412748880208,-40.46156842731112,-41.0423493954429,-34.686175240550824,-26.63574290334375,-17.838410095149015,-5.982751602074163,-1.8090963901793984,-11.63466050098832,-21.546568991578823,-22.271741676301957,-19.98504623728418,-14.828548070504551,-4.536639054030237,1.068691252045312,-0.5243433170604774,2.9864999633215823,12.762011894075272,16.761505700890016,11.441232874559141,4.226281731053385,2.8774895512183427,6.920590413710468,6.648338111927702,-1.8214088042083798,-7.967158873185815,-5.360610267435929,-3.794708673221413,-10.13244031536626,-15.054276832248815,-10.639593280378554,-2.7132379547103582,0.32906749350146924,-4.304499351419802,-12.223767964493192,-12.30385551194355,-1.5550305987025226,7.309750231006344,5.6698289228518,1.1434147905932734,2.6472600469451173,5.353610010570419,-1.4253812110662425,-11.944884284630092,-8.864719831507342,2.855585797323404,1.19615775289697,-11.413922775462906,-13.278842474075876,-2.4454321943625237,3.869928334772794,-2.2205791043715606,-10.31149658117212,-8.508354095180199,-0.9642575513179281,1.953083409399154,2.0367250674855075,5.758180638907145,12.82294335429502,18.36877223339553,14.400801218491928,1.081064014302097,-5.370541216681351,2.235727890702779,8.55638108292263,2.40214861115918,-7.503969785559842,-7.497328748711587,0.6337054816411907,1.6406581232987176,-4.412109607828576,-3.252286574747497,4.405241550603151,15.673917966436086,31.18815542234625,29.553136925993435,1.3574311105563464,-26.32681225408269,-45.24649381383474,-70.62040144274587,-97.94311437136757,-110.05521616454533,-99.94794546304814,-89.28433685349523,-94.26723469727943,-60.44986098570817,78.76286848465917,346.8981850930257,678.3842462617827,723.8507305904823,165.35029439289278,-525.3856150692458,-580.7942281870312,-184.41313644076814,-21.795825590198184,-83.92164948439589,-47.2893999478526,11.153939526641842,-13.425001386841746,-19.24518730103169,4.8987536141458,7.395895303213443,8.944996733246136,12.918764307046237,8.214565537704448,12.197243607718804,16.30383498417953,4.067004750561756,-4.852934583256367,4.157434021180315,18.621335574544464,24.893058746416628,21.346964983602668,21.24692243953832,37.20311011063217,55.051995659304644,53.255596215801184,40.56312077878801,36.63014221729871,36.38597006515222,27.647891555625275,14.657009438061431,2.8035249159455535,-10.721146405012473,-25.906146539812934,-38.14525042194815,-41.70349617715632,-33.35823123663604,-20.26068399006987,-14.377140867997149,-17.171903894187732,-19.661252214658877,-13.154375775118748,1.140259316632326,9.312609442890096,3.7744215756896775,-0.5695259776666135,6.5117528381027725,9.103422910183689,0.07103720973531868,-1.6488177948339184,8.607148788093351,12.95595816904815,9.32927824476142,11.462439512753571,20.42553395850849,25.897510034586944,19.682088777533977,2.011310317377089,-14.082941826585131,-16.08501061628529,-10.406997334998175,-11.127439363728508,-17.381197154778395,-16.255039774545025,-5.652845963188009,-1.191145213492982,-9.163134297321344,-12.950958042475069,-6.8843706741326045,-6.479106223062184,-10.670319718076641,-5.12475075162747,4.159350276091014,6.690266346710963,6.357346951811611,4.748671311910147,1.9050459720286077,4.003254179255395,11.167045893922287,17.078707117722626,16.190652904760242,7.501859815318403,1.9585363584278745,6.674279383505034,8.448405575631629,-1.1897737680660598,-12.542003371095081,-17.14737524802343,-13.155048969016727,-7.2880415434246215,-11.35915627805897,-18.017631113099316,-12.846230334896024,-4.728540624091797,-2.328080400969186,3.176122054457776,12.713038479032752,18.518016304814076,15.580270861257425,2.920935640207103,-3.8327460578889094,5.755876428919054,7.4066108629681615,-10.473414300062117,-20.14234475377257,-12.86849996133734,-7.788285058188171,-7.735448128845866,-7.535492267178235,-8.328358674181136,-7.208611684151721,-8.092163377793597,-14.111824805764385,-6.753853072933541,17.65546117800259,26.957904726947085,8.252095016558298,-15.953336547994224,-32.75486827410281,-42.401773998068926,-49.453340964712076,-67.29755067531582,-83.15749288763203,-77.99720871539739,-84.40918458345935,-99.79370566808876,-39.4745217800682,145.93424362865784,452.41082431879914,724.8738153776012,546.6749109119883,-149.1357648741287,-634.4349735700309,-436.19187231539564,-86.53685756329931,-51.48750376627903,-77.7753418752595,1.4377479311251022,20.19118194186838,-15.71073270172571,-5.145830723357611,12.384981886395327,10.276579382940216,13.320998574744971,12.978457951103703,4.407930175257464,-5.80839366446796,-16.996902603943674,-20.505203965833925,-15.636771481394462,-7.58288715936285,0.27477545889108745,-3.093684240629282,-4.82628862766928,19.612708306922645,49.24948306114294,59.48403627777151,61.84272645360407,55.856178271059626,39.2080762548607,33.0629498758267,29.74658190954946,3.909347667738113,-25.538285518799505,-34.78358013525978,-40.741987365193665,-53.74922395258745,-55.84606045461933,-43.719742584923495,-33.98909589070645,-29.08546506278479,-21.56308205992423,-14.816520301317105,-8.766783553147834,2.069283037668953,6.4511696407412895,-2.661728362694035,-4.505919900974069,10.912332701476954,21.462637758871303,12.637883105288022,-0.9907343493014729,-1.041460794297313,7.346106024569115,4.6956768590836955,-5.810895623744392,-3.0217015608065143,6.626368752135182,-0.6559920568878272,-18.06709312356972,-21.2843328068643,-9.731070540644271,-1.65661364627465,-7.05935402009289,-18.61129154163696,-22.675542348692915,-16.31478461768766,-8.052449239439664,-4.634522562288897,-5.401534850119015,-4.948819171979301,1.9041405569869418,12.87533345273809,18.43227256465946,14.47087539830943,9.327368428564702,10.797547877228668,14.57421204566604,12.719730043362462,2.1433812984927485,-14.070331454955937,-25.07214493726751,-26.057215746051668,-27.213568537021892,-29.169219493633623,-19.455285190847096,-6.458436306092832,-10.786807489351325,-24.000042745720847,-22.262511721120283,-7.982668379811782,-0.0286974672245357,-0.2502695826150152,0.9920304811694534,5.508926541164524,11.049523525611638,11.927040349665214,0.9260162783602741,-9.886066862181021,-4.246793167561295,1.9042829285748741,-9.504857960777787,-21.39649206901114,-17.712872412487243,-8.655079034099751,-1.6654065829300926,8.383238503319893,19.132232525170007,18.58901135507268,2.518815576683897,-23.806571455073808,-53.40456417766456,-70.81002992690601,-69.71487393046054,-70.9724310161879,-78.50196338607648,-78.52245174165517,-81.42492784810064,-67.18844477932485,30.700580195496215,254.8710532212844,576.3025503298879,729.2929845680113,330.27870074858004,-393.2612093643936,-651.4353482346086,-317.8139485559875,-46.269547780452925,-58.195460331540275,-52.018269148925526,2.0457878043534237,-13.156604631134414,-16.46805588797157,17.298560125123178,12.876468083406033,-5.1381706110523995,1.6005761973701027,6.877826984068062,1.787125964887263,-3.4639133870487715,-4.25600470018704,4.155275840403869,14.6311522092537,19.741764484930954,18.03896096651561,6.8500457562199975,4.67614768619519,29.065487085019836,51.99339321305619,47.35392853239477,36.60307771085412,39.975508539860606,43.1184393992958,29.088937575880642,3.7701421920104776,-16.114349035116298,-27.0308661811492,-37.5386517779588,-47.88525617941336,-51.98075940782505,-49.652894262572495,-41.90292661607174,-29.9206563076983,-19.12473546776463,-10.271389916361482,0.9285451149783981,8.405117642259238,2.2075249007227384,-8.157389520496814,-5.8861768966409524,3.3320991428412707,4.233372932348255,-2.439618542371324,-9.094883902266233,-10.70226412816458,-3.1671303641171917,5.569984020521002,1.6129296700015825,-9.727497871745797,-12.39752193819926,-5.55019127938597,0.2773418270670511,-1.9865732801752554,-10.693884182471653,-14.241099811842941,-7.253150095877267,-5.192183697443056,-15.55708487295514,-18.21659632002804,-7.195531054919426,-4.659149045630867,-11.485109419384909,-7.144233199095545,5.102571543148684,10.718772603427157,10.295494441202742,4.467386580655215,-4.7268324257729795,-4.654799237904218,4.881662069928693,8.569070775666589,1.0974325663059048,-10.087806196229902,-15.268076034243665,-12.023597703795948,-12.54275753648481,-21.20100231551965,-20.815021427597042,-9.71962103941889,-7.472802695349213,-10.57314158805983,-2.8652718145216607,8.180026625722357,13.11010968640954,13.99272447583988,8.15626693678155,1.6903867736985965,6.372487705572455,13.380299383169909,11.500520042813207,1.248267515168271,-12.717019225846027,-9.779507592975518,11.734871623445626,7.625732253329032,-27.715317324119393,-45.47810134845218,-42.04597374098266,-48.30859213970151,-63.90829767750935,-75.67465626663102,-74.9870397177635,-70.46672863058907,-77.48485805379447,-56.84522395253816,52.39957360443823,283.71266965599784,593.7035451525466,664.4001429879637,166.54930462704766,-502.6843259012566,-596.280731315469,-215.09913698506028,-15.550357984321757,-60.4834128363358,-42.74448440080381,13.635248845325926,5.257929808444938,2.4199076620446096,16.603366208146088,7.569296991244137,4.549007669834386,10.475024555720267,-3.6166473263495345,-16.371439425798165,-8.780463865682831,-3.4611905558461142,-9.75285552395844,-13.177887248404586,-5.312108814999366,11.55050354687249,24.71642061765455,24.34555915412954,27.277877560075268,49.54274149424251,66.93836086166141,55.95917627213135,38.47073784533497,34.212312075827896,23.89668356450223,-3.0115581647919614,-25.906750060658595,-34.954447086885864,-41.27443673969344,-47.75775040949415,-46.901478183228846,-37.952809899027976,-28.474655022195677,-25.348599131363578,-27.453907078362132,-25.98476218445008,-15.08189008525482,-1.797542595635928,1.6458006021040923,-3.29111453426556,-4.128643216584797,0.3884807389221141,0.46897067436152895,-4.8458308596471635,-5.945341799765577,1.642843418781979,9.256020231933356,8.899677800597386,9.140738013416499,17.829817243788373,22.322968118802383,11.109018864030627,-8.064172716369725,-22.6280020572967,-25.391467193663217,-20.5392274378516,-22.749700954320826,-29.85633554346603,-24.517137743779497,-14.995766495423346,-20.417016437686378,-26.87585857469179,-17.295559568989855,-6.4807587513113525,-4.8904740299360405,-2.6746401645214917,1.257496914348037,4.300782938773908,9.323163425913961,7.35287652509289,-4.871501938383867,-7.80528107050414,1.762643933463055,1.9375124870045966,-8.151659289033107,-8.616370492482814,-0.3635615387135491,-1.6740976555651876,-13.298752695230727,-18.797788756584094,-14.659595962600676,-12.762502622925153,-14.147734678988087,-5.657265296708504,16.199587015711955,32.39211469423961,22.016830095474617,-7.6877979961479,-34.72904917638237,-50.03466670720101,-51.114024432782415,-50.279281564949926,-67.0421845759337,-78.91008040747636,-67.49157795718634,-66.18525718222519,-60.079466205519424,23.381472035093097,227.82496340287577,534.4610164197552,679.3797731921685,275.586073280798,-433.5977372728506,-666.1407757057167,-327.31485307460997,-57.19791885222189,-53.167335901657715,-32.989481002680236,24.88869321796396,12.310591447059323,-2.861018226788702,12.710494046867002,15.890836347140107,14.958033476863331,11.308181794593153,-3.8932759502890786,-4.477269169394866,7.61016391468479,4.558285333686477,-7.100560498815474,-8.507348954534084,1.8988149990617504,12.446090309299393,8.722715355480146,-1.113769133720174,5.51701364960571,27.706773778253407,48.150871474533275,58.284874017660954,56.19958951309964,45.5065844177075,36.17451208426412,27.99661422691999,5.9807186739052,-28.515664764786717,-47.51207476818553,-45.69522041940881,-50.81615762293485,-60.932762925658,-50.24882913852482,-33.524317862864166,-36.33874726786159,-42.98593605671607,-35.27519452593852,-20.88290523804472,-8.295472818847264,-0.6021313606624688,4.557346172424179,14.80669286190006,22.325835748355257,14.028477081373484,1.359946042105566,0.8616502308111258,6.242647984219838,3.5542793621405337,-6.854193983196447,-12.217903692310811,-8.177115592270207,-5.8967687381170295,-6.425472378251638,1.68704743141807,11.137983088789941,6.120772827892532,-6.891777631593111,-13.790356520508256,-11.065439132196996,-0.2202427445448052,8.546074294836526,2.002079290592441,-12.585278651873864,-14.601310917734544,-3.9308073628347593,-3.1125376450649895,-19.913617775879935,-30.51249339257777,-16.659567281752878,3.9373425829919686,8.796178216035749,5.0336918681584555,2.4744114903930274,-12.68714857728314,-41.93475874747057,-61.431695524744335,-66.18552911312293,-65.24500897606845,-63.22766000099068,-80.285208356503,-96.01119759495234,-32.70160789594096,133.9044272238944,397.0033437561393,674.1307180708153,596.228243215937,-45.06678628160307,-662.5805340046905,-622.369359064638,-232.3412190432384,-54.25134349140335,-40.93861983595032,-1.406748184836573,14.030026137516643,9.581863715638827,35.38188575590934,37.00184730256419,7.216880221735023,-0.135070735662147,1.3442721262404502,-8.431947830854229,-8.129708544520831,-6.134690501085874,-20.20962367144007,-26.434238705764365,-11.139216807119988,5.1699775568597035,16.891274378308786,29.588024103662566,38.800539492156375,52.92615755459414,73.22748917289746,72.78704592846394,54.08862888762542,48.122285054130366,41.583976481554124,6.219533440983817,-34.880328175059304,-50.88389525541866,-55.58080914055121,-70.2580076506182,-81.68991416349708,-69.4284551836672,-47.09268571619031,-37.029125305256656,-31.353243419762187,-22.201285517209,-21.506794084365733,-21.254078840964183,-3.0193052080625016,13.94811974115381,4.205169017365478,-11.859596173586368,-5.850838046177657,6.250095849723397,0.34996803953616507,-6.643366003117189,3.1420260164070406,7.433700804346669,-7.008424726110892,-17.966441691857888,-17.79871867266995,-17.84554252885188,-13.998520841008308,-6.571913073499122,-10.702286911621531,-17.557777480577688,-2.7422068005584954,19.520937623557224,10.508141161149322,-18.798524154482763,-17.037700756085414,11.335761398122917,14.356701607527885,-1.7755863798012772,-0.3459830520261349,-8.470738178020465,-48.62043306375081,-70.25781425813251,-57.54271890890684,-59.766551920082115,-75.544374222299,-79.52953624662523,-98.98261315919927,-112.09727432253575,-32.83740215677521,168.31100407572205,479.94246943051326,742.0233228921314,541.4660022698263,-178.35755672793636,-710.0400698395376,-565.0865442825988,-190.20010048949155,-62.66267144987984,-50.198485297873205,3.4886117531446104,19.951271148060762,4.415950747230081,9.357931098509772,10.261505498369386,9.668968543915508,18.87232209165097,10.348974179639635,-6.9370991146705805,-8.502774771859336,-9.330599973704668,-14.997589217697447,-12.979631702127328,-6.0776840427954655,6.255773840940434,23.32779152478878,28.046829278538443,28.12282916346309,50.14772084969164,78.40588489813375,77.83624765234862,54.465612131757936,34.29462978602996,22.09642835638629,7.663492469429791,-16.55720174124393,-44.83684919436319,-60.079496569532445,-57.72474272640315,-53.02162578242232,-54.90971127102909,-56.375041621138486,-50.86688756055773,-37.44963595006036,-21.855032077461672,-18.410078745421814,-27.68665664689432,-27.055293260281886,-8.803202713006488,5.020399858449887,4.215543175501857,6.690013348025374,20.22445174168504,25.586461065251015,12.774558005939618,0.060415445896104814,0.6719624354171145,6.405109688185437,9.045317770751446,4.886109177063357,-2.5490066810736085,2.9693038676008925,12.991873628969149,-3.4623308863166073,-25.57646541328691,-10.073597871542702,10.741213326545951,-10.493189302698738,-41.12316012281653,-41.125914917875114,-30.19031244031894,-34.98675876583609,-53.43968729990739,-65.94864142156325,-62.07768088106994,-62.14542170340005,-77.16682471152198,-87.4807016502335,-81.89366098583233,-45.9919328835043,60.7871942959877,292.96296355129766,623.6742066250094,723.5565004848618,217.35204958925823,-536.0549790915954,-720.6881885709748,-333.17788575725734,-59.17392578782092,-55.812774639150405,-31.192173183824494,17.097045741115863,2.4450412119197935,6.652595029392664,25.643755085037068,2.8025264649600388,-9.799255863475231,6.757555650496232,4.059346894077878,-10.567303319367017,-12.120935116117298,-13.075366586549933,-14.532545289158953,-8.295619749050815,-5.880059030767201,-6.0000417124225685,9.375612924189856,32.19647874723111,44.66283943214028,54.64919667743191,65.51311622404651,62.82445960843472,48.70852209751138,32.992498216693065,11.662261953076527,-12.2821666989148,-28.89824083746013,-42.766606534084005,-58.22375390232888,-63.00917473539721,-50.1414140801744,-37.47490882632084,-41.94624714994639,-47.832757886007386,-35.23594905911344,-17.74787620473412,-13.743112647316817,-17.494188159735124,-18.124083010937436,-11.384703369341374,-1.1928501697484393,2.899405320152832,5.358771309452202,11.877476343335479,10.03402749907498,4.829417892840416,14.322779939915993,19.744854571707553,5.040595569859944,-1.382258026659903,9.382961169074546,8.921607468867103,-6.906113297922058,-18.158528140704718,-16.634084824186075,-10.008485346211707,-13.743906385427913,-24.401237078840907,-21.68447577720529,-16.31080198428633,-27.906753092083324,-35.375359487768876,-24.299279365039162,-18.161793943733223,-29.018663712240986,-45.69687833940375,-53.877154519071,-49.830361397647984,-53.541822711384036,-71.57194306291649,-84.18273026165238,-90.4158637107611,-75.64503725161532,12.332270609099382,221.30917665810892,558.8004119242257,780.6465630374701,430.250152673898,-363.1674238538597,-748.404992365824,-442.24539005513213,-98.67715062103893,-61.71210012952628,-51.48772035476985,16.185346105956555,16.511139485473294,0.7251209649495767,14.167866630526927,11.418737351047614,9.123959178055177,15.875243976250212,1.475822010093819,-11.327440663913762,-2.1952973887745815,1.9120920016140976,-6.36685528150533,-11.760605863925097,-9.48774438611202,1.320208874045651,17.071935432101057,31.63676375480636,47.83243112039231,66.8899541729642,77.53076532190417,67.92131034532196,44.736675463446886,28.307763183639466,20.307336590030964,3.0841947628486546,-23.903356555668427,-45.08712614488043,-53.88324695244005,-52.904649754111574,-52.304386930841275,-58.62058297622443,-58.307686110678084,-45.80168289903623,-37.46493400118729,-32.385275209760046,-17.45886559947894,-1.715323411098563,4.8529813462226645,6.952372737976535,6.100311409159749,6.255734484590127,14.532555522269085,24.41918001761549,25.292035935788356,13.516157469816118,-7.992689738972473,-22.121885385398734,-15.859885411416073,-5.848230588963448,-9.529032938294456,-16.136551446618043,-13.063612094659216,-6.031366906542729,-3.4002202472442935,-5.591695634934538,-8.007350658508976,-8.398353838765807,-12.821565330113716,-23.292277137656207,-27.418316432089732,-18.78647857729993,-9.586888058244831,-8.324490330361808,-8.420026639996975,-3.748704274899458,4.4088869601376945,10.332413433310297,6.200477761659546,-5.199412782064554,-7.957283943606054,1.5753359877536433,7.070381088030373,0.2768751057943142,-7.94213316976555,-8.090433075058053,-5.312167194032977,-10.574699618986635,-21.397886953442807,-20.890572451481024,-7.587367286641596,-1.1150563991818547,-4.712188838284968,-1.3662688370326963,10.914816443903383,18.484948614442203,13.916823931205167,0.609929372642668,-7.971141739085509,-3.6435239053455417,0.05011644396774173,-7.009468360428015,-12.339447687609137,-8.437754294090915,-4.348190322918933,-7.129778259500409,-15.06798170104665,-18.43819970176162,-12.059253817663372,-7.05618121623834,-5.325092174404758,4.008537167373719,9.078406337469557,-3.411437794852625,-19.619923634149302,-34.63905011002824,-49.252065844528275,-49.89441313151836,-46.931368513145316,-56.67054183100976,-70.09713064355206,-93.0936228232136,-107.31101990112452,-44.74296700840353,129.12963164001093,431.93592748991034,739.017920391192,604.4233557069188,-108.1862197232758,-662.2109141368993,-491.58628447984586,-103.55015669787129,-42.03286700673537,-84.67068198686655,-14.393919803047439,22.644883607024397,10.962451469662042,34.79344144038402,37.94166662010395,9.606342669896776,14.88738693679635,27.035330140172064,8.417606969793173,-3.8044044288317114,5.517571203458923,9.061449538027098,0.732781743121599,-4.462656851972735,4.471246022621301,24.474937213988273,39.26158913822488,42.88722226410101,45.71591696960754,52.03636676323205,60.55294953372567,69.34289512995949,65.43191818045025,44.22664382640199,23.186151963109886,6.696321942999672,-15.11292193589083,-30.953521452742766,-30.889664502167975,-31.49939854572077,-37.44102556620755,-31.542450668283212,-12.814702052992795,1.4422991224872375,0.47499752447277066,-7.228276243096014,-0.7887425334437257,17.237261323583212,18.138367714628497,4.644661620932588,7.139890650308054,17.415872683968562,9.951816945247069,-0.821024905618362,3.7627303041627744,11.055522825297793,9.938080332835163,2.5876780235362222,-4.926016137167326,-0.4170917549076325,11.438624105516082,10.032251633587693,4.424566643712593,14.23535993705056,21.793577766286674,10.739426639062454,0.4968074022990372,4.372050258924624,11.135394511738667,10.117456138035525,2.5697349123225663,-1.782016727339213,-1.8723874215433252,-9.087696979734597,-18.27532613574582,-14.257671067516545,-4.396382199639046,1.2861323278994972,7.043286782807179,8.465224129992581,3.4393580216602366,5.800061663198123,12.401470447271015,5.254969831370862,-6.974456220538593,-3.8303872197650284,4.506425904386611,-2.64761490576954,-14.744612547418518,-11.872401010931393,-2.4327013615799316,-0.11037510716242283,1.0075587858004589,6.604226862095973,14.201242334608471,17.459290664732166,7.674174723936607,-2.4705426410741387,7.032912885079941,16.1259227134667,3.9589495734644657,-3.8582294888329596,5.484565857855642,7.924021725228207,-1.6912972018955907,-10.847834610911983,-14.287229512211262,-5.241915338528072,6.8860935666056236,-1.0756703173606876,-18.43370191834453,-17.863618648922674,-6.266498992715039,-2.178826300292786,-1.637338116426159,4.223372578157578,12.702813913255406,17.4218913626507,15.343956699670686,6.596937219793595,-4.141887460295323,-6.852461225286524,-1.7065312356331601,-6.226762907239539,-20.890977102730123,-18.662415383258164,3.3002709850018395,14.746416279939822,7.144216550465378,-1.502303597727109,-5.576758537937408,-14.365696643798243,-31.397853911970348,-42.97401716279589,-38.48543576379384,-38.72779272085719,-55.36941033100914,-64.85320368574196,-68.48146725993223,-72.06760793125677,-27.444732258409424,107.89986240796217,351.89706231028805,624.0207112185797,577.2682191580091,10.96087906077284,-546.1411559080593,-500.8529892012044,-146.6155515570636,-38.383809153640684,-95.90316410308802,-67.49283973232966,-27.967035183316092,-34.57978189634534,-15.314774821743871,6.363946215480169,-1.2427546159464349,6.097831270307094,21.695439603065147,10.333125065135555,-6.264097273688936,-9.515001999172693,-9.507680095014397,-2.4144001232771934,7.724407880872317,4.0632243853776915,1.2067548711286458,17.181490574889736,32.75528662350322,36.83828279796825,44.76726111271822,53.81269192585478,51.16748286837047,42.65283684950799,31.01331331012974,11.452913500456535,-7.117373391641117,-16.110516269816653,-22.051197476778334,-31.314026593287217,-39.92376062767042,-36.93998272122077,-21.274007358052152,-15.182857148000195,-29.226529941109252,-34.29290250205254,-15.446736368935827,-3.5801491022976855,-12.69374089619428,-16.769595346089275,-6.538221411733922,-0.5204402562469976,-6.935071501955061,-15.413174433418998,-11.6075162910339,2.647243104666547,6.448849627117582,-1.9075923708038207,1.030814655775771,13.91874436517586,12.136332416237627,-3.7321878845822942,-12.989721902132754,-9.086799698785214,-0.2185181030806076,6.520801097169743,8.735742532760634,3.2701782569187907,-6.180545954512013,-4.221311884230133,7.900560309196214,9.429432773189186,1.9630996614153569,-0.16979902640633782,-7.3384762877322185,-27.2487630816132,-40.56876199059017,-33.12512277669032,-14.715617300936167,-4.28118014888479,-7.002642674517258,-6.098324901738026,7.7662070680153334,18.122025128238576,11.491996453478835,-3.2909671070015527,-8.238318766795434,-0.04474140212033184,0.5160882750343578,-13.506984936141368,-16.16327377605468,-6.045030246619254,-13.881541220587835,-31.09567747502802,-23.774372463813844,-4.216262272200783,-3.0609745427045087,-11.898331843880857,-10.951603088077446,-4.516151897512783,-0.5743654571452854,3.098053816452856,4.961408962112356,1.2754935913625172,-4.402698745938251,-7.71376581681937,-5.900232604299074,1.6795209439768595,4.6310041634488135,-3.9518701440424238,-9.163944921698732,-1.179274252245678,5.454551956193114,1.7313679156907211,-3.49165614484553,-4.099108172864675,1.486243906349292,13.887942313847086,23.53623091917911,20.06928635792554,5.552597067123141,-16.91325267097909,-41.22133050013797,-51.037215001868304,-52.335725786233056,-66.88731949929624,-78.16523555591428,-74.1933474647479,-83.76246033584488,-79.48108528364706,9.068313239284265,200.72814881077989,487.64842906579145,686.3833573868624,406.2619276688014,-271.91368558724974,-612.8870192012034,-348.9067362918263,-57.2731080393389,-52.002910961140415,-63.08844186709279,0.5856905841442881,5.888934049398799,-9.001185854017711,10.92339992666345,13.290497246497774,3.4046592702852747,10.757638360311763,11.111272926851694,2.113402229698379,1.0651763619060093,0.0031500311239431866,-1.7830778285072393,4.318669519403604,12.968377006204072,21.44959707386018,29.73877977019771,29.152811271651743,24.028209807199325,33.77328310743894,55.70519228456055,62.75159573830629,48.11078191418408,34.496436643487684,32.579002830339924,29.52475805581328,15.967469650828765,-9.251516080099293,-41.26266369231064,-60.67354879452304,-55.30189224033161,-41.91804281656845,-38.307855645553985,-39.20668357754573,-35.04943414282128,-28.918040600636655,-26.239811853836443,-23.10531022819346,-16.057232949302907,-10.318593902217842,-5.825710916411598,1.6177345232125688,5.2737327214228,3.530218304914393,6.674671762258974,11.032180395934734,8.229520408208238,6.057073069828991,5.138621807024258,-3.2015142798733276,-10.042084413580731,-6.501301977348662,-3.0259231751344613,-4.787555187608106,-5.501308236408084,-4.54280939627471,-4.001170769042336,-4.893799433026782,-8.712191751788586,-10.048338931474426,-3.494954263367532,3.256120281335976,1.5810390074720138,-4.737086572692007,-7.033002428927218,-2.4195655001325598,0.8909828081566094,-6.36959218279814,-14.215454194579596,-8.003827191978033,0.9440470070997939,-2.244201307139952,-6.599964289641115,-4.185437265016636,-3.6184955310596276,-1.2602098020851047,6.953440621379505,7.823605607857907,4.219032275854987,9.551834955745651,11.027606609940786,2.7529464703453645,2.532908975573114,3.198134924989197,-9.222324046631863,-15.885592225708251,-12.994412634350768,-20.449882092761207,-27.836534887019944,-20.120090515677674,-13.877499835195454,-14.674660190251139,-5.564979868056215,13.764981239358992,25.388113522075038,18.296887591711627,-4.9586376014653215,-35.83166006272484,-58.740750946200265,-61.23386716532717,-62.96675144660239,-80.04327804525508,-83.60498139224032,-74.19930340682684,-80.34424720996549,-50.81364650067064,86.36471678407183,345.17291826026917,649.6921320942998,667.8888319794681,117.25706094508767,-546.5461799321838,-614.8882018499887,-246.96687340344323,-52.96821405303574,-61.291784975904825,-27.792363287353382,5.6848040796576385,-10.724687825806807,-3.4334361606740353,14.720505897607605,8.509650182934738,3.2685550740067955,2.7609907045198794,-2.3744197439493195,-7.031289371646384,-13.189753790757472,-15.501645872005014,-11.11670657761669,-11.950224877167223,-9.712174302414642,6.883820590630026,19.80067635163008,24.038284361257414,38.22935173558707,58.15931614016381,66.89643499447992,66.6262664232953,62.47723051973193,52.43284753617732,36.71301649363868,15.878200049977163,-6.45118180294861,-26.24360138882475,-47.92525168071303,-66.14539957436185,-63.701082589828715,-46.657768614637725,-37.93469487893259,-40.49869778783339,-43.221041394593705,-39.510184076581574,-28.65249289074557,-16.774775035327963,-7.839030521845601,-0.5509500834753496,-0.25962015785064096,-7.871431923157054,-11.3756216290918,-7.800870241254145,-3.8993418252662018,-1.545169848372467,-2.7658952347249723,-4.753463574856124,-0.052057264645018364,2.9744880352095553,-4.415389363329222,-9.948676173451743,-8.247549835949204,-10.182483472469821,-13.747954367858938,-7.923531677315104,1.78407688628519,-0.011103639611892646,-10.077900532831016,-8.952868256769007,-1.8364646959721647,-10.867335381646285,-20.362585471678244,-7.783068977541184,0.32034791963384635,-12.055444845627878,-15.422793016608473,-7.8001998739979435,-13.039958723401234,-19.33075754720025,-12.790069723994772,-9.814001663852792,-13.141971039075738,-11.257320551253493,-9.723431478200482,-8.615905803767692,2.8429809105946546,11.955061095776145,2.228578474976368,-15.918276378938351,-35.09910324724002,-56.78274559949251,-71.64206237158034,-82.36886793557488,-92.25680229603543,-87.63766224037597,-84.39898360838336,-87.75656999154037,-30.60708313494621,147.829982720481,456.53547065352626,742.8805113164361,583.4164988308235,-136.13303319054256,-710.6710604768849,-572.7516179671638,-169.29379185235993,-44.32688734823488,-55.51980799117986,-11.91085269707824,-3.2004037719040355,-21.021445562107488,-2.474564632702137,6.495634982482027,-1.1536407876096462,0.6239425039222493,-9.458359577729844,-22.48079409868841,-14.938130928117232,-7.931513293988658,-9.620597690555266,-6.192260959744482,-4.107826966810059,-5.378946148789328,5.07858603698646,29.8210011160582,52.658402978803224,54.69211819491949,40.85583041371593,40.423396475030515,56.256987405639045,59.0024027177546,43.74168324164995,23.69710863059243,-7.62741734999242,-44.73301877597345,-61.40525126783547,-61.5889094333507,-66.34544321869917,-69.87653410111002,-61.89319148354954,-47.14146903456059,-32.527346298969974,-28.554491892795,-33.61495107322606,-27.34335632200689,-14.539640858656004,-15.902451393410423,-15.327282052879085,1.615589351521507,8.303069270458394,-2.371660357437044,-4.234766489245629,2.5276796336435083,2.452693496709106,2.4433790299694014,5.9520249731384975,1.954259164985995,-7.3478913382263435,-10.188090827271925,-4.8967475459606895,1.6979430358103293,1.00664090744338,-8.43113253294231,-14.635080049757487,-8.089546390831618,1.1842747514386005,-2.544365910162597,-15.359285086014573,-18.92458919007482,-9.713024266286068,-0.9752700804805876,1.6201244873813465,-0.5622591100572905,-10.59418992854571,-22.997255684484447,-23.16657645954107,-11.439303447649557,-4.374094567772161,-10.72010819666284,-21.77278858867323,-31.55206602265456,-46.82589211599218,-60.86324565355665,-61.93620197902988,-66.21780397970801,-80.06872327934079,-88.01388408502497,-94.23648997385948,-73.23849400971494,37.225314253902255,258.31266071385,571.545722721061,767.7135224358359,432.2635252300031,-334.1766340185602,-725.0743364300486,-444.84660897805327,-116.96742650604057,-82.98172520899907,-70.4874744461953,-0.49558162679834084,-3.3920727398985804,-19.947465029409912,6.21730407239812,12.263372817006529,-1.4709520395409896,1.0863775078492797,5.572683519913216,-1.2945620267726206,-8.196788711675302,-6.087149042728717,-3.3337403133188976,-6.82444765470504,-2.126692466577604,10.977251284480767,14.091537006648307,16.04638026017969,31.15016392563817,49.08937842929658,61.77483673375761,64.57101646388097,55.80903754584014,47.30709579361756,31.659278660792157,-3.102091566313609,-28.28908500218276,-33.16096662970046,-49.81089904448196,-68.9133385937584,-60.01199119382874,-47.438816879978845,-51.21478749073337,-47.55929024212149,-35.52291093563043,-31.59940671388496,-24.80655536635387,-10.458323750973769,-2.2607591402174663,1.1324632637583392,3.0903023956578757,-3.0838270889333224,-11.677409631687965,-12.225632832645344,-6.616875922345756,-1.017503306147617,-1.6922171479275434,-6.654325158959871,-3.63032864014904,2.591737802634812,-2.729973900081575,-9.594421186677831,-6.799013615490463,-4.188237095129621,-2.966980067700538,-0.7241801654587441,-5.932046689549933,-10.188414483001976,-4.138905479162339,-2.759502628391189,-4.148265079750992,5.515681917268228,8.339099577735478,-5.530819078027498,-13.734221639999427,-9.230873904147707,-1.753594883310381,0.9615044834596524,-10.927948805307373,-24.701249610788015,-19.711542823962183,-21.018652823742975,-50.71665608679659,-71.25067605143695,-66.58016956333941,-75.23796247925887,-91.38936510454468,-84.14700237985176,-84.09438875541271,-86.11589700899047,-5.440136389446522,194.6346491798485,503.4865974593189,768.3263330471689,560.9633028089938,-195.68787492974707,-740.7423442707809,-544.862939510441,-135.1811890308892,-39.874634202756226,-56.44595582440511,1.0738400865818107,14.458207633374599,-3.2430610521936316,15.087010221642522,15.067618875353421,-1.5580044697787994,3.2301662194833582,-2.538058164022548,-17.114537572292324,-7.451075821903871,1.2529224648382833,-8.402174439843936,-9.668242105361108,0.4963140258968888,9.31968896228381,19.992240336637465,27.020506585872877,28.48739658292358,41.239184586646225,57.50388883269237,55.43805782182785,48.31495002992951,45.52373556820169,25.055951231319895,-8.23836017047892,-27.221548312785703,-37.68357199375025,-50.93653027647201,-55.431708642571145,-52.11626767121491,-52.24809201469527,-48.84727593657054,-36.465133548883784,-25.414459113425945,-19.89693364545878,-16.107487693690977,-15.1942959917085,-16.496709068554356,-15.14328221492234,-11.187328539689064,-5.380420967336166,1.9910264029358196,4.561388449780271,2.9026858335969976,6.801046845645814,12.211357507096897,9.609106393519653,4.644076329948178,1.5762785598505324,-0.9909021356539416,3.618226986440976,10.151066832719145,-1.7069085175577108,-25.8159073131092,-32.251359170025026,-17.454801513707118,-6.162256036429721,-8.99357308182423,-14.478313383146158,-14.610197705783381,-10.872016725704594,-4.03447429324947,3.422411261900635,5.592800594192891,2.4458734763847403,-1.1982294545764152,-4.381443735370091,-8.809836717388087,-20.244038800924404,-45.1333642517683,-68.64192021059861,-72.90456906188354,-76.88092907040787,-89.33574527332297,-84.947445276576,-81.2131807144044,-91.2228352907066,-37.26834294153927,143.43124255217992,448.0477389229037,751.5236688264579,646.6839977026955,-58.61761552984703,-699.3235783170594,-608.8716780990227,-182.74962632232078,-41.927253827620405,-69.53803365468252,-27.12039321832745,-6.825596180280996,-20.15764600284511,6.733559294884996,22.567180238128394,10.631857781574798,12.116937067136115,8.778669963180363,-4.221983799777408,-2.9244029432266068,-0.3617267842049463,-3.132210149279152,0.9717701510722114,3.638596542567936,3.592437579225777,14.296144694952016,30.5429552495371,41.56350423264192,48.846042900240505,53.51280099295961,54.93337282070265,53.24490147117227,44.46879547929021,25.819027839498183,0.9456932236878677,-23.814300657618684,-41.14328998494089,-45.72104278253881,-43.11421130430608,-45.67480132778029,-50.90261866889376,-44.40177538432479,-30.20316525645321,-22.653784028523766,-16.993590943831233,-7.887125300322875,-5.08131111882992,-6.541591805503593,0.9792147660809567,16.187336836302993,24.605959283465772,14.81098982779115,-3.1908557685079106,-5.94613362858954,3.3395457910094013,4.439687877689233,-0.6758910305026173,-5.497326801768692,-12.447154137073706,-14.25511375979266,-6.226689322240305,5.729724994010634,13.080879834702701,0.13887828993553342,-27.7954613776517,-36.02300446682237,-20.508618803792466,-7.921462179642006,-3.1555206026213973,-3.6787590075972467,-11.142558986743001,-10.355489381933932,4.6016795354236475,15.041839987853471,9.533274174826042,-8.007131844738861,-23.89496944268061,-22.409631973150844,-11.200564082115298,-8.981207863434008,-12.691569291640818,-14.658311960592151,-18.302674594707547,-19.518928987460953,-10.110413389560613,6.1835914595614705,16.53971086235793,8.724724743110132,-15.166784083794287,-39.86092454192662,-54.71825804080014,-58.12858317084098,-61.96831429195464,-78.10201053299122,-89.60320949930158,-91.02618629529451,-100.15131912014209,-75.3223130965247,55.429189644511084,322.5340093498483,677.7753201275766,792.2082642561771,273.2678297701899,-508.56384856201674,-686.6567018126075,-277.735940879323,-36.52508918375377,-90.6550134271177,-69.46738141326244,6.7170546972926815,-10.34732025111127,-19.755876595733692,12.874577658741355,14.05438456492425,9.34904250628082,20.175968591647766,11.153374832188625,-4.3713577133569235,-6.177910082368188,-12.710459577093825,-21.645349482903633,-17.6963707312897,-9.262320779219896,-1.9179911554665965,10.721722585799014,27.36880470533039,44.591690813379095,60.31500039898941,67.59711459616074,66.29286027263507,62.81301098616056,52.264382527880684,28.38325304540139,-2.183209623890905,-34.964242625609785,-66.56289765694373,-80.1968804236168,-70.98575529081415,-61.725598390374664,-62.28050066933186,-55.72743020025085,-38.76504337138576,-24.8460189961328,-13.655695599452915,-2.139491787658123,0.781061791293272,-3.548698102365865,-3.5560828323565072,0.817069456570163,6.127118325217543,12.405460673647145,14.672572940574835,11.76344383795659,8.733337438321339,8.200720200627444,13.366080232070228,14.983941683879337,-4.425038322704873,-25.478890631734686,-18.317513887449163,-6.4267988334503805,-15.54426515585897,-21.76442539948032,-13.085843834263152,-7.58009014085501,-6.29420972222664,-4.824751513399292,-6.680629799788884,-4.221440842120944,2.407534097916778,0.08051127019816828,-5.0807276023461725,-2.2151346334656257,-1.317377526046597,-7.85100600949041,-10.572932539222744,-5.270782543380767,0.35825684140943803,1.2842208416520342,-0.007442613384728958,1.3165880898362277,6.253817095337142,9.350011670424328,3.456242537787618,-8.105454178549024,-11.389731703619596,-3.3855567925871752,3.6960586362312604,5.829336526171325,9.263738724289663,13.255546226439346,11.499753380319769,1.2432475960975378,-11.77479002314811,-15.637339462224865,-11.28624745137662,-11.620623221338885,-11.672806938981687,4.493427133498292,26.753906224389283,26.934164397912376,1.5535269190295624,-24.683756147812783,-39.86580545681539,-52.24001250179673,-60.42052903626072,-65.93775455514876,-78.8903145756519,-83.34769913366351,-76.2739718016512,-85.26991769779069,-74.04566995782773,36.37750084894536,282.24755673992087,623.9695760680094,757.5306241538372,290.070223012561,-464.94635279077977,-672.2326098349114,-295.9898508699278,-49.23333137604101,-89.49268819573047,-70.06048954544602,5.740510178016962,-1.3118837172955828,0.8094853742420209,37.858330711718146,31.512356939779,16.287812205542103,29.72767692383121,32.91286975258584,22.746844220084935,19.275252639212322,15.443320675038935,10.968319359660605,8.700812022558589,2.593970046828524,1.1819197483880721,11.133758192852625,16.970868513524913,13.963132370033733,19.915814526532998,38.100743564909195,49.2394146804053,45.0188040823791,36.99858613858149,30.47780678025474,17.260479372987966,-2.3547473612161176,-18.522456399188023,-31.59069299195521,-42.11274897889956,-39.45979627812478,-27.828548500874142,-23.961085003240456,-22.282350496927872,-12.159337649340298,-4.107038380577654,-1.678444309930471,6.12578866339917,18.413628864866247,25.724566374873604,20.52110802513456,2.9671234759099745,-7.479070314817375,-0.15163438605662427,2.7727163948738074,-7.938678086173397,-11.814786187127657,-6.3118093270788895,-3.895423115181221,0.6581658218758462,9.109793357824744,9.424125725062574,4.54982977313599,5.046759808574441,6.428347280355371,5.339083796179448,6.429066558044438,5.593084528133583,0.030452077878714512,-2.917012074269458,-5.320398493092787,-12.161490960372396,-15.398282274783666,-15.652100272893389,-21.184485132335798,-21.53955396543809,-10.641644689867396,-3.87198713175854,-3.2990544128159147,0.3848047186474375,0.03671170174021121,-6.772214998043692,-6.6136713253029935,1.6575342907239539,7.852212007251008,7.601015820160746,-0.3349364531057102,-9.498050684706232,-7.519015700254489,1.3962757317952388,2.904914242074643,-1.122255938180757,-1.9408352482246043,-0.8255232674480704,1.0437463320375953,3.4224940629731595,-0.7090077187552701,-9.73096141940288,-10.118813196756019,0.19552661696466034,12.372993988863424,19.73960919682964,12.248081144117107,-13.980482334314706,-42.82903111439059,-55.69714265775008,-52.02156749579021,-51.96609228095792,-67.05099625393592,-74.38652624072301,-71.39185211467479,-83.35705583179174,-69.18405460200341,39.980326838047546,267.6042688086302,593.4084739764642,745.6678637730195,316.91297493895934,-429.808653682057,-669.4856582054963,-320.9385457496869,-64.74747393357494,-83.96351014710226,-66.38370603339877,-1.4209070081575703,-7.571384850152164,-12.918616950507804,0.7692398721226716,-14.159727010053789,-20.439162893825323,-7.834922461236131,-12.61460915915157,-21.831272836999506,-21.482755199249674,-21.875611595837505,-17.27780456448836,-10.392545504219026,-11.91304700225594,-8.0903864681287,8.695075915690575,23.111681388613487,31.518810247746174,41.99082670242565,50.809879926961194,51.09320282522154,45.76390375831638,37.59110174250186,23.26262402467714,4.288811033982627,-13.11709832756309,-30.011107097246896,-46.74164436198183,-54.011032293518134,-50.63187890664172,-46.97374730604303,-43.69922665200835,-36.67663760183804,-33.904692464021764,-37.81810523273986,-31.643999801428798,-10.772471433359431,2.6286504576388268,0.2820323153446864,-0.7207723908353039,0.3470079985956893,-7.114390747620504,-10.032251187556946,-1.0310251838180307,-1.3156993760127875,-14.608537410249706,-17.411493701609825,-6.504196460455084,-1.7494730092926574,-8.07710829386983,-11.859774107440273,-8.814828180876622,-9.078926353347825,-12.96542079071562,-10.292316402076457,-4.425880695982613,-3.3421669395078766,-1.5446317178413587,1.0424831003953727,-3.3490480853558644,-6.483802264426991,-2.2058351103326785,-6.217222658421024,-18.214050332215187,-14.211815463719223,-0.5500185643222686,-5.261896953656773,-15.570847167218167,-6.3535688861821065,3.785721712503067,3.3901136287261764,13.297472441455032,16.979466582384703,-12.278592290995693,-39.78300204232018,-41.87799038284122,-48.6381463536926,-62.74846231483654,-65.10290455943539,-69.69378044106895,-88.17809033779923,-98.75267827595935,-65.9692419521941,39.75968636983704,257.9084314825896,583.1437933801194,732.4794946465577,308.8980137147346,-438.13128523773906,-717.5384278635662,-401.4053191885324,-104.83348490159302,-58.247349848893236,-27.160131029082763,16.62365531279589,4.291805264413711,5.39859958851154,22.81104464294851,13.69494854512421,10.730344159545691,13.90067888103744,-0.44742511689022013,-6.178738952868958,-2.1566837440519073,-11.445322221096593,-17.689725782066876,-9.591312735185333,-3.7067681181149217,-1.6844630075533336,7.866436668056215,26.82462440077004,45.70181848069798,54.484090106492154,58.32864641547788,63.074123359370084,58.205669508516436,42.29794086850313,26.563846401859905,7.944122871689832,-16.286837088270637,-35.41861916775443,-47.817898502966294,-54.78551929856085,-51.04754156414971,-43.659044060038816,-38.78953155505995,-30.37470461803089,-27.045279627351295,-34.24339810007393,-31.08250789650276,-16.885970027603037,-13.600191989800031,-14.24573352971769,-5.404313803298692,2.7713790357855537,7.257318441410309,9.015964294164878,0.09940385827905018,-8.75305812251803,-4.632021775335126,-0.6072208351043962,-2.011022344149209,-0.6620775798054979,-2.00903204649358,-5.91831199269129,-3.585318041503312,-1.2815346936421843,-0.06090838459732595,5.547798733464763,0.780244115268232,-17.387998756138796,-25.367288094675416,-20.84588867913061,-17.62687494212063,-12.930923314338088,-8.016192132917032,-8.942163989394349,-6.368263385389957,-4.301569803125673,-24.682943523032325,-56.765075980520244,-69.48722862006618,-69.42747052284892,-74.68822940032453,-77.33753162267105,-79.53641760681859,-76.88041865666418,-23.688300616546112,116.56045524112027,376.2965699765516,686.9671246721172,660.3746196277527,35.64193474932995,-630.3232823866754,-644.9488755989687,-260.7577788580269,-70.60536119728117,-52.244209118735476,-2.541672991424747,13.369483616982308,-6.707614331446081,14.770850806418476,26.540216689492365,2.3530495473596265,-4.287494268732929,4.572351970776513,4.474732174983386,-1.0797703272881183,-7.912124328616305,-6.172792980243061,2.0784147594663405,-0.34009651239353156,-3.49624632221722,8.537588357352952,25.736229924876454,39.000095274286544,49.093133108537,56.04446929313664,59.99138700962435,56.33760680923939,42.205849598519166,24.435860787131347,7.66511586247503,-11.57231148500256,-37.72303195744437,-61.46531849380557,-63.715332069950136,-53.55454075078671,-53.94189552331689,-51.620934994365584,-36.64918107720896,-30.121622921561315,-24.09118887489344,-7.221342469781977,-12.599073581252064,-33.175848227943156,-19.373428485078602,8.526648892148252,8.203889812189633,3.4214479664235835,10.35551318103431,8.409159478533248,5.139674867387469,13.533245023351082,17.49087177270144,8.011949554099623,-9.10916557209594,-23.155849029663592,-19.050079621501922,-6.226816656873165,-6.824316045897886,-10.166723597406342,-5.371661031359775,-9.90268287813306,-19.086979616222017,-12.737874539445382,-6.703904508828568,-14.0934144390015,-17.207213567135902,-23.92017451919835,-50.42968222704951,-64.44306661298862,-52.524389249611545,-54.993385869874444,-72.954273726688,-79.7033162023214,-84.12990286882204,-62.195413583357634,47.94596682914083,281.6121489138806,611.0974386357158,748.2012598802814,296.676904411009,-466.18543968134185,-721.3002241357264,-375.0459323906475,-81.81873102198641,-48.87839467500819,-18.216672941393043,23.420745332533222,3.9077952645947107,6.559740434967352,31.196957251941225,21.51767587833672,5.526863021993124,-6.852294746778122,-23.11982939167528,-19.849050678133036,-13.09476691218603,-23.21321682904734,-20.78169179267868,-2.857144583860787,3.6467656460632027,7.211665229998477,22.476605587780888,39.115200453886395,51.13418909127584,59.76948896966689,61.4950414011496,56.49690769407606,45.54106512159295,26.522791541536996,5.063400865332437,-13.595508003714176,-34.05983395129749,-53.27916915041385,-58.97616281897018,-51.85361962648897,-43.733445786679184,-40.67037442499754,-39.74738983694979,-34.01487246256582,-23.723304650071707,-17.099935999285286,-13.336702473417695,-6.12014190106852,0.6875160449938846,3.6972554636384594,7.03802274028003,10.792984583778015,13.179154765578266,13.223478998925783,5.079578883390893,-9.818365577299982,-17.046617771072384,-11.475216648423995,-4.175480257248383,-3.168355475171893,-6.664590499889069,-10.701684471608198,-11.01453837534416,-5.8867714239573665,-1.8349038911776212,-4.561239695497113,-8.061081545232884,-6.746702101110095,-5.665156984768622,-7.761631861977388,-7.883258354383411,-7.327170174319646,-19.9569261920117,-45.14149494674406,-55.17998111873115,-49.215256051763774,-62.22111904914023,-86.38011417592112,-92.02374002876184,-91.84490371102198,-70.02663357662638,42.91227833490127,301.24653133547247,655.4289384613406,760.042581397384,238.03793107674025,-526.5909461335069,-701.5413815044017,-314.9804314694445,-66.06727565317772,-71.75319174419089,-30.94864320591425,22.31435187082527,-2.673672728121673,-0.684647872650177,27.523057238736413,17.01258001902321,9.45652414387602,16.085858619178232,2.1455849702313454,-10.988412087658658,-7.08093452869078,-4.8201532975393055,-3.6460652263141697,1.4680321849977633,5.9153321976650926,14.367548995837648,28.002966874977403,40.794027939875775,53.06583897778242,62.74557389850882,63.728722732564634,57.100031598936766,45.49198163839071,27.2419237304859,5.014497088238165,-12.068598210608156,-24.06364115785972,-43.72658398144999,-66.60733390725412,-67.75074537075969,-47.849857378108744,-33.91827462904743,-33.73753753561503,-38.766564225660346,-43.0172064907162,-36.42171161515122,-19.94223452080093,-10.40254160636259,-8.751639094888372,-4.321668728172156,0.24605301648645828,2.4582138016117714,7.3791733592356845,11.843880177845536,9.491210074734411,3.5238393798676064,0.9596791776330402,3.5982897827851295,7.629695135242466,9.25021849727005,8.082838690039807,3.8362087523427704,-4.043342130614011,-12.397097953172974,-17.477654483289363,-20.307481409688087,-22.310921322866577,-20.877800369184623,-15.561631066120116,-10.530820799971199,-7.430606478044151,-5.251299023673278,-4.182566622011258,-3.0309535045039873,-0.4901768855267221,2.1025037648501446,3.0533372361577413,-0.9671274084760348,-10.388651364371635,-16.229783039867836,-13.424695772408985,-6.1715359923305035,3.8699748261243965,9.86125164789292,0.014911723901615659,-21.278409253608217,-40.54064218197681,-50.2535583888307,-53.69650160802888,-66.62829051933988,-83.14645167472264,-83.76322497797591,-88.57748056180736,-91.9051346661947,-19.55920452058669,181.5957326011649,517.334206513407,793.6418943882263,545.7670731351362,-232.13201255243206,-710.8853768040608,-452.40872732327813,-81.26303390742217,-51.707637567157406,-73.61374005832776,3.26272114231233,17.80262232372447,-9.235986281781845,-3.119264230129768,-7.150762616465597,-13.26998487541258,2.5796959539563744,4.966957552670356,-6.5537639041657805,-8.780172089379683,-8.170976342714091,-5.501168795364013,2.7981573098705503,7.582028611993323,9.727484396725243,17.582217576619197,30.259767459335986,44.305214587855005,57.89542348437193,66.03040655030213,65.32132262956262,58.629278665940376,43.85517182261094,16.045784882676582,-12.563378633876317,-29.036636232875413,-43.21807671222396,-58.25114509063734,-58.975248795790215,-47.22260312380595,-38.21495275303872,-33.74507503632039,-30.79322257323072,-28.404310283222298,-21.66117119896846,-9.109213965999409,2.8746817686734936,6.460761959362394,2.27193309820848,2.979715405801879,12.452812689396655,16.10620425573501,9.216100237086842,2.805476101324989,-1.1317479998573354,-6.353092670519688,-8.952156945757487,-5.731835353814565,-0.15016999110092488,1.0095963676365978,-3.763101977507577,-5.019464587316171,0.3201820727126359,2.492096973934767,1.2350562110609369,0.48285234982035163,-7.779334011458275,-21.329541517925406,-24.640485928224386,-17.49967923050461,-8.973381090203059,-2.4189671593931825,-2.9217111343236253,-9.355895655471546,-10.375703711787036,-4.170327240872168,1.423009542422406,1.6495266428665516,-4.396461736216708,-8.8648111795611,-1.5608923113682271,10.142082661533093,11.871715779788223,6.129864292050315,3.9362159059170683,7.018886424749603,11.037377848717187,14.499239966608608,16.835253829756976,16.029660992267896,14.017207916812557,15.214182544339184,19.988248281975935,26.926957723088666,29.358649047442306,16.567436439172706,-3.083840588249693,-9.647236249164838,-6.9430204367841775,-7.278261444236511,-5.133751188521648,0.4036608566322215,1.929702401461478,4.803344953925498,12.01325816641861,15.231095981200491,14.255186476008618,12.958324062771176,10.192952399973912,8.612591036528357,10.285364573049716,12.163776587644524,14.148618759623801,15.458033104953078,13.987838787827833,14.390977001317978,18.345774272115918,18.827442905009285,14.943648795751464,12.165929021363084,10.069581494163792,6.624918132374535,4.887805628814242,7.09724029433896,13.013445154327297,23.97249456459278,34.65158014602303,31.410421010033883,15.641830515262576,-0.2947270910296176,-21.723840968221264,-47.07686377302156,-55.848171284920554,-57.66805600915518,-67.76059265084841,-68.54208302678903,-69.89207995586527,-78.74820153955486,-29.38181297275831,131.74749298916143,413.80053997942406,706.6324887832036,619.1997061448296,-22.567362550524194,-584.3987167184117,-473.2441229404386,-99.81785538115031,-22.851578096818457,-74.16415698669111,-22.44064981643515,3.9682041187352084,-17.851928239014143,6.401771807582453,26.895004721356123,11.092230869932497,11.69338855001007,21.350717450744167,18.035199661967408,20.32990747839685,25.591061588518087,24.948776766881828,26.700019502338286,25.617762681096067,20.584470281004492,21.74865638511193,20.402504107540725,14.40156711609104,21.173551490303982,33.69169593900706,34.882397891067924,34.71053285752754,37.033206339445144,28.991092731797654,15.781264572088752,6.352320329242643,-6.3472661383768365,-21.801576077314543,-30.354632227847436,-31.029366871021708,-28.00988658096833,-25.632421035997936,-24.740308716607444,-19.65279515847144,-9.692949932550336,-1.3381555624453392,3.5448634714919156,6.429370001931645,7.537421771466169,8.518744319012422,11.312770273362123,15.768605522510335,19.922921345541802,21.970397904352282,21.08952114043007,15.244730079108663,6.837667232930471,4.656273858990424,7.833981398266964,7.0210891535252475,3.1551341195423444,0.7271746114171176,-1.4155839134378834,-1.2128313330616933,1.7224465085688525,3.088882588103603,4.495195906407567,6.291403862410656,4.979402481834667,5.199162554313109,7.728548959246714,4.767160969479118,1.3399938634839437,4.78960409695007,6.104843601560528,2.9676571177986357,5.571030985450307,10.136342608522824,7.326497508231235,3.8500138279383496,6.3237837344156915,9.682117669797904,13.030652876299527,18.027823081608922,17.939516233211968,12.297417127495807,10.541511151289077,11.592263681855773,10.536642906694638,11.371628430997767,9.329403364213631,-1.3827320898550575,-4.975673198378093,5.78580184331482,13.637620211937495,14.029095043917838,11.378776496539018,-2.716362537962347,-19.126203191474875,-14.59254083896438,0.3852417195419049,2.6108787644039735,-0.6478745400492469,1.2723325689454477,0.9560869023832597,-0.8643593032700716,3.568957995104091,7.145783254059203,3.671378105064844,2.3893101552465583,5.3180021490735685,4.8993738211558275,7.352560798023623,18.38263776056943,24.787978687761818,20.40912985097346,14.286958024411824,7.096834003262961,-8.238511459132233,-32.146022823484515,-53.68301729716073,-63.7619167803075,-71.25739201806014,-77.93551506695258,-76.96672289531267,-84.62554076514333,-85.31750601154356,-11.945381070579828,176.00290452441976,478.48916832374726,712.9209425126228,466.20255475096576,-235.86814166397,-638.4656866910177,-384.86412123216815,-56.965362355950575,-40.8583676290353,-64.59828339957467,-4.631008312390222,-0.7295196200358163,-15.635742814438135,13.461211214427784,21.570132066156958,6.6975887798935165,7.833353546262449,7.36575629559367,3.2862843001025093,8.742312307040052,9.774983733626325,5.326579014665542,5.74675479545021,4.4033777760698065,2.2500243104814217,12.398409370429949,30.749518017173862,40.0036149330535,38.046402837326376,39.181941154319134,47.55651146935227,51.89358587638238,46.39496707579747,32.43481391895078,12.112100733771555,-5.76228815164657,-15.986069565996182,-25.178626187529773,-34.412957905174636,-38.70193339623688,-39.253195717072764,-35.674527800229114,-24.553110151033387,-10.103334997673194,-4.147671598107641,-14.42737126426912,-26.45117747019344,-17.939816208828006,0.009498235709168412,4.112083461849808,2.4349598071264236,5.182358897927022,6.0196898916800965,10.000992838806717,17.557484786643297,12.93063271815739,0.8159280725705376,-2.5209752171825563,-0.2919525853427518,1.9524902912515116,3.9785626057828134,0.598417158681575,-6.562332720013479,-9.982211174487912,-9.479732353522364,-7.159161884986595,-4.934694613473162,-4.648421565464453,-3.341134704843282,-1.6155520418664873,-4.204399441019143,-5.423840650918052,1.0500531678578913,5.877386800237112,2.170740510030499,-0.2556736005243163,3.239964259096145,3.6467090439986594,0.8470572363072488,1.3416037154638563,-2.1118469734682446,-12.447204958290374,-13.495072578528184,-2.530598510393891,3.5744790231462265,2.8468562371918384,1.869164403137983,-4.992234107345153,-14.995721510260545,-14.197452163846062,-3.9818880599373596,4.41253940886742,4.689221483470665,-5.571433974948475,-15.781844092621448,-11.93526295074117,-3.078873185627727,-2.321870214666406,-3.754295156248851,-4.614155498197185,-8.03311644785849,-6.683812786444002,-0.5012545915344404,0.09949340089045045,-2.68295889638836,-3.643069045284715,-4.796964324820319,-2.6050439890171226,1.3318680060095627,-1.8095828817964534,-3.6862429542209254,5.640257543554495,17.364799989615637,27.547546152235228,32.802654570653196,14.221173518862614,-26.00252178728837,-55.70124114532063,-60.96712398900384,-61.453677877854794,-75.4142680339172,-87.67937916414213,-82.11524159282027,-83.49614565931468,-87.63151163177183,-28.006194111157782,138.35349469421482,422.2379679575796,691.5999671137351,545.3794078565169,-117.73376322208284,-623.4178629010975,-464.685747972719,-102.08483457093973,-33.34047160320065,-69.50704862478423,-14.247948245062403,10.794444481722444,-7.87578561194767,8.221465734203564,20.33707889766203,6.73554621776254,3.956580276605618,4.849470436091152,-4.487485522977314,-10.100072858892446,-8.475616732527609,-6.018628997573696,-4.447707636747182,-0.6481264577396617,8.905461085289252,18.11925698360088,22.57007797425414,30.955979558078482,46.17588310318728,59.40832176278418,66.26800392638808,66.98023105283536,57.83118490148296,35.43077785797853,6.387551366680016,-17.23492177848182,-33.168344201472294,-45.11180316594926,-51.27699050529509,-52.526768044001514,-52.05364899981286,-46.43575977802068,-37.70320228894499,-32.55025733966735,-26.456634639164992,-17.074534961763803,-11.765684929782847,-9.15631021097882,-3.328264252602626,3.630199072108523,8.332474695278314,9.442796604543108,9.345463606885627,12.163265870683897,13.955997253347896,12.647176891221125,13.846741059678203,13.513963800933581,5.594138917815677,-5.191327689297861,-17.64047284449908,-27.57471829885305,-23.24791527642664,-13.607328239204637,-14.58251597900302,-15.873365653309854,-9.262738690502657,-6.588749888166593,-8.445187663467637,-6.677970511433646,-5.687998968803061,-7.560198643311892,-5.731995276596706,-1.6605337418864217,-1.4580717306609756,-3.863196102003636,-5.060220045667938,-4.388569389068048,-2.175389325121304,0.311790657729901,0.14738065598782502,-3.237524097179513,-5.842648935371996,-4.960974016704691,-3.4688296759052593,-3.3695804606991473,-1.6035566194863646,1.8979084586454071,1.4668615952631505,-3.6031794287531707,-5.806120346505102,-0.9375511684888624,5.447048465156685,7.281032234510007,6.320927615215253,5.199100198724119,3.078948289406983,1.795136191142701,-0.34488111501556595,-10.82812109852452,-22.67981410133359,-21.13936596907841,-12.4866146575802,-9.094753277612199,-8.139068542059713,-8.584505652795677,-11.943107330410111,-9.42769326699918,3.8398043391618657,20.793341031117098,29.423704152691197,18.678377568225578,-7.230308890620081,-32.417965461449526,-49.12913215221673,-57.920219237307634,-65.85664451202673,-76.34907091623239,-80.02098701375039,-82.13708509930669,-84.26312780218254,-44.81255821236409,80.4772969499559,330.23622132018914,637.5230637765416,626.7308791706037,43.83093699609182,-571.8294559263982,-549.7198150574368,-164.71156522928948,-24.99242469378065,-67.08399648595922,-24.325914876449616,19.605964981611613,3.5361943244272496,9.728531305668405,13.922445871114355,-12.426294602349348,-14.727464030522306,1.3277198726452326,-2.46131723804346,-10.31617200020418,-10.113826754664013,-11.081183042745426,-9.916666384089572,-4.208193582519495,2.876535016894911,11.19386586463889,18.93842213481232,27.423704183731253,39.37717960433998,51.463786666052926,60.161413122118326,60.46810065620768,48.09301597139615,32.32166900265703,22.367333370762548,11.067231791942483,-6.948135304607085,-24.224310115083135,-35.11307746737956,-39.83869893322121,-36.73397828633653,-28.5980703928103,-30.415571798315685,-45.79675584829126,-50.41659835220943,-33.54098762298163,-18.47603102183794,-12.92939591229868,-3.238146092555752,2.981224357234746,-1.9691345437806849,-1.8309015693356727,6.004419520186897,8.846749941899311,8.466806450089791,7.1969255663676375,1.9381548417192205,-0.6720628836100557,2.3625398644648117,4.9060753058993685,5.576180286377472,3.553146069028712,-0.8036476325734343,-1.89398084747679,-2.5150942354189976,-6.890755483634341,-7.253829824681576,-3.911456453097843,-7.493442688874605,-13.747066504176875,-12.33152039750606,-7.972889989245958,-8.808301887247524,-11.619460885429266,-10.191714738826182,-6.746462661945489,-5.132274269966396,-2.5523792407097066,-0.4936558978180958,-3.8202194391908266,-4.86499107384131,2.3038914107158983,8.943154267768909,11.782325689357176,11.91045919378999,4.221993652415485,-4.73138728958637,-2.942091415797339,4.191618324765665,5.503069442972414,-5.350044516109463,-25.168069486865615,-31.65233504467635,-15.755216330635234,-3.152055321087891,-6.4431184384249605,-10.050079033197022,-10.18500800948624,-11.532196886195157,-8.263740648943283,-2.304696119444081,-4.714176675440738,-12.890965169316253,-13.431284667970951,-0.4577536732993499,19.689301414079793,32.24659104241887,23.780405958121168,-4.524137790959978,-39.152584110182225,-63.53194346282536,-65.38942480971875,-58.87062443618742,-69.06617217765545,-80.8089414345242,-77.69451888895053,-80.47537960620129,-66.23458674168836,27.517880611685868,232.99474624720727,534.7431235638066,687.6024784389984,308.95717994826197,-390.3732114677217,-643.663150614266,-320.1512592572767,-44.505536377070776,-43.986593743547395,-41.14399147267105,8.01232116895524,-2.4784963861493594,-10.641500984348422,10.515906331403503,4.632059415855263,-5.417832090664444,7.504566420699006,9.998706378292626,-3.256511579314477,-9.835895530651396,-10.143375522539461,-8.157480405359404,-0.6393207623261542,4.6369607551379515,2.2968688638747827,6.6383125526438285,24.442089119492504,37.86682737784924,40.07282000549535,46.11459655113948,54.84527436057683,50.66069548769661,38.46485462261536,30.974925859308172,21.18433227507226,0.6129732601403974,-21.175478771361938,-35.56083338319342,-45.82666558103442,-50.8929007146385,-47.658565558680785,-44.08635991577686,-43.36345082554879,-37.49383336915429,-28.4029138903859,-21.814839354253024,-12.871695527658577,-3.4976946290737487,-0.1418213093961711,3.804935531637014,8.743888821205275,6.709468715437941,7.97150581567956,17.903450468067,15.478158095736195,-1.8172409052082354,-7.849177451486543,0.44327619126529605,0.8160383751959657,-11.811423860806919,-22.02301941534343,-20.537522763821894,-14.911672464042583,-14.609262507844026,-16.07941837437508,-14.087183615295617,-11.117936412418963,-6.765121901648538,-1.4847641861371876,-2.8530366615901492,-9.289957319010911,-9.929893688977243,-4.60783645789172,-2.6567487917031727,-8.156771328774468,-15.662070894260033,-17.487969068540792,-13.676082837349815,-9.20126961545824,-6.664707954945516,-7.128162513536296,-7.819062862694274,-5.050800797431316,-3.1937756133248065,-5.90127925330745,-8.980189236285607,-9.432506639108354,-7.302869114056165,-8.20723280137226,-19.678869726490376,-28.515713748578424,-13.892091934889102,12.854622027833654,22.81961081344471,8.339649030430303,-18.413340529152883,-42.92657134235571,-55.93101359481419,-57.93133396179695,-59.522571337496224,-65.45430151250048,-66.98829730139713,-68.92029725970289,-75.32693814828579,-47.86759658214476,53.24420051986844,263.9535991693641,577.5717343065577,693.5126686435241,232.46175665007087,-483.10174013044303,-683.9064118595174,-350.6552861863738,-94.44807022141326,-66.70140075380091,-30.24199722820196,18.61811106693851,10.023208130958281,5.721516413678671,13.194222968331001,-3.050589888585847,-17.516976231676917,-13.02208899875761,-6.5062044831782515,-10.943868488751491,-24.826307361850787,-26.967037119266607,-13.306877595324927,-10.16761548138145,-14.045309388629637,-2.2488166348674774,12.044109056942734,18.38921292973842,34.22033578083418,54.63072329650825,59.424659275665206,53.38124384478634,44.97757283456497,32.56769032839256,19.739433075155816,2.261523426442178,-28.398429524216084,-56.72555964712156,-64.1945474344497,-59.06827694725987,-54.97315940766052,-53.378874558162174,-52.31057558850935,-49.44406681394923,-43.88776450038411,-35.42845211398998,-23.60814625960839,-16.758740121043175,-20.24123826455631,-19.887046181014963,-7.61339134942903,3.56466067435586,5.476280157571345,1.0417583795348122,-5.503065594032723,-8.46143832610985,-8.60294373303157,-9.269352023892854,-5.960774675790166,-1.0419750254318814,-3.6378719342006107,-11.624762588523463,-16.723442404870152,-12.640548809818476,-5.180388334769351,-12.953216634948902,-27.42111898823333,-21.034107606977066,-7.10146827377956,-9.26570776887041,-13.611385711018524,-12.554760741130558,-14.518058540370852,-12.387831179388886,-5.440129156321184,0.29818639420225423,7.484865694499476,-0.10665641978823359,-27.652625018181965,-35.518769297566706,-24.347694663301713,-46.13263448286182,-85.39099463026191,-90.91659066044859,-85.43556590058854,-92.52051750093136,-88.30432856487309,-85.58416652797827,-84.79871947745386,-16.52189844810504,166.11559198637661,466.7552454209277,729.2448734945406,535.6082511619902,-182.1651363887496,-710.3957340210884,-553.5321379496917,-177.62367462839663,-64.22733715814076,-57.28750261206623,-1.7551310973110645,6.595036626321573,-14.212241860429817,2.2402955683000982,12.60752505584566,5.4210886721987315,7.868139744263143,3.4463370176294603,-10.387578255546263,-14.252836866017134,-13.551652576718524,-14.217883556087468,-13.483878782950827,-15.507057220751188,-14.62148816401845,-1.217266447762663,17.32171448061998,33.26151085535476,47.050568207490976,53.78422862219642,51.49050678139624,47.88477275078077,44.27647097790671,32.40240456999075,8.752466469070908,-18.22343920631346,-36.87956278920316,-46.47758475452665,-52.54496840704461,-56.66305580735192,-62.66182250138301,-69.29762421364248,-62.06110984954644,-41.90337356239428,-29.77165945311743,-27.73168741867677,-22.60563953910809,-15.725238986596487,-11.269154984987217,-5.277998340892779,1.32564770874475,5.06977222498314,5.555064346922773,1.9855572816302995,-0.08901468759412268,6.678661138131293,11.634236111655131,0.17909559801821118,-16.28166358666413,-18.740848935706108,-11.063357769463082,-3.0660633274835902,3.9058584516145665,0.4559842403015395,-18.838141511972943,-33.99780781446937,-29.022033092560463,-16.40599759996351,-10.98015281690757,-11.567298510536851,-13.36696174220415,-17.072563123547244,-21.95533979494074,-17.850063234173543,-3.448027935703262,-0.0836368352269794,-16.352030567155936,-35.84817597595381,-51.50270817274189,-61.42849275177406,-64.02221012063444,-72.1003443852744,-80.98956085375232,-81.5787518993158,-91.66040096455248,-79.96204915218168,30.84574787073433,280.0214482388135,632.4332081547283,785.73962067464,317.70651971443766,-480.1874670381302,-723.7153662687507,-329.5240104976905,-43.37626505069344,-67.08337414672457,-51.77560846489539,13.42962988419616,-4.401787187644189,-11.640882217209377,17.094188049959804,10.725633624002414,2.333951904613839,8.980749705457228,-7.081754800230832,-19.349919804609154,-6.087492033936359,-2.1562234554158497,-8.834949814701787,-3.7668145226786707,2.9356728396661356,6.951974148659856,20.62886463960867,36.42385774698024,46.13870730558051,57.46559624242117,64.26205061774166,54.91779715692053,40.30243918689374,32.18389051168221,23.423274577234697,4.057282063664012,-26.032108866028622,-53.7987653235369,-64.02422388487943,-61.330459892886275,-57.317321799901805,-48.40289514753939,-35.25040423047643,-28.61769820267455,-23.77067805828756,-11.545622569772185,0.2796886301136645,7.00363371203153,15.084437231872457,20.83539323057435,15.968469364601921,9.22470098256706,12.400489248931493,13.552815258789595,-2.704359660553388,-19.848157981540314,-18.41604316588002,-12.710875510699818,-12.472628609510842,-3.2271695448496627,8.7588277230485,4.399888585829904,-5.442396849298893,-4.945467342880131,-1.1867182909359597,-0.8061819575515844,0.7289845839887095,6.455406616099452,11.07757264085082,8.106984784748768,4.33981113559814,5.8107428937033445,2.8143085919598896,-0.5052279683067948,11.64160295110654,25.866108408551316,22.451450044485153,10.073149900128069,-1.1467725931102208,-14.284662684650723,-30.172582738385394,-47.27690195324486,-66.23995185696955,-83.89709220132666,-88.90431627533452,-86.37787140846856,-97.04385212470973,-89.34791402600895,4.73575014093305,224.426206583102,568.1824274405495,793.8882571508432,447.68770618791893,-337.30509589326255,-702.2460342473369,-375.47372669904206,-42.8785126062672,-44.87541869704417,-57.315154779047205,11.935212987607436,9.797657951202112,-6.65064209322444,19.624146885756257,14.770146168557899,-8.876126137289148,-4.291676292188827,-1.780435903156544,-12.172159532097782,-12.114608673832965,-7.829414914210483,-8.84139288844652,-7.318921637100395,-1.6210903315661183,5.038561843910291,14.160551288899692,27.636139801845253,44.27025721016398,57.57179618437646,60.157083048588675,55.18619917619822,51.16082849784785,45.98580375282965,32.73641910208406,11.58996242723698,-15.542408246948513,-41.815600580239206,-50.95155130677779,-41.04287131839094,-30.659859347642538,-27.170808595329504,-22.86274158487957,-16.985764581010944,-10.96881586271618,-1.072016034495089,9.885407242302296,14.95861891565491,16.55016584493322,21.74692985187577,29.530401281561787,34.0015751203087,35.33529380868315,35.085250746097934,30.487992569373418,25.66604721636982,27.470037770567252,27.755618849886346,18.010177025437894,7.374867287801386,4.017751935220456,3.7943093970879396,4.739542214389164,10.153323982222098,17.724030476799285,18.346942936656106,10.95456116220014,7.582617235028756,11.937062534797917,16.18692840575386,20.956015315381336,24.58790705272113,18.26542008928289,12.8230512030656,21.051864371770158,29.03583405786485,27.471539880925146,23.26083915802425,17.67499228917127,17.174910022633885,24.063167056440435,17.65571508786888,-1.089918742872083,-3.891993110319561,2.8467322346086164,-3.507829758420405,-8.59826625692341,3.7568800476597133,22.357142662598086,35.78920816051246,34.288156872019485,12.412785583952044,-10.895289085241735,-20.626069100201732,-27.022153918005927,-36.42692566513353,-50.18408263028754,-66.25853306845345,-67.12440903093567,-61.49766065057439,-69.1844060197577,-43.91457549940834,78.13589877469262,324.99950555945577,632.7153984710927,662.3618799551243,119.8873078676683,-541.3985886745902,-598.6501106666279,-208.29894859061636,-5.87013929115685,-23.524083539802387,2.0247343799867465,20.65998869940738,-19.48407153584506,-17.377178799904932,11.564900665298468,9.99914791676638,8.222907356113188,10.925505349390516,0.7008934835083145,-4.130178653024301,-1.297753170928079,-2.041364471981791,-2.004310754694333,-2.0600486413917016,-0.3063905944412273,11.32197238838115,25.715854966369847,36.28859440870921,46.029101440713816,51.99537720606814,53.06004894496574,52.12391539467842,46.289552825090574,34.94303802952867,19.659611410602604,0.5717646809637404,-15.391119867330897,-25.601506296250054,-36.60194392792167,-43.3294179413984,-39.05540156905121,-33.5541017520448,-30.216037761243257,-22.40415641427652,-17.95691018294918,-23.464664674999376,-25.505332403764506,-17.327016177904397,-9.435050110596936,-5.1622375112254915,1.2568017756383583,6.944519602816188,3.7690308225324465,-4.78979656054481,-5.29514337354942,3.3029053326854187,6.110233052702068,-0.0725517437834764,-3.717485938218843,-5.599314453583467,-10.275246091406867,-6.876398804319763,3.748027060966848,1.305050260459442,-12.029597968916054,-14.085143639453388,-6.343703937002484,-4.784643739197032,-7.119541599230635,-5.564372877351708,-5.094237295434397,-10.180792514859284,-15.913055482448243,-17.18174475115014,-14.035572233418002,-8.717176613748688,-1.94181668546468,5.802196851747551,11.466596907972171,11.125620521932813,-4.053112398332239,-39.93152397579649,-71.39781962694445,-73.94790438605492,-77.71479654746186,-98.68642968890583,-95.78761424649498,-80.09040110977622,-90.3721028402747,-65.93429283192899,70.69722480788809,338.74207061345123,661.4274536052461,677.6071873497506,90.87293058588742,-608.7491538694619,-682.0093830469034,-293.0289958099799,-69.02326506606727,-54.41605447707012,-14.189837734210386,15.948526240885997,-2.949425790021408,1.3682597471016713,10.334906113811943,-0.28215233964595754,2.764839219953725,2.644751833011373,-11.906740350891084,-4.807667215313703,5.978522746533926,-17.293852971988905,-40.984546013744065,-31.929030041641532,-15.781781086421027,-9.75969824581777,2.1377513619225734,22.652719341531686,36.118090880378766,38.843638576157744,41.99669702847359,47.44210576646034,40.61683470846833,18.71493347947022,-0.9300615203689091,-15.701833538446515,-37.803107674242554,-57.75939384111057,-62.15670354659747,-65.06467888301304,-72.50974740087051,-66.94726772394554,-55.71849100542947,-60.156393383854784,-61.64976277809723,-42.608662741385274,-31.707296279492255,-38.77596170805367,-35.25882433271511,-23.477513472471664,-20.879082487948196,-16.19496822495023,-10.961892269770544,-16.1457608629419,-14.012836255496971,-4.290951785624593,-9.154775568908754,-17.123423921705424,-16.512006935097695,-22.1588451891348,-29.928231970813762,-34.16606311077542,-45.67397415339002,-49.497373054137014,-35.777024293600164,-32.65698498322025,-41.53312651836162,-36.46988121911187,-27.01546255499271,-27.806243493049088,-25.02777832067916,-18.874848769145544,-24.48294785858438,-35.16243744684938,-35.13596793620084,-22.304485927664622,-8.638214333594206,-12.682341043343776,-29.87020018085866,-34.79711804962788,-36.6426499888738,-56.11508540250874,-66.92968859193981,-62.9361182666742,-79.84708936092616,-96.86094238141878,-90.19207261788301,-98.48301240853434,-87.58211762921242,35.67214613614415,287.6732030088343,605.788098261856,707.5874834022328,230.0331560227878,-521.2360313484115,-740.5306473178217,-377.4932351198622,-91.67446390538969,-64.93682080401273,-33.91682469036593,11.469751461682904,-5.996132588881906,-10.927230019350429,9.659199134413988,9.648277680096712,3.8065015246811598,-0.5209856380696891,-12.002085488084862,-18.194982208525865,-18.73137196306358,-19.008116980225523,-14.740601961519715,-10.584703625257546,-7.900351816632362,1.6141860328447883,16.052449088531443,29.849316816314733,43.611270375009724,53.14616340265307,51.97456306564399,43.98965213566679,35.56940709430588,23.01745320731355,3.519064267280939,-16.753835867431825,-35.23068272870262,-49.64924149782077,-52.49352774246121,-49.91505440228923,-51.12107973640774,-46.54109770233947,-40.24448145022176,-51.48152500210628,-62.75989493030999,-48.144509949702,-27.76400816191907,-22.293774873570413,-18.99216802361088,-12.489270691550047,-8.933722796622241,-4.051399565824482,3.773858181944828,8.975255728003358,8.761239845217197,3.613127674518914,0.2131416265221766,2.60751181126221,2.166976277348315,-4.7503011002498035,-10.045889975735868,-10.500082886792885,-9.809600404673112,-12.447496065439164,-19.087300758703478,-23.942545770296388,-26.756179002253134,-31.6762211414353,-30.94483199919913,-19.427369457601863,-9.029672314861457,-7.554661957144823,-10.06612355484836,-10.996412442164178,-9.318351382126501,-10.160420088865806,-14.340443223960577,-13.612820547118954,-9.715559810447054,-8.561551870151614,-4.718507248074637,-1.8196291655259742,-11.579012822996226,-30.664857612531417,-49.599856223738556,-61.10263375722076,-67.09076459977324,-78.15053087087131,-82.59482329765,-77.4305499602245,-89.74358381651692,-82.04491717055042,33.20900076748836,294.05238527180893,650.5699453747394,783.3226345832286,286.5618721614323,-506.4709235250107,-719.1933450304721,-316.0620504586212,-42.53977804181004,-71.15501368276153,-58.1899119469353,1.7132490330438372,-12.116594989447904,-13.156871759224405,15.714830148941708,11.531388557053045,3.5122582018073434,7.115279186149484,-1.9233717280766598,-5.26134398674405,1.911346089365864,-3.400455959200558,-9.84505725975525,-1.3157351524248626,9.6383165923272,16.89498303994067,26.91927281627136,37.477964512562174,45.268639727993275,52.96214438704256,60.2176284459095,63.561876213974436,55.26159105989696,25.908313595049712,-11.514291646984894,-28.353758447163877,-27.315255159966227,-36.119485053859904,-55.71180934020059,-65.35237597580948,-61.7519316862108,-54.91511657615472,-47.109882838563856,-36.422422838723165,-25.02555894687761,-16.548146725597736,-11.939515941754916,-7.412586828297181,1.8678966095429992,11.732093335125082,13.09788733883983,8.818853522755218,7.788378217154792,8.162352500049664,5.960838537128255,3.038594840956515,-2.158912610654763,-9.73791816182007,-12.483654132153198,-9.551686033473864,-7.327988439950172,-6.615840975213448,-6.041180886151638,-7.5152722838565325,-10.148373188032135,-9.971642674149109,-6.0922610166026665,-1.2718221481784777,0.9681136603384353,-2.059850242384181,-9.32460402017396,-13.926219788125199,-11.479422949327862,-8.047397778830469,-8.207838732629266,-7.2700712062948085,-5.211922665035976,-6.1073942985860175,-5.3563348152634855,-1.2456957196327192,-1.3630370223322554,-5.428523040511964,-7.276240371225785,-6.696041907921719,-3.101863225381429,2.164529404019267,1.8356771694069813,-2.347727189839155,-2.0712264024732914,0.530489898094352,-0.09275363955347071,-2.754390424636041,-4.138557822205298,-2.195484509312058,0.9871786387532824,2.3894281509437336,3.385339849352457,1.4805186595705422,-5.421332645320456,-7.198545225235668,2.0232183789933194,16.948315527272968,30.15478096127362,22.611955858319114,-12.472179495828579,-43.09187879119354,-52.613674810827575,-59.51669214461043,-66.54801729344354,-70.45785853050126,-74.86193582434103,-73.4919567681267,-77.00268330965893,-77.79388649706253,-15.312997853915263,149.50660528223216,434.56682956643516,720.3490012811598,578.2572557750568,-129.5138267803353,-682.5964352810812,-514.1750966520228,-124.8368720212686,-60.69902376549092,-100.57144798496395,-29.93863952035467,-2.002739263587813,-28.260113041764004,-4.033675539837125,24.02452096897313,21.155597911471858,29.688900075377408,38.26453627636404,26.625419083087486,18.606574635146465,20.589901670349757,21.75258107855487,26.40621625629275,33.428640948663215,34.57699655443099,36.74952747224829,45.73116352090237,51.17884477619005,51.35517287589589,55.389667393951726,58.03243653824869,52.09018950456032,46.85162028795575,45.158610131397566,33.81755547906948,10.067867272247444,-10.98957074556408,-19.01370485176794,-18.81425503505838,-16.722991935068265,-13.567460794456142,-10.729568755717956,-7.664444846054305,-1.9210670165105732,3.5263641001987125,7.768843150667735,13.492996195113662,15.705294004246593,13.887539364690564,18.790362854466355,28.88592208208942,31.903245251825208,28.913324920944923,28.248760058562162,27.83928945149441,21.070217833237354,14.095234702845705,17.55555200128408,17.33894939268403,-3.6761977213825396,-20.154169364901144,-7.497573810984882,7.975033280491772,6.10017920664847,5.210031881164259,9.362983295435678,7.983674207213014,8.534317875821333,12.647135248690855,9.933614529127485,6.032891478586247,8.131405174176109,8.702573547546226,7.307364500455385,10.512020195113408,13.254493599827622,9.456948144119796,4.903565476589765,6.353748226375423,12.058516632663537,15.470936924964224,14.281809463888344,13.238567730453596,12.378550234127843,6.076330742369777,1.6884483334964742,9.288149144198439,14.70562964155575,4.045642165557478,-6.205526706321358,-1.6480483119093208,6.198407104390938,7.536098376263091,5.456309772991808,3.6177822938290705,4.467777771419496,5.4622194459888025,2.5191158125249675,0.9562644709068078,2.000781809715832,-2.1820087978582805,-5.967821797674762,0.49589853816696383,7.517740179284808,5.503947949079869,0.7603305583403985,-2.189668230273283,-2.063752890886727,5.614537244502049,15.867962130840546,17.936494027284613,13.546388428524427,9.93647807204946,7.35707691595243,5.421965340051637,4.379941360320528,-0.28025858999826214,-8.151902315931597,-8.221938643795967,0.36839060890897724,-0.40424749267484117,-15.463472084029059,-24.074701736165935,-16.625972080968634,-3.7770479416603298,10.38469140969632,20.13330759258833,12.492808878735989,-6.319093430914893,-24.821493573646052,-43.587643766313775,-52.195342981150105,-49.589129574008155,-55.337932538284996,-64.12607161583912,-74.39047127330858,-98.87763079845789,-84.06176765540467,31.4538296714789,251.1214305983475,554.2707684020895,695.1379078522866,293.4432882158345,-399.24772972520685,-607.927155180363,-269.4294368457199,-31.867663418964383,-63.64633825744461,-60.6703261588153,-3.8842464863966697,-8.451058608610673,-10.044383792591937,13.363333124162901,7.79926729030526,-2.441962194150629,4.92156313774917,4.729637292829965,0.6040091743768832,1.7626974651153047,-2.964175163929264,-7.589040816035647,-2.5730103019869968,4.774360400745769,13.462895208266445,23.9811142631287,27.470171709174224,29.51919485482606,41.69546690102507,53.350519091444745,54.14328912682882,50.26216384476882,40.495145360255385,21.996565287542225,6.52059109643683,-1.506066022981096,-12.575075846108298,-28.527468763718723,-38.04869589719818,-35.99753651226338,-32.71755870844696,-34.449053728602564,-31.013792032351457,-21.991940591703404,-18.48435806801734,-12.876419234814886,-0.9265734573216182,-2.6355703482063273,-15.423262299827126,-13.603235330387552,-3.000761644409284,-1.9084942681217942,-1.5964288781597622,5.264777760725692,8.763679492019902,5.436390634413405,0.3177905402036876,-1.289011272732294,3.25415258916692,6.0869581950777825,0.4464236748782664,-4.2183008871337115,-2.340476969557659,-2.3061713258538044,-1.6297497826377887,6.227228806923884,5.30007676930494,-13.24770148786101,-25.20666750781024,-17.632037637401822,-7.652397392921799,-3.5694680469340216,-1.883087500895165,-4.644358768041245,-7.355409123898184,-4.045114997951623,-1.9666652576334993,-5.778162363606903,-10.431906577253816,-12.753593158852773,-11.872748997780647,-8.91710754456933,-6.801152363989699,-4.892292840399348,-3.0174431045961256,-3.956247320349787,-7.242429119865422,-9.342082277677253,-7.395565925867033,-2.7949875549131065,-1.5941675666733115,-4.438831428668694,-5.067526099064396,-2.7093609813576833,-1.8230044747347254,-3.0545634353631845,-3.9011257243881383,-2.998444419112083,-1.9301818900456311,-2.6546614471444556,-3.1058320826200365,-0.7271900849752573,2.590897170419624,3.2075944220228827,-0.04921841087433165,-4.277058521435973,-6.161573095064624,-6.288266166122996,-6.1432871267347195,-6.987176334778168,-9.175162228669185,-8.093528858452594,-2.0255513555522775,4.9799133133078435,12.607422815150132,14.449954362775582,-1.034078305889528,-26.165288908143317,-45.94602224525373,-56.80213801308781,-60.27375958541491,-67.73483330804706,-80.36806051173818,-81.25828278600834,-81.78769452774108,-82.58740190433622,-22.064233057227305,153.82665584902287,452.9561979998743,712.1660647186688,520.7922645577836,-167.906388032459,-636.2206133701576,-433.0088040824374,-80.497698008736,-36.83412836788191,-70.35753321131081,-14.1395422446152,-0.0628233727028018,-15.398085367839409,12.16431995100887,27.12592562034772,9.193416747897047,-5.8874507639104845,-13.516173088663614,-11.576037827797705,-4.73124837850572,-7.644629764690986,-11.642922064329909,-11.10781630786866,-11.199258863976116,-3.503204377154419,10.804532449096008,19.152972095609904,25.98398894577625,37.94091609432776,48.347064879608865,51.96638973670432,51.39791824727959,49.37684999079271,40.917446567124074,22.818205993692942,6.0320279644499575,-4.669929243626381,-19.760754324599873,-37.29090947568366,-45.44475581549841,-45.55441077832039,-43.112275372879004,-41.24754670159485,-42.7494595329548,-39.80875918334945,-27.325315048046154,-16.715160248943683,-10.383367493633271,-0.063660215730998,7.3482181786559355,6.03263407740468,4.56764369842627,0.6770578287695876,-9.779659636648192,-11.94435905426507,-3.798444014177079,-4.562754423640641,-12.551321836126473,-11.363812387946725,-5.070406033498072,-2.531777278782462,-1.640169303805262,-3.9948692263516232,-8.946304574116336,-8.460158925891113,-5.0486852636302775,-4.96733868382211,-3.5914707890192634,-1.2465421126507756,-5.328881219039038,-11.035151838804623,-8.893085368550215,-2.46368998844164,-1.1801280016141344,-5.8678206256865835,-9.022032468141306,-7.4579002257611915,-4.848103845951565,-0.43534993831710267,4.37517672909377,-0.3066170948354383,-8.830138931667873,-4.108860057955198,7.010305141828334,9.11567021812253,5.081388602950113,-4.230010269192514,-19.309793831725553,-24.114177967150795,-13.561712300204283,-5.367224726111868,-6.410293056242905,-8.629955498098818,-9.850339370851419,-9.762914055209022,-4.008294454275675,3.7227804802965405,2.549636738652313,-5.261491361759026,-6.90200300714381,-2.449682859069976,1.7530001448828045,5.34997313217378,1.614911187332078,-9.598000562300063,-11.316099095658435,-2.8702253094983803,5.762715965414524,18.478997577948817,22.31789470875561,-0.4984652185321128,-29.157624443825007,-44.54513681404871,-52.87818023506683,-56.57431395191771,-63.54324594760294,-73.11363627774313,-72.66712697980303,-82.28719581955991,-90.8882881544468,-22.012160362891763,163.88578195984206,459.6214144080735,698.5805994937232,475.25834196142796,-215.7142182908673,-639.1344857342857,-408.19610098601606,-75.5812413941741,-44.81080787505447,-66.85076708901244,-7.986005357824823,-1.2759510724757348,-21.41474656490968,-0.3296398631320301,9.798823120924114,0.9424637117178207,6.65125498730772,7.054347610393711,-8.280002793314097,-16.65597180836734,-14.138578956803947,-10.40150591769707,-7.41386470635571,-4.247728316537428,1.3197416808396323,10.754640309740736,20.37657730486667,29.09137126201493,41.30728094414944,52.88967951264725,53.517852663884995,46.84670325953199,42.98027772432206,38.54142658534989,25.93305812049429,6.4878489616206245,-14.70011108351789,-32.58722817523628,-40.6427134487623,-35.20244958689223,-26.866454973518344,-34.53667107363097,-52.18470981886253,-51.297089964642495,-31.29060480105335,-18.03786362609658,-14.315567328714884,-7.075957165871181,-1.6715563731502456,-6.015282555431655,-9.69473952473335,-2.4064439831948263,6.894285911907842,4.137728925932789,-4.5408258392973835,-3.460574964472201,2.8910450265992313,3.21281651693719,3.387180064817443,5.716480829597444,1.396259702323981,-3.58063962522926,-1.2797509824584665,-3.358152728223862,-12.630329543049143,-15.734145771835603,-14.83444019482767,-16.946895084242318,-12.988139235834916,-2.911681366321327,-0.4733784768075946,-5.242475394632281,-8.689918037539368,-9.908810491508008,-6.951967141577533,-0.1510567777488907,2.838202961040551,2.1788371161446456,3.576462296071519,4.983789396844077,5.065689540286497,4.520925637052148,-2.0001603299690203,-12.801621880689645,-16.474579267506794,-12.54355939681353,-9.501659252635005,-8.226731538208819,-6.201625867145706,-5.447477585345279,-6.896386489944781,-5.7527948105045805,0.504457487686504,4.909065997059405,2.9371645541223277,