ECG,-10.061351461923135,-4.661348785942504,-9.137090947750423,-18.14305415635895,-18.90146224718251,-14.019388200203789,-13.189661155477502,-12.337154248536972,-9.380618783109437,-12.119937086325546,-16.266462888720774,-12.8767612402047,-7.628839385426904,-5.694389501507953,-4.130076064385971,-4.51443572090054,-7.257108479756205,-6.785071840980427,-4.245524599432219,-5.684713622217416,-10.900830268676653,-16.606980306653945,-20.39977153307082,-20.613172225007013,-18.571495074947062,-15.572924707054648,-11.33817272452492,-5.767580199279681,5.659937805691294,23.080171177236767,32.00059345691124,26.924849097790677,17.367326085371126,0.8762125690944025,-20.142764036599246,-24.429375608814865,-19.300167349843836,-35.90042163571971,-65.8026578334765,-74.86551943426085,-64.064607388874,-65.54714485536293,-91.08198175673826,-121.96695483888531,-128.87384126111738,-29.88228962139293,243.5803014993692,488.70546801925576,374.56213110431827,13.366173146134681,-158.29280750866184,-92.36941111017481,-61.92231719500775,-96.58661783994623,-81.38095205868737,-54.645148067985204,-59.811431823669025,-53.20160529016296,-30.917573710051627,-20.025579939412996,-15.196435978258354,-6.945930826513971,-1.050716624187583,-4.09218682026372,-10.183053786474407,-8.558470753693996,-6.453036028361108,-13.659119321958858,-19.510433113189514,-17.073241765041562,-13.560364255501026,-8.681254376747958,-0.5271822180430279,2.3505185285954857,-1.1000290700929676,0.8102393950027076,10.845144352008512,22.985295480811544,37.62708589915995,50.30304334216652,52.09722681911968,52.040174636333575,56.58701092955422,54.14574770195434,47.456611117389116,32.98900773067366,-17.640456866475052,-79.4162203316752,-90.23053396045894,-69.99391310014923,-69.52085135456579,-68.69896570899425,-50.81905648836536,-40.87828171447018,-32.99415081745271,-14.601122903841869,-5.14532181026653,-4.092475449315263,1.6233325028794212,0.826364440895162,-3.0012741945088663,3.5331610496394106,0.048253619891081456,-22.51980189703797,-33.067530567252746,-23.43519656038537,-16.578701447384507,-13.929040024161573,-8.288672613708314,-10.825099719923742,-20.83918351724936,-21.360657136775327,-14.059191179444689,-10.405209388295042,-8.362872776548414,-7.183875686704116,-10.701131427572559,-12.995903759485799,-10.251583531772994,-8.034200989375094,-7.413063964182857,-7.302401647803112,-9.501540030740397,-11.39035212600606,-10.022638036982933,-6.12867903529942,-1.0526406642255992,-0.6580126588351085,-6.447062658143857,-7.866353515532328,-5.169533250406769,-10.30135189035104,-16.946305398383487,-13.914247835908217,-11.39595963964977,-14.712907668411866,-11.530702820639549,-4.771465285313809,-8.461104417921483,-15.007235291747076,-12.007512401207814,-7.498277851036656,-8.936592769749302,-11.602092800281742,-15.063276488132995,-19.88072121506365,-20.746949445430896,-16.336999411993418,-6.645068506943327,8.542479121895674,21.090133312476873,27.897550917579306,35.20235751509609,37.00240915730374,26.84249779410478,14.064590596642354,-6.141434160585053,-46.04953388094519,-78.00289329817974,-72.11023017070868,-57.47596750601049,-62.385995516227496,-63.80894757184237,-62.169163376432294,-89.42645382772713,-128.58158342234935,-132.87672272528843,-36.742007694112004,223.88051549342995,479.158361304511,392.7517365492081,34.87979069628057,-155.5095576299993,-102.22900845559803,-75.97372294072807,-107.6492173373629,-83.79350665906156,-55.6713739721779,-60.79853595251313,-45.68268667848826,-24.3691371113673,-26.623272929923434,-24.51219510580057,-11.073865895077525,-4.714712380210091,-4.8775001742876185,-6.9757649626627725,-7.472200286941991,-3.0697017516093936,-1.5048732722502969,-7.142691662357448,-11.804457264368647,-10.110189569535951,-7.871715516032385,-13.579515232269431,-21.046773659898683,-14.97244577158496,-0.3668281431819813,7.265378798799417,14.34252370437936,31.13765097984876,46.20110727385917,50.01999959417712,52.5038772559785,58.87037254068818,56.15267191898796,38.39580370893209,18.383217953324248,-1.3039588371394562,-29.499052109742895,-52.57455929995146,-54.53463621751821,-52.039480855750156,-58.55438470977583,-61.31038656138366,-55.545996913746755,-47.22163600002661,-36.599641594887544,-28.255355061119836,-24.710013399880197,-18.957243129341975,-12.435910956770599,-9.115323563590884,-2.2204681406259716,7.590490444874881,9.615147341079403,3.858282145059384,1.2480078097296392,6.603404600863495,10.52906068775497,9.67022765140177,17.347577407184087,19.701751575549643,-17.01651592633514,-61.936870227417714,-57.79721158578632,-31.8157707127069,-32.75906282336207,-38.7370975437457,-28.04048644748007,-19.126988891121503,-14.595230483039288,-8.861274130103844,-10.356563608748793,-14.502118780909644,-12.337783778368106,-8.986351088564106,-6.460201186877807,-4.557942734235752,-6.393897744432518,-6.7399331639190265,-3.093644306350715,-3.3971282243498706,-6.425550081971462,-5.67453335818173,-6.432496274776462,-10.675439225449637,-8.764613838617638,-3.5122896906002588,-9.536513819830681,-20.3000109843746,-13.67923619925392,7.067643309040246,18.421014637876883,16.16175077251314,8.595595674571062,-7.253820910917643,-26.18246303576348,-31.240665533905478,-26.34354650877036,-26.88417099139192,-33.92524159169682,-43.853217450612725,-50.174844854123315,-52.35238811622668,-68.06339226872552,-97.70527254588545,-121.57440102793754,-91.98318656885104,103.5891972592185,414.8242425464027,473.24747296596223,144.22227205857268,-143.71046366246668,-123.59604642801182,-56.40173622199411,-90.14361639413754,-86.15084455071394,-45.52860584375882,-44.578566390049076,-37.37632144434188,-14.959278085571809,-15.224469598997828,-10.658735210967318,10.385933945986075,20.99283551158812,21.72523310211545,7.205093408793655,-30.302943438506702,-55.62279953099271,-46.851389461300705,-31.45333519828405,-29.03753651299024,-30.269836028296695,-26.080411432914822,-16.710171133182477,-5.527642943690525,4.2554719485180295,11.376725469408427,16.778716372684187,23.482769528898334,35.195008454589235,52.4644210012721,67.07443304975267,67.19657375092787,55.90103332105247,46.46865079976222,37.61883197665698,20.826178262825458,-1.817453167752042,-26.397551626179812,-47.859267040874684,-58.06602805345723,-61.821632884105966,-66.3084820034307,-63.68434298185432,-53.37926104841071,-45.74541717959614,-37.30909422224961,-22.593587035846745,-9.893007541517246,-4.865980898171813,-4.958309487040395,-4.590860473482632,1.8333950473759053,8.558928009153135,7.270734762107594,3.150542598170091,-2.218122039745957,-13.203230313972803,-19.179994073102677,-12.47872325643202,-6.163581756805446,-9.176935997041866,-16.74834231472566,-22.193926760579913,-19.145809063817417,-9.578108077393608,-3.7671120819693193,-4.490370691224285,-8.392279417486094,-11.816467780988358,-8.897669303308279,-1.4141363248275063,0.08383631168889849,-7.372232895616939,-15.188207161288378,-14.535962596913938,-8.781679764203512,-7.342245072365767,-6.55194506883829,-1.8052496885650626,-2.691529290640066,-8.015035282258712,-6.03293897738444,-4.3565464069281,-12.89494686272063,-21.39567781976068,-20.463253179276393,-13.976869226327608,-8.414188654822055,-3.227230334708299,3.596110822098691,1.4619017759673554,-9.605150745685236,-3.6089346569979863,18.163648921177955,22.60932036788011,7.125024960610382,-13.983658193486225,-38.63952385438819,-50.239602360257734,-40.400239973196776,-34.7600246887725,-45.20398048513699,-55.577818427059405,-58.116622389499824,-65.03195674267603,-88.21571325211517,-117.35820114459563,-130.49297071961453,-67.33545691205956,166.12747703873583,452.5035581117719,437.1607090325441,92.9944354864044,-148.48171448339244,-114.09422412150558,-63.01432455865018,-93.9584078529302,-87.68979885972297,-56.79822463037036,-56.35305731967003,-47.4282480083871,-26.8120720159528,-24.408977825908682,-22.095785640026243,-10.052696597505841,-5.803710622032254,-8.369063350695956,-9.988695086427626,-10.380078432181772,-7.172660938064158,-3.6136798490622564,-5.189391644811646,-7.970988039053043,-7.815933982396867,-5.383551034955177,-2.6223237197938287,-3.603328481714625,-5.736547665204716,0.011616012424298106,11.05317098021208,20.333216261637798,32.084107853470876,46.004692427869045,52.688377689761815,53.04821496059049,54.198431610563674,54.48569952408677,44.15236532550492,14.426817564066198,-23.956354583781806,-45.40858290388458,-47.87982038654975,-50.3952745526596,-55.438883306453775,-54.318449879747924,-45.447561487158616,-31.178079395924918,-20.635475958572467,-14.883570613358408,0.8766709094913665,11.978357042992116,-13.696429801839805,-49.07366267068469,-46.70224889597913,-24.96631451876717,-18.03325611396733,-15.698858440883225,-8.969098793295114,-9.303344009361073,-13.897989965112515,-11.029062895959814,-3.5354361252635584,-0.7712736414903603,-1.9466713696544993,-1.7686865829582743,-4.751875534998959,-12.801735875455744,-15.041368001059517,-12.4734862311333,-15.793736930751166,-17.50769760196033,-12.991121762824147,-14.813617299913922,-18.145145523006253,-11.656784967279247,-8.657458112401411,-13.030079397747649,-9.89344375760384,-7.267780093522941,-14.974466991085485,-14.63491304117403,-4.073719644082917,-4.627638679979292,-12.317432126009109,-10.060138014349064,-3.7641776093015267,-4.5138492663126755,-9.413047230868827,-11.488206366330136,-9.347620410336987,-9.040065105425057,-15.411098494894944,-21.816110337507407,-19.020359000302765,-10.533906843464262,-4.117451435160811,5.707938281428785,20.344615260393493,21.26203164526656,6.391788906058517,-2.57844278738202,-5.880099052886649,-16.802602509023643,-31.259552135172775,-44.272176274052455,-51.91415994407144,-52.11243666234922,-56.30819826380493,-63.25301061613801,-66.62987649700537,-83.27255325289781,-116.37111356824795,-124.87827306693644,-11.16898764144851,275.83265705819053,495.78625107300553,331.4779865132873,-31.32181352439487,-155.67027396801873,-73.99497575857285,-56.72343327545791,-79.79908175874037,-55.57335646152865,-45.68577123680333,-51.36926020929218,-26.33992742666915,-5.82591648254045,-21.42301941793106,-49.60696405399113,-60.84245317543621,-46.109614959413605,-27.20600190991894,-23.222901949587538,-21.908110197143053,-15.829873895333542,-11.456087097247824,-8.256966105648978,-8.66453768537037,-15.699742613409356,-20.78896877427044,-17.081860260472997,-6.469550705930111,4.724853565378609,10.545369295317128,15.731012312500804,27.177791071700174,39.59808391973132,49.243668559243055,59.21346815191779,66.20747308115448,66.28376997774245,57.85263858396485,36.36358519903386,9.227939937284386,-11.609261963418051,-35.21872040550162,-65.21827121085246,-80.11956672183747,-73.76596227498766,-62.17120662099153,-50.58098910718304,-38.810313693666046,-32.230804046557964,-29.92281242852593,-25.625872582370327,-16.118226763208515,-5.23673971272623,-0.4363635765823588,-0.39366550543208234,-3.23859518069618,-13.916667992329124,-21.855320102991108,-14.345438623373138,-9.42560504812337,-18.68400689930386,-19.301275728119812,-5.250143041012372,0.7337630712794514,-5.322966691755429,-10.932906620758185,-13.530052985979456,-11.375473076300462,-3.1171743798343634,3.3379898463414843,3.4798862603950376,-1.1946219418681885,-9.500355574098386,-15.472750062473402,-16.647188203942264,-17.550235609551113,-15.495493061221495,-11.397471188514011,-12.862493920897435,-10.86257419093246,1.2685026144962563,10.852381265442991,14.426342595783243,5.513961716936812,-29.440915071412253,-58.729388510562565,-46.64434757147322,-27.01968189714234,-29.72306905975229,-25.886322435713968,-4.49341292789418,10.887225490393874,15.51344624964376,14.630875138595854,2.7490827092925088,-16.7245119434735,-28.068219317599993,-28.488252853164543,-30.094642968860175,-34.3787803833597,-39.249359167226245,-52.155172985077755,-63.61387235549029,-63.275154220749535,-73.39632232765777,-108.1585943261763,-133.93068129039074,-46.95854187476013,234.64614043021362,494.75886124072133,373.2810116324463,-0.6245806178924127,-158.75058710755792,-84.1667076250751,-68.23791118747934,-99.28099763590667,-66.21065898377292,-42.2818425412005,-48.505475693077074,-31.997114378568767,-25.203704437710172,-42.18491505182089,-38.73803042163665,-19.667271746900866,-11.911398804846865,-14.04088091178053,-19.609648516793825,-18.99337723408534,-8.937862832420478,-3.996482590408835,-9.055107435765908,-15.37328177695763,-17.32108139314724,-10.905940190149373,-0.31545717396276984,4.808830899060591,7.859189168943143,13.58830099431983,17.800448497947798,25.207618180782937,41.431644899432584,55.390617132544435,59.17645899995466,58.80535653676546,54.87316653779859,41.9757506178096,22.84830672540736,2.1765785989329416,-22.821357598125925,-50.323974392387186,-65.2824951580223,-60.500031634966,-50.638751301258566,-46.34970306403363,-39.236632490518694,-28.484151008961025,-24.930346178918246,-18.86342190065629,4.103874454277847,16.51585724211056,-11.276572375636349,-45.1424105948002,-41.76538117958288,-20.322950627015334,-11.318638697447586,-9.507935444321653,-8.704163778921803,-9.941085845921219,-9.020125127081243,-9.13887939581116,-10.21575564821012,-6.2169443668497735,-8.19322467157884,-19.90018376592827,-21.670375513078127,-14.599525313934269,-16.02178327055264,-18.26966923862936,-13.214618465770776,-11.696983375303631,-11.465038043124256,-3.3579269502796123,2.809225671732225,0.48951388966210274,-1.365184887245082,-2.8396428387537114,-10.848324912889058,-20.4144427405073,-24.05563542278339,-21.751941624143264,-14.714613688816964,-5.558398393395198,-0.6128470334817493,-4.364588580231036,-12.006955974286338,-11.962401599648278,-6.055299031351993,-9.65209209341521,-18.6210813713709,-15.5197677378457,-7.89102604933456,-12.470854170196318,-23.656452350864416,-28.681581363265614,-24.300025521288333,-16.396114468443262,-14.352390024256984,-12.90112219824167,0.10899350003673902,15.123542474734487,18.255561811524462,15.815015085783198,10.415022096648407,-6.068603326116577,-24.166192474344562,-28.54939686721221,-28.437866181181302,-34.995095880720115,-40.92535655457096,-47.06741128761306,-58.11233517263109,-62.76333226538367,-65.54163566075589,-87.74017785699112,-120.72389505200289,-106.49208062684866,55.65819522883211,360.3067270620017,522.8713631375472,299.27700912633856,-62.33402047043897,-178.0795417243646,-108.9442557397479,-95.01936457133844,-120.84537986159201,-103.4134509826083,-78.62855971082492,-64.62744951960063,-44.75128036319359,-33.22348436068467,-29.418306311512087,-18.94893932225068,-11.073640646972926,-9.090085380504007,-5.639445006645168,-4.434987861445627,-5.244275248324108,-4.036681762702511,-4.714649429922133,-5.621673139762294,-2.961403614170118,-2.1715724321656538,-5.98851473750315,-12.763308511891308,-19.21834679637507,-15.085502727451285,0.8899202185321491,16.174526257416645,27.463770540986296,36.841328486942686,42.63785082152635,50.93022721846225,60.535248505482706,56.511694660539945,41.575672065388986,25.495824086266524,-1.031011257571592,-34.4884455123282,-51.93628974071716,-54.09012934702495,-56.85499519155924,-58.55826970501714,-53.55183459388384,-44.70853636865684,-34.27356335987068,-25.071872678528784,-20.606452092593347,-19.41057296510413,-17.06404995115521,-10.625172106263168,-3.0192790242935637,0.14131253534383248,-1.0274895649754257,-5.743722622702556,-12.340791722313167,-10.522464224753605,-0.8858061859948521,-1.6778931188245991,-12.209593450644682,-12.780428983174609,-6.342537521034579,-8.67055256622092,-11.765636492272012,-3.9497181252671503,1.35995687052133,-3.3577940539682345,-0.42074570286617075,10.45056967947815,9.704591699142448,4.096929493641671,0.5638730281575697,-21.63698381709637,-48.92495693038083,-42.04631949837515,-20.907149975665696,-22.67484521412225,-29.372335592645392,-23.829215142281633,-20.713900281470757,-18.91819976809774,-11.568331975610384,-10.187226747423132,-15.156167092076934,-14.984466682554576,-12.014984296507578,-10.019076884836434,-5.689781540969033,-5.948361457645422,-17.54636005351054,-26.303436897332173,-19.270282254307293,-7.950618837280469,-6.519145782771815,-12.937599043186225,-19.154926801091676,-17.721235406223133,-8.053100851811866,-1.9801495026701232,-4.942364745357882,-9.268949771934238,-15.402280529731932,-24.569188200767428,-23.71997484998642,-12.46590129572337,-6.795385940387465,-2.580495104206502,11.254857604605096,20.080456343163736,11.709884538811313,-2.2208801884575777,-13.070778631949274,-21.426818153112286,-26.82984667891679,-33.20088105431391,-43.877082997902164,-53.588225860423876,-55.85395188126631,-55.972354619795354,-69.5090153826549,-93.88868847470354,-116.0412042800743,-116.9367991211513,9.8188743440532,321.20223411409705,521.3547981548854,298.1666478785417,-72.1334207015998,-152.83160138930774,-61.484525516207874,-72.89704077960673,-106.65004300968369,-71.30717702812333,-56.87605207781726,-66.78796558843214,-48.25862654407687,-34.068854358248196,-36.126174937229806,-25.698071731137276,-12.690570407039672,-5.58111061738785,2.6880621651522816,0.039511814923152144,-7.945225956772834,-0.8402832067673724,8.484711011308214,9.522422093843542,10.12860710028142,-7.149130163125076,-42.238994964900485,-49.45835244751093,-25.01983902121919,-6.731148319356308,5.260351547204084,17.137488584695173,17.156012206507363,23.0901890547022,46.94683700617735,60.07852577884756,56.801576479983794,57.8859565987335,56.225038165887796,39.34277636494189,16.06057206314464,-9.0053220336634,-35.81309045021216,-56.945193960687234,-69.99355703859348,-74.99214258605642,-66.84822080959081,-51.955709486625636,-46.41790818404845,-47.91027685964623,-40.86416160176043,-27.301462791501933,-20.315599065024383,-18.187334618317205,-13.347351714717057,-9.767029940705115,-10.99852092203001,-9.360024620537974,0.4005290438390574,9.253931961267535,5.98969573581056,-3.089933470765242,-3.2868647529762214,2.447784900572353,3.401719758451476,3.0871179440130287,2.2593153185409562,-7.440856143468775,-17.457349474057946,-14.639160995746975,-9.365992022876501,-11.581787836740101,-12.398090513882913,-10.069164819334745,-12.547918653455383,-16.57361976039786,-17.002885316271843,-17.571324234107873,-17.73254981118693,-14.407047370952053,-12.308823947019391,-12.549818639807793,-9.860985639257532,-6.984171864230763,-9.673963286755932,-15.103203743179785,-16.647216774219423,-10.508357654983154,-1.92304984551064,-1.5852806280001417,-7.031620631277015,-7.145216197663105,-2.085066130712244,2.7742491979336474,5.980262584826251,7.280971208141564,6.633337130664881,-1.3865426524789441,-13.677793706002106,-4.9627399631596525,23.07141204279562,24.651016255117128,-6.322562910315099,-22.884196099620205,-17.000268085406717,-20.151032724488438,-32.03465678748394,-37.474665966793395,-42.927241681525814,-47.99741160652867,-46.14821068916404,-49.18916683587628,-56.637953573797496,-57.87373192644742,-72.68153840686288,-110.38348398444947,-137.45215306415162,-91.40374345080103,120.8109334159486,434.51181232470435,497.9270929303792,170.09450964881745,-139.4712415322014,-135.17998975748486,-57.81207349140752,-89.99146161439947,-100.16433999106977,-60.27517613485447,-55.779164336629506,-54.63328145599125,-28.320944398751223,-18.71674103193351,-19.968601626976167,-8.880405105191098,-0.8427901021035815,-2.0836886817164633,-3.9472408035236803,-5.4023943578802385,-7.890018688951022,-14.650273052740182,-22.09671381376777,-21.21598896011724,-17.48779828708441,-17.12152100012746,-13.897041961251833,-9.13762344665825,-6.075093258973184,2.5666759926302314,15.45635960187774,25.399071133311637,36.342166462142735,50.935141958013226,64.23738116422851,71.00278563820262,67.4821415226829,59.207630713125326,50.63943423211053,29.55617005636676,-5.233632728813806,-32.39300468630682,-43.946819724379324,-50.228250032578444,-57.81836455682982,-65.35157205413523,-64.15123836742427,-50.94903963627295,-35.771099663032004,-22.177848770076324,-7.957382042943209,3.00727087704319,8.810791683735214,0.4662715355723748,-28.309863696769057,-48.62648771509478,-37.869734840095155,-19.232351588387832,-11.343022729269418,-9.433331233192611,-10.218800900652191,-6.03690454792542,0.22557604179972657,-6.131034645573916,-12.226112124931568,-7.598004298002515,-12.308875441839461,-20.90269427925641,-13.013195604499199,-6.0871490357367115,-12.500169449282428,-15.74124373439384,-13.600487281546691,-12.52344150069072,-9.786406981397572,-7.54347064805977,-6.757748659899807,-5.033771693216767,-5.444210331957166,-5.240809362776243,-2.2307723295112396,-4.6641251489604905,-9.048355212173576,-6.376177846397795,-7.2419991784075854,-16.881703713467413,-19.278071057530035,-12.361001843220038,-11.958495504233838,-16.946277728244546,-13.451578823788939,-4.65498768805471,-3.431711201837775,-8.39869930637278,-11.500421296304374,-12.781661748328109,-11.628909943468408,-5.409052678871973,-1.3571890924259638,-5.702459587707235,-10.079058403552027,-7.675335751883255,-4.886104726132743,-6.771879133081438,-8.352641695797093,-5.8032162345945615,-4.4477884504558745,-6.943077041053314,-3.900344672380422,8.248872815763557,15.742084527670592,11.292139160348121,5.910129357275341,3.734365992239045,-4.312785864819105,-14.151726890398486,-15.303758297057042,-20.334774125889304,-36.245239317488085,-39.743462828469504,-31.235483788115786,-35.11023862612987,-40.06191527751202,-45.352355000258754,-90.17836881251283,-158.00581384717455,-161.39014538913347,-9.783388071646414,292.46424395280224,493.6621984659575,315.6082102739033,-47.38532728364967,-172.29195919912524,-84.28555582936363,-62.29063914852169,-98.9718890809962,-82.37971491904553,-58.55059704330486,-55.593197010033535,-36.338811190164385,-16.51650507995047,-15.400525573250874,-13.16709798315633,-5.316802237186552,-0.568888999104761,2.546543192863071,4.066077757665605,0.9731862520542727,-6.993572433886797,-17.337376779989633,-23.46028279911046,-21.830650667647497,-19.72037425172639,-22.308465968508663,-21.227942096613248,-11.814633440456067,-1.8936439020147056,7.344675128058,19.073796656973677,26.815181622661925,30.859034754587334,40.67597313335781,52.753357074886445,59.078433390200075,60.25152004722776,53.23550063927671,34.69314304657886,11.034949281205954,-10.92737038812609,-27.26501435572917,-37.16426861151,-47.18667283188117,-57.644691663235726,-57.21058364550943,-45.19711168906862,-36.50669611918589,-39.75347969201259,-45.35197444775306,-38.08357895709483,-20.654753392742577,-10.819827105622153,-12.05676599722532,-13.817134702495558,-13.325364233135428,-12.441569990967906,-10.793581584033792,-8.172942046181934,-4.002338865897087,-3.5558042872993703,-9.772476529564766,-10.400935042139018,-3.397402266693991,-1.1534316267286684,0.7904083387225036,5.102243268378865,-0.4468408024828534,-6.269400694788972,1.0388368648824837,8.408384396101889,9.055194219551613,1.401170452952364,-23.7136166166487,-45.86415226951431,-39.60779492756776,-24.85275828620636,-21.83992654536329,-20.34898904712847,-17.149424640196465,-17.926647081723907,-18.75731360940052,-12.59588711557572,0.20380620051025033,4.946273602384487,-6.007500489249093,-13.331504599283601,-8.44073470622892,-7.757397936265672,-11.960104091562187,-10.289044591517754,-7.500833548060857,-8.891401001402656,-10.401216351648907,-6.821988471532148,0.7667665183818286,-1.018161461228651,-14.522558250415376,-18.41466587269446,-8.949814682520362,-6.225571057619852,-12.039582474105622,-15.042257989911938,-15.124442036433784,-14.335220663702504,-11.314360641239976,-2.0566200661443865,15.099545444639375,26.243276025734005,22.774754935592803,17.15605733488224,9.727227094993413,-5.956825691775668,-16.582295931590714,-22.076531827394195,-34.82807840311634,-44.99174345181497,-51.96142493151014,-65.54518600886193,-73.13984802958521,-79.60096343946547,-104.34049960107244,-133.39090594629135,-118.58240492738335,47.29734145632615,370.31560581028873,516.4649284759022,236.48676565612516,-111.82767295186115,-143.10665448333464,-55.59315332514574,-80.19956536550407,-93.3942693370194,-52.55528465198105,-53.88285428488969,-56.50367905207083,-23.914830813465784,-11.620707953428436,-7.540143191837878,8.914854416035501,4.13714373363649,-1.5840975019241128,10.537032926908184,-9.200207885131714,-49.01706326150578,-45.5258520236736,-23.297402922930473,-27.41753537034876,-29.90550235139735,-17.67190020149981,-19.601380527985985,-26.133164481379787,-11.965885269963163,5.311871368404116,8.795406505996848,16.25281713798904,33.95243796057391,45.32837906703374,54.017899350180016,71.63983847114838,80.40829257032084,68.73159032369534,54.877359559505074,38.690365750784416,4.828922809829814,-31.273766098521982,-50.98675230017683,-61.5565578843018,-67.47983126486724,-67.69003648781828,-66.08079344826149,-58.83742943816138,-45.54790338069645,-35.61018250826911,-26.804397951229067,-16.035422457811585,-11.651308820573455,-9.596242762015471,-1.3273916000545078,1.3171757689339323,-8.789267094897568,-16.767347803008295,-15.976794542907001,-15.425963318014336,-15.276733948321372,-10.2685925474131,-6.299757661780902,-7.853184747624027,-8.346376318276931,-7.309902329732644,-11.545314401129247,-16.500565940003355,-12.794614415470317,-5.174909993645137,-4.7222583530805835,-10.970940102836394,-15.009194913107244,-13.618238750110006,-9.878622330391007,-6.572677396988755,-8.02365920013677,-14.789537287291402,-15.461352454376351,-5.829618209588519,-0.4520396003336842,-4.975088452520033,-9.217560404040334,-10.492318675628512,-10.303011015589068,-7.181550233481822,-4.766674143846618,-1.8759601926897993,4.526351860384112,3.504352949540113,-4.986254083798807,-4.366458789544959,2.2251874410347874,5.29170227939181,5.879533489512923,-10.507647358472667,-39.75711820680226,-35.82251002348151,0.9508121118302562,15.691850468609404,2.7511100069080676,-8.740487642839824,-20.946422768024725,-31.676604443279437,-29.5455743793842,-30.417482778424713,-40.14073243184226,-46.71482404116184,-56.07485018178518,-63.93524367015124,-61.78640825122678,-75.30316347069613,-112.87951593192156,-132.876202017702,-50.29977824354931,215.42799206493967,502.2468159863214,443.3559313676201,67.60595043231842,-153.6888326634849,-93.30169317690496,-56.94456422946736,-115.23403603533859,-113.07369898032962,-74.61680233540476,-72.62909418016174,-63.38242914616954,-36.485359460400815,-26.778190457709982,-24.864868539103647,-17.786144984131752,-12.853985957819791,-10.063596065311927,-7.107262288839376,-4.353022020807078,-4.014946785185099,-8.274490005367106,-10.770655195861387,-8.575503600561309,-7.200321675978925,-6.053599650306515,-6.466208999427598,-11.727694589856451,-10.35675724110095,2.7544394589135184,14.623887100139976,24.37961375626523,37.24981689384581,43.58648029073608,43.26706062895448,50.134063290922,61.51848878230378,61.126809546692535,40.8134447349715,7.089643760301624,-22.594777270388178,-37.62872453780756,-43.64604457027932,-48.23640996534313,-51.82965805978389,-48.54858119820363,-35.241699315346885,-21.60714570600296,-11.659263613528925,-0.6537581939163815,-7.403027862454039,-43.64458762384412,-66.79481544534687,-47.523763221595814,-23.650726277801994,-22.946818844112173,-23.396577297876803,-14.969538316123405,-13.041050639890862,-15.846137395428041,-10.012094246802043,-1.9050663177869716,-4.852293188583307,-11.782779408612736,-10.862442999489467,-7.093286286235582,-3.8639942855469194,2.244976262889338,2.709164627054051,-4.388146049717754,-4.926408586731412,-5.14097116988092,-19.31101209435108,-30.75999293012499,-26.727924423785797,-23.560539435181386,-24.274297377018208,-17.102793803272668,-9.264012736852884,-10.081021168516614,-12.744663531735874,-13.124741735137377,-12.891730427402887,-9.273092415206357,-3.386806853895422,-3.9390734704664396,-11.31205668981874,-14.117238830686965,-9.192617401591235,-6.125186233120402,-8.09985869374811,-10.191410476377339,-12.283713695665924,-15.577717651991197,-16.54452091974878,-12.077380750835424,-5.728686805940605,-6.093752082177595,-9.43231782728271,1.3181803687926301,21.351013133014124,26.82849102537341,18.952009769996348,9.175861167284374,-9.761787518547909,-30.870210545322315,-34.62628628189583,-30.870113437997063,-35.34352567850074,-44.227363059679774,-53.42134171583719,-56.23467571778561,-56.84720111578109,-79.42669198911614,-115.99561039216769,-130.1833736663067,-71.15498544103517,145.67433444908661,437.86563997702626,465.71205006823595,141.89795889960527,-131.64261611084245,-118.09826978368324,-48.13122681524996,-69.37263185766486,-70.06560964508881,-39.52579828309279,-58.212176554364525,-87.82997235349923,-70.99723644047762,-39.504465788053224,-26.119631405337348,-19.03252248183589,-9.051719402779803,-4.677040238266294,-7.2851845447436965,-8.29141198805251,-10.897611754906904,-21.5078073295454,-28.338176159057817,-23.93881038262329,-18.854230273476535,-14.55617238408463,-7.344964715210924,-6.608966042466452,-12.449991531745436,-9.713785180048587,4.483215713554966,20.405105029002314,32.438369365472084,40.7585215071441,46.42712328615563,47.24162393064776,44.349331266797094,44.22884438139986,39.740049751945335,17.767780532792827,-11.74345882588921,-32.208580610350786,-44.43966469617422,-50.88400315872491,-50.680727176454454,-48.41418739914684,-45.23742160507152,-38.98208885800493,-31.082314604297586,-22.506389432546563,-17.385025796406108,-20.821607175327507,-26.372450085152938,-25.741128759133822,-19.902859679118645,-11.72397528724019,-5.884702190464672,-5.921743702200011,-6.286092527339033,-4.5601456864748044,-6.096010162879537,-10.4427412089874,-13.504815781914505,-13.865266720887668,-12.520173093928463,-14.362975481307728,-16.8678730532394,-11.558713178756431,-6.314929079271401,-10.08168118395351,-12.15951217355759,-8.809206183456485,-8.056657775139659,-6.307861911805105,-0.657653516837037,2.9850220063303823,4.543536126526497,5.93572949349052,9.33854385119047,13.07021108565994,-0.45200655708863025,-30.92837940512525,-44.522166236814044,-35.13351082090722,-29.505181848371322,-27.670035506633376,-20.62668926468232,-21.095170456581045,-26.39763013867885,-21.19841559401408,-14.121442490875673,-14.448429549549815,-13.959311205177436,-12.476691481927723,-14.948684215635446,-16.185541902133266,-15.046391046153428,-16.70413393682268,-16.261801953082987,-4.932347092563099,12.205201913394832,22.256147938586,19.941272034760264,5.647058877409592,-14.338332781855176,-26.352415638415028,-30.32478581366764,-36.118392780644584,-38.64445279141692,-40.29088936570392,-51.15473225781791,-55.24752350052086,-52.941109764585384,-72.90020077281301,-109.34964609539777,-126.52779356601897,-33.099443798807066,253.6476125141742,500.33895032126566,343.0519132237175,-39.24249797682563,-169.45632817838404,-83.48882342880174,-74.99446742030904,-102.48284401881327,-69.06551294515035,-55.570562856609506,-63.39457369193353,-41.755413721532456,-28.198064727470882,-30.3595182805409,-18.794073126530577,-11.320312676079496,-14.782849175903827,-11.556025365369532,-8.327776213494959,-9.333154501076116,-6.618081580049504,-5.973271798829867,-10.198084051594146,-10.29798506976306,-5.886256350260377,-2.764426519775377,-1.0593895951176238,2.253134202752034,11.285472202978502,24.91640818417627,33.32361113149766,40.266021302911334,60.03789516808237,72.52153401175985,48.848937223735504,19.90580305017513,24.471098436665333,33.21210818893577,12.656338415355401,-16.974301431326506,-36.01477440509151,-50.3905402236567,-61.71821395848044,-68.33312104419055,-71.5928982117772,-68.51951316585554,-59.5498066313789,-49.95131550556306,-39.72938798242859,-27.951626952205018,-18.252153027591696,-13.68988481879386,-13.264951592538367,-11.518925474156397,-4.844591715448285,0.22730758760577885,-1.0131274605250624,-0.12598623674101717,5.227166436651235,5.7329454111364235,4.302135753210365,5.960241650787236,-2.809683954070607,-21.906398123637754,-26.57838662498321,-15.627463047824357,-11.972181975530056,-16.77633917509038,-16.958800480544344,-14.119102436906584,-14.174447636989338,-14.186296881824251,-9.33382542344081,-2.550495326067203,-3.0518005951878564,-10.594835758061937,-14.117110767255909,-10.612792963128605,-6.023188497671992,-4.8316252981400645,-9.290920726367847,-14.589777587454947,-12.989126919852717,-8.246086957135713,-7.402374924048214,-9.544652920966822,-13.062812783274666,-16.031569946775072,-15.248580003856228,-11.010573939053184,-1.3304663365569471,14.297084014477194,24.52950014794731,22.799360863476103,16.00361633792173,4.521497144268437,-12.108096282113351,-20.88356413957927,-21.853477860354303,-29.64698600839817,-35.75971285412448,-31.524393663269514,-38.083472383610385,-57.26860459125116,-68.24862084171409,-80.0110962656909,-106.56104909389964,-126.34483260427866,-60.25069157482484,186.12345028881538,471.4942018510818,430.28786407812265,62.690931356857135,-173.69269197815498,-122.89691175996069,-69.63378650762327,-106.01982299120681,-99.91472919749893,-65.41465417556932,-59.06889559607046,-44.34867406659957,-22.31325937625447,-19.84454764552836,-17.54812312161622,-6.935690350697234,-1.061795266656592,-1.9036117870316822,-9.316023147546865,-16.54408093790107,-15.852206920721073,-15.965867000981993,-18.32388497511888,-12.792884362597748,-6.72613195328549,-10.610436746841579,-14.91127812297849,-10.651293734832304,-1.3928320029164802,10.180523590677321,21.93374892850609,29.479205734449167,35.673576951786146,46.275310228906406,56.82690497493071,59.360800543348,54.829523182327165,48.18911403903921,37.67638373167263,16.55939284846566,-13.011104802464477,-36.42591607664596,-45.77456800047135,-49.26478049248374,-53.125398426186365,-52.26038874359298,-43.12069548844975,-32.259691388844324,-29.28549881270258,-32.08203050390794,-27.24864212621302,-13.443942934865852,-4.972235945901819,-5.759324394215401,-7.0692132481997945,-7.335820010873583,-7.675171979600201,-2.681046063816858,3.9336516906054975,-2.1131332664995455,-17.544242252310465,-21.962116712328687,-13.419620099967542,-8.038445393840629,-7.861175565411738,-4.4392828759242775,0.7698219800635968,3.2405231467255184,4.566236908572025,9.377021689044316,15.971891150434192,6.543627831986893,-25.2905115822806,-45.16877051777172,-30.35932302527984,-12.83924959922387,-15.802943692813674,-19.63660273951895,-16.997942015204437,-17.33335869137305,-13.679002580882369,-7.7084990610713255,-14.928936661592104,-25.22176465613068,-21.02269729799685,-13.258935390193784,-13.426823897513799,-12.843293256052444,-8.096316647210568,-7.499523745002119,-12.927463014233858,-17.07291427480608,-15.116937939065966,-12.572414981360879,-15.191025569622663,-13.708823694701497,2.0417554148156665,20.59472476894795,25.485347059851414,19.493889935396723,9.702559299926826,-6.033090259955589,-21.971081644093605,-27.185650910146826,-26.470553629214347,-29.252662049057687,-37.647906746226276,-51.378356019212674,-58.86496735147938,-56.29396826128128,-68.77794648645991,-100.85611564583206,-121.70915472009605,-83.63779500739773,100.53897522238239,392.8554560469819,477.90198710789434,192.0649234957679,-116.65510348808382,-141.44545459300022,-63.67276431752454,-77.55808685586145,-90.04943161129137,-55.416760297943796,-49.71174664579253,-61.825571575351745,-47.82881951128397,-28.122817672997126,-18.60097558707777,-13.010304311870012,-12.773045016848931,-12.976433951337606,-9.329603992739301,-8.086133953830782,-8.170742531602375,-7.422314886265925,-10.610495406292994,-12.978697898374701,-7.910955776509423,-2.4086641314999877,-0.8453546394041749,2.5839481534172846,11.145455313463408,23.22474253828576,32.90961281521994,36.91541925988822,42.53555266389154,45.851378095542714,30.90479519997878,12.299839188352605,18.519023958395625,34.61289303360495,28.732424441503873,4.610669900683819,-18.346942842782408,-34.06946028526528,-43.586376631650666,-49.47462772119911,-53.35689828769547,-53.15371150328584,-47.88540688892228,-39.47401652710683,-30.223146972644894,-21.522092974215084,-14.293250146252234,-10.356614850147615,-8.764591393061568,-6.694060957233717,-6.686148086346044,-9.396666286258014,-9.743633560359473,-9.15829608281702,-8.950035018688489,-3.86082286917377,0.5274959849957703,-2.626472711293939,-4.548387016117214,-5.6670905948183155,-14.313596576459535,-17.560324920448778,-8.262760855862464,-4.656280693857035,-10.071876445151211,-11.264960675676615,-8.750569464309798,-5.6534021147544955,-1.8222589774807165,-0.4529605253174509,3.048819101359424,5.444245702836032,-8.563917225532204,-24.62244957939268,-20.114809416915946,-14.148732634705304,-21.244327036314235,-21.19988988531765,-13.788263719515378,-14.01580891636696,-11.381045055965966,-4.223069303976462,-11.722946501705096,-24.59537030259893,-18.833044738726283,-4.9628856829439165,-4.428028541213596,-12.382878689633468,-15.58607263173327,-11.731218904047964,-5.756789438240709,-6.237467072610322,-13.35332760898022,-13.159969430714845,1.4498427825471278,21.380901770345474,35.71660656163046,37.59136938282949,25.799991110785342,5.638828480787602,-22.39774988958393,-56.53466677062242,-73.78825962795166,-60.790396215805224,-51.75684991039492,-69.16668947258896,-77.74052272383324,-68.37347934080057,-80.03014783847233,-111.84997830029805,-127.28590517329675,-51.40249604268145,206.34732572895723,473.0873649138114,380.0511618933951,10.226828096597337,-162.31993555126905,-83.94820921420924,-54.77893927694689,-91.03887754679408,-73.30851404683946,-53.56477374112494,-55.5985034134213,-39.2906453739562,-31.065596539163625,-33.3444961299484,-18.974005244329653,-12.863476844269911,-19.768198657150887,-13.13159926819537,-5.701280928851208,-9.355706685833978,-7.5380174759536445,-0.08231489751049992,0.1632015701969447,-6.687133578434928,-11.61194216472198,-11.793407999847581,-15.343833493416506,-19.340890763356562,-10.286213977890794,1.8863220471940902,3.022133343794894,10.204669396076337,35.15631569383193,55.90715228679512,55.91712053910365,48.28117601764382,48.91748965961635,52.15992034259219,44.71938341537312,26.110668548396298,-1.3397127717300208,-34.35773978559382,-55.39535139378018,-59.14233209594316,-65.37410759658391,-72.94994243247096,-62.93169970405561,-47.223063819344276,-43.711796797299506,-39.33878860818497,-24.578957762393003,-13.075630080027615,-11.868590891409102,-11.69047670429956,-7.264609528704494,-5.063748536702917,-5.67433017133925,-0.836791014425998,4.322163288348904,2.1327830408167863,2.51588312343587,7.459207072628374,9.560337224687649,11.934957215575501,0.7339682611759173,-36.28348834909103,-59.027695554885064,-42.20579787286278,-24.44173645704456,-23.373353795838362,-20.103412877380443,-18.285844092149333,-19.23327448313834,-10.048017139021667,-0.3173066473445445,0.7940501499954031,-1.7098924726508322,-11.075392194208298,-19.633829531185114,-15.126214611267766,-11.94119817748139,-17.048152085531235,-17.67814832731151,-18.471520907545525,-22.3910363210997,-16.834095530907717,-10.731233852837153,-16.433500871786183,-15.757089033092317,2.435491200285469,18.650172488671846,17.045270736387334,4.8522904633397665,-5.827655392517514,-16.49028824136857,-30.14480337220878,-36.951273921174106,-33.95057054713551,-32.487250427141056,-38.90196964717253,-50.71912691928286,-56.857986108319814,-54.201941793056335,-65.95590945689717,-99.24047157042185,-128.74031691089272,-104.48940439289925,78.31323735696577,389.6944092057586,485.1701074791837,184.99411204487893,-129.90616812848629,-142.85905097519822,-64.91263634362147,-85.9649512133035,-95.49437923887817,-62.05483994614552,-59.602680276343264,-60.906812649690494,-39.805606878506424,-28.300219168859602,-22.15215016971473,-10.88667476078642,-8.622850048745834,-10.429337453206525,-7.8574721157915235,-5.763502175580776,-2.5630191392788575,0.2523196186637868,-1.4831359957238082,-1.3960623082711452,0.37970649788692956,1.42648717022705,9.999740391513587,14.328772301443134,-6.565339013140246,-28.8346085234796,-18.837083874228757,6.456541561967512,20.592675511776616,29.53785027881053,40.35876891589426,48.087592420110695,52.2063074211268,51.96416851028721,42.3473248078058,21.679616669027787,-6.402325304468102,-32.270512811160614,-47.69040969774451,-56.331319533514396,-61.47195965181014,-56.99288492144069,-46.622862406616036,-41.50261678042632,-34.8216188104533,-20.950950142834152,-18.019064685635513,-28.236993547695146,-26.259707597323512,-12.741420628724658,-9.779848082189943,-11.035109332783698,-4.86136861750424,-4.313410708449439,-9.932553552673184,-5.462321787225829,2.5341944787217834,1.2324045568002298,0.3874817531954946,4.712461459864137,1.2768145038311438,-11.166356043551229,-18.774049749630997,-16.700649107337117,-14.84254698645287,-19.33442698927551,-20.208654083303024,-12.11854136726176,-8.394108736309594,-13.059462006549648,-14.006347482537326,-10.785703044667567,-9.59917214824926,-9.04352950407607,-9.859765378980995,-11.04246435212022,-9.127500135062967,-9.084251523902768,-9.671981681019645,-2.9827411920587092,3.2778294606629643,0.6603962183524885,-4.448593203378117,-7.585758954645621,-8.37839198754342,-8.28278516843989,-13.676669951786057,-20.401434101898445,-16.885820608742577,-6.5016822704542925,1.019826803095647,7.969948678564844,23.003009751911566,36.868326726623664,20.187859796532244,-21.01272029955408,-38.26987258051126,-30.340353235588264,-37.43949646438562,-49.785653341586084,-44.07346621972064,-39.123565002166444,-43.082236604880194,-47.61554387495994,-56.52348366460851,-63.27462406472734,-68.78268408907311,-91.47999215064274,-122.51724396250401,-112.91572260909939,33.60884080694629,333.24601068910215,506.4678974445129,284.7916957407025,-72.20390054448958,-159.0935048798221,-73.29954839854011,-75.9943425328907,-108.87381667499179,-80.10361139328232,-60.72790700303643,-58.98922496993869,-34.87953602914983,-21.63827346344562,-24.854995183306603,-11.97599963873444,-3.63320256724181,-15.445883401799477,-19.26631363489072,-14.003024693640242,-15.460343586438714,-13.799291996040576,-8.111335737526495,-10.19574892223352,-13.402301602234386,-13.007442047507064,-14.584869377124253,-11.48672831186845,0.00797052677455734,9.648795313600692,14.443124537384223,17.768491827036378,21.207910370075574,29.74118386032759,43.195274716307026,53.094344142220926,55.15943799187398,50.000847233707766,39.84592393256425,26.75165459388746,7.566379195788903,-17.41743752658018,-37.99064878440623,-49.17787728141433,-55.0194184011087,-53.71917575974956,-41.59424563881447,-30.208104609693066,-32.75744019895981,-35.5867731590347,-20.150071102447892,-0.5428994379961232,8.07913940290909,15.302811029711524,10.350635700223169,-24.061678088267534,-49.431636393958314,-31.38940529567593,-9.237654029618824,-13.958547590957583,-18.956007987414324,-13.853825349692176,-13.866250198892153,-12.371510487170703,-3.354180413673973,1.4812812368455575,0.047224268731461905,-6.086872266640327,-19.255598685032112,-27.285173074927094,-20.750290150230082,-13.930108204672276,-16.19728384972185,-17.5950068963623,-13.460409980775495,-7.995005265278543,-1.69432074444952,2.54087524198259,0.13688886147190615,-3.77655833024707,-4.333901089018333,-5.749836937030675,-8.547139000889882,-10.578042171653944,-15.483466040611177,-20.957801098183026,-19.296055362838764,-13.339871229906564,-10.42519947645593,-12.09322146774916,-15.65993682745416,-14.632535665297112,-9.289914074491485,-9.531874793609507,-13.240265153718646,-10.619373163738118,-7.668371402936817,-11.506303489218713,-15.235058997995218,-15.330651924429194,-14.74964811788658,-14.06195929921055,-14.193229659601148,-9.556317820003475,8.681313247331179,28.694458179027695,30.994313566833185,18.094632478974603,0.11577907261366249,-17.412915664255017,-26.075516454358358,-29.08654360841764,-36.717660274267956,-45.783691483069,-56.28406288006676,-68.22342232418569,-69.99282692109777,-73.65916103122007,-100.75572107791214,-133.55579693418684,-108.99555274934721,75.06282722876759,385.6067624327702,495.2013099742495,212.78535855955028,-111.24952124150754,-143.49548763947374,-64.30633478474792,-74.9444033310233,-80.67615865771648,-45.132528670854114,-39.68946507252075,-39.29685501398022,-24.03722885721683,-25.380636006215227,-18.396414951023207,0.28848499395955685,-22.31917437548757,-59.32334817297229,-47.42658392309204,-20.20158612777934,-23.505057880607218,-26.956361465933462,-14.23630218354701,-14.602052687519262,-26.277074598592534,-25.149731740267782,-16.44754985168902,-12.993326996979452,-10.557430118881275,-2.7569060576472673,10.561580160862878,23.814418648996664,32.12102971379683,40.41114170001908,50.862329420951696,55.426005424557566,54.4471299758917,54.15328448814973,47.802579132160545,28.90963060637023,3.710671655699935,-23.104507701767346,-46.550749597492285,-57.115863909400666,-59.06425845670918,-61.9613052478298,-59.5919403741976,-49.21825695001679,-39.79575375642682,-31.13807470106224,-21.198453626957885,-14.050474358959033,-7.5172778041851025,-3.0355439491107994,-7.260888463864006,-12.789391895828807,-11.983650058339816,-10.507296648332062,-9.964861324821307,-9.224575656369161,-10.652615930182506,-11.135733933062127,-10.88349423193361,-14.328426183104522,-15.314598332537578,-10.724847890293873,-8.083252813298138,-7.649185332543979,-8.261052257389366,-13.323034801860025,-16.005238140222325,-9.557198935302988,-0.9336258374248061,3.2951650228938334,3.1077146623953382,2.525887425863388,5.318020707491478,3.0875155742908653,-9.86276252138752,-20.239475594749514,-21.02612049809087,-17.683029994358048,-10.560288606206871,-3.5273648742673167,1.0596794725931318,6.1923241518838665,-3.4975218773993397,-30.588690111506367,-40.054297794702144,-26.747760920549272,-21.194833253929183,-23.57184527657008,-24.87670062876741,-30.769274575205134,-29.10455427643182,-12.85709397127097,2.716948684650241,14.591643096905893,21.072547185922183,12.311130322398292,-3.9699679639319214,-16.31266943261994,-23.068610292165637,-25.121679081540485,-31.004556370278635,-39.85268076504328,-42.34161973596942,-46.803433656655336,-55.5520527841076,-63.28237533055061,-83.15305593489481,-115.92405373032472,-127.85331538068118,-26.94967943835998,259.4348816570146,506.86889238750393,361.137335389611,-18.228654654094285,-157.1428825051843,-74.06933463389063,-71.0395857937456,-110.66587271312595,-75.29917920135355,-50.98401719331059,-60.1393101021831,-43.09184275005228,-26.868998830717285,-28.932132029248628,-19.179147546430393,-6.357042863100146,-4.4810946677591765,-4.952865931915294,-8.496433124783346,-13.155417697973501,-11.965129008355143,-8.731806467937163,-7.2443849371177365,-8.319411911517163,-10.906291303366944,-8.531895081570772,-1.6198254952378754,4.202525990812461,11.469855652370047,18.7678469211894,18.573019500059978,19.12131203451922,33.266281780619686,50.89253247198286,58.686354071178705,64.35750042838143,70.17915102879927,62.044364444030755,41.09096812599759,19.84734968198194,-0.7134477774879766,-19.631827988558985,-41.31996455247371,-77.78374209075557,-105.57480528340409,-91.70469929771494,-63.43264582580612,-55.33232319675406,-49.12455243995799,-34.90158392995504,-27.00709538382949,-17.270295622872545,-3.6820758681528964,-3.9043214907832464,-9.686350361419347,-6.4756001892887625,-4.197806640434106,-5.108794875612141,-3.476286773785354,-6.255189431419588,-10.611167987380306,-6.512559483628216,-1.9355492603554332,-2.806032024720892,-2.63495570670198,-4.661816330239926,-10.88177072688411,-9.75576656124412,-2.9352842330912488,-4.743850903310626,-11.893243076140973,-13.599243289004011,-13.465257003220096,-14.008341014760193,-9.519110757456168,-2.7001329095313586,0.2618756541972864,-0.6934688605261741,-7.701991962788274,-16.873115660663775,-14.993894861972048,-7.450643224149008,-11.102011853701644,-18.150726430410074,-15.93732735917198,-14.117349896696314,-15.988994727741622,-11.376247556229332,-5.380389550976037,-6.889709561656087,-8.613220714820187,-5.9216792058300864,-3.366533638357078,0.3663860983266396,6.441847256481443,6.6303823490537255,-4.530005815434745,-19.358570186711415,-24.316757162279206,-16.126863643773003,-7.64900149834903,-10.625719523574698,-19.555743487038217,-23.15627403977537,-19.82300285585389,-14.321715376058478,-11.814202081800508,-12.730183539625322,-7.56923501540078,8.348522440376026,23.187465863153786,28.705134009718,25.414382250282234,9.353461634932263,-9.974081804205461,-12.597991314212619,-5.802569054648105,-4.949089500299477,-12.455413000749143,-44.94359364279315,-92.262594266256,-99.65603598908456,-79.64535557000332,-98.17877224874778,-140.16954334075925,-140.63431824928173,-26.89176526525833,253.939453962491,504.5619821558206,388.06546716121176,15.288872934998203,-161.32401628343956,-92.67554090696625,-62.95018225470571,-100.38882032529452,-85.7640432364249,-59.62172300677077,-63.194848841933734,-51.76423692869629,-28.48093811888768,-19.49380193294417,-14.743142869819014,-11.837411614193934,-13.210044604533556,-10.092888600263798,-5.708857898450383,-4.87472664275724,-5.402439702710506,-11.403092243186771,-18.089955211905284,-14.829804927573475,-10.0102594831677,-9.594466464965647,-5.603375526720592,-2.8803896634381765,-3.8456576105678706,6.520582451412615,25.879901705608418,38.51553961883365,46.76719226442942,55.31057504953223,59.49334856223985,56.781966230738135,46.45675912788924,35.9052809813254,30.365185551203076,11.653184113546141,-24.850114761553293,-49.360723549307615,-53.85499612724287,-57.93506841689292,-60.660373451288606,-55.46530887335555,-51.180715519559534,-46.16661578564289,-33.609654942979894,-22.34654989447663,-18.64100883754974,-15.994135794014618,-10.761930991037595,-5.044401986274963,1.3250932785424716,9.730751488568094,15.299481874305837,12.191152164450033,7.188402462334238,9.407946228895856,14.570095847337434,13.53697080239325,-2.6673133977060743,-33.63491863850616,-51.43196459591138,-37.320811936702086,-20.592319725128974,-23.87582313434548,-26.19727637691401,-17.953573703873214,-15.014049262181711,-16.592468763072315,-13.62644347682599,-11.270073104121863,-12.232352622335807,-12.872456429318913,-14.501067990549998,-15.075937301379547,-10.006265395692711,-6.159081311229713,-9.413461948287516,-11.710073005188182,-10.111548994675573,-10.78168642467395,-11.053047620088488,-8.469858190137902,-8.43044997006946,-8.54855954935078,-7.004517261237524,-9.956681642615465,-12.155523331532857,-7.821155100987946,-5.121987306651707,-4.5676409182303175,-4.034573079152231,-8.619549178627038,-8.664081645893722,0.96219147699974,2.959448485543323,-1.6532255112461236,-1.26880768483786,-6.656184089937298,-17.21543291857224,-18.837455923520363,-18.686993044618198,-21.091022711592927,-18.70181747368121,-17.85608849566739,-21.053530153044708,-20.660715977272584,-18.286121832207478,-13.860706113409435,-3.120278367312215,10.943978934698663,22.796936927900763,24.538883977944753,13.650517927645193,-1.2892391425878458,-16.467364415357412,-28.17621295595842,-30.915727800582633,-32.48382476419018,-36.61550681722728,-41.34030404264911,-52.99681835466046,-63.831017265267384,-67.68569812533052,-82.0210436012512,-107.55191550760222,-100.03178936702827,44.865733382840475,353.7815512771738,530.8842533797987,283.91651775528345,-99.86465399916607,-183.41286457779557,-91.09700112228151,-96.85531694967327,-119.05908332681943,-78.56714752532024,-65.59773180223259,-72.30848734905967,-50.48707269560256,-34.990734356527135,-30.843639269256897,-17.32537285681802,-9.657192686113632,-5.737649387223584,3.5653009398694913,-0.3425450749993004,-13.712112844948614,-13.330011146970206,-8.326792020050181,-14.288274453360723,-19.195868634392404,-15.348530766040614,-14.914011227084444,-19.213000101509806,-14.643441368919047,-0.8269323942255093,9.455330953126253,14.940327139041703,25.67300289264696,41.83440902977779,54.18698356238444,62.25388098397006,68.51398634815438,62.960000714816005,42.24969118631792,24.133149207916624,14.28677097644892,-5.381916377253411,-36.41860669896474,-59.06373694464123,-69.5443296696225,-75.0768700035793,-70.24610431382362,-55.70567737049144,-47.27952563930522,-46.47388349288547,-40.625634047608216,-30.820362027260956,-23.35880949473256,-14.472204870026957,-7.460370685746128,-10.233404485573885,-13.005701433880542,-5.927248690989714,1.30781923886207,1.515705076709665,-1.729792150548466,-6.8012055902132715,-9.372249145505418,-6.756567824564581,-5.486395241311076,-5.168809733346947,-2.918880958627028,-5.927832242673517,-10.569699714810561,-8.13183745201884,-8.464124314491773,-14.038798596711366,-13.179021739616623,-9.861643891125134,-8.175380142641647,-2.1878858252018176,3.186356254944556,8.49402106193325,13.926744112664426,-5.868682657556146,-44.418032924185155,-50.13648864609188,-24.419832192655942,-15.022967344585052,-21.518965004697044,-19.94847324514322,-16.11554432887214,-13.16946723642247,-5.311630139260597,-3.7364133296053765,-12.485190546128784,-16.060374391009056,-11.792440313868045,-8.770550525436965,-4.302777570872237,1.5207509869347042,-2.7130710146520336,-12.593125560245447,-10.960256017961711,-0.8130740151473805,3.0104995369947787,3.346488748027367,9.9340479381945,14.918766911697192,7.335797837902641,-3.06570651254863,-6.415131940646919,-13.607344479562641,-28.211924330548566,-36.96493128451098,-38.822290250064576,-41.221859083002656,-44.19979669989823,-48.2155893299425,-54.98027201778943,-67.78718989654767,-90.1289711567856,-117.7795916265849,-119.15233953166702,9.461833912997577,310.69443357100647,513.630974479179,319.63715919735756,-43.36779662386458,-154.81151166083242,-79.31977648958846,-76.314156263793,-102.34801614250655,-69.06041640742187,-46.20061801518192,-47.75124734840139,-32.27277742954203,-19.038231173617945,-19.943595703104744,-18.877061422353492,-15.051858641464932,-8.258153033290457,-3.5300155478416233,-8.612128857674856,-11.77363317117899,-11.181232996185816,-16.92896839410762,-17.87383292861826,-10.591939242251392,-12.267051625406786,-17.94948572264888,-11.796408816314646,0.7365711954549234,11.518526857120825,18.914185916609412,22.390981766361847,30.292069071816677,46.858374170128485,65.8482508286463,82.69709167249643,79.9362032626964,45.342269014930594,15.124435485415539,15.259389208220938,9.331069127422081,-18.56567353181167,-38.01890914259295,-49.25875261557838,-63.87283393679221,-64.1939448748291,-55.4141539158736,-56.812780743041564,-52.895122730318995,-41.45191541121482,-44.46572658476603,-45.968706376880604,-27.43129859425594,-15.919572833190074,-21.833089057277597,-20.622051456834967,-11.15959517868832,-7.2768700096950525,-5.193163824558077,-2.4184050046447645,-2.3656699988883503,-2.2511358416013145,-3.0820377199786932,-7.103693670555629,-8.839662727386916,-7.817561572151778,-9.055360418323435,-11.42186122104102,-13.402448197995447,-15.203991207170045,-13.48105421449231,-8.920618936893124,-6.953233461161826,-7.453813187639941,-7.545756453477498,-7.210430298773854,-6.030514846253766,-3.9631338246611314,-4.238048519863003,-10.116746880138702,-18.994911069705317,-21.427706616757625,-12.950044601950573,-4.648069336379486,-8.28736354932327,-16.42852908199736,-15.015773433494857,-7.371306564876441,-5.4961653365352205,-8.446486369284589,-9.692807840436647,-10.410501607064854,-10.708760763604088,-8.169347358048716,-7.06913342638256,-9.584717821678709,-10.399224436360631,-8.300903270745888,-5.178608625751933,-1.8254169595610445,-1.2016847450473964,-0.14750539982370015,4.180735716208481,0.840800469685405,-5.152899266128202,6.566669760492731,15.300373627141035,-5.937663434132418,-21.36555574393286,-3.4932859744623226,11.067513349911831,2.0767169216346772,-12.012675645585219,-22.72571082706233,-26.04177895667693,-28.420006198064055,-46.09759520832217,-60.29529281229887,-55.521512307282066,-57.197299784389024,-66.01881753286884,-70.42527515090993,-93.81534204177362,-130.98100055278104,-126.56117048016105,-1.1166283780032131,279.907352523841,504.5371372803056,364.44052392231305,-3.13398329659433,-163.45472375936987,-90.08000242655064,-61.16938787674638,-96.64386450079206,-80.16508520353997,-53.334387181239144,-59.932471233073414,-53.72915311990137,-27.940275563513516,-14.732723827971292,-14.78596565642323,-13.097752330727351,-8.977769524110954,-10.874729236298592,-16.332387022642955,-14.921315306328761,-11.033415037596527,-13.474564866392557,-15.298075109275398,-11.052690996899617,-9.316961343178797,-13.090848301190025,-12.039806446295735,-2.8487296369966706,5.160408376443191,10.445708727678213,19.719580618455232,30.641392212403748,36.60845010793903,36.693399860204636,35.932269371158796,42.438070150906555,50.354885430251635,43.923920857912144,27.9213935348802,12.210107932070883,-10.574943070951825,-34.283148747282304,-42.63039242527903,-44.739557503940375,-50.52353043374069,-49.82904964960052,-40.48535674415679,-28.912524137136554,-15.903910151370617,-5.913440959947508,-6.223626701379665,-17.399879009540943,-28.61752494967427,-23.26796656188111,-7.269688217150243,-6.423432815107631,-21.630779157163822,-32.79565289258085,-34.541843761402355,-28.71832675302607,-16.93298886797448,-10.108359512301952,-11.75157977501657,-11.789305828340922,-9.129177176919047,-9.405119389560209,-9.739679426148463,-8.427360661805654,-10.422680515337198,-14.290853710557286,-12.982383920153246,-7.861203160818924,-6.491702121255937,-9.892532744723624,-13.272955760735211,-13.411192852717889,-9.196640001222924,-3.0065330963910917,-0.6642684170676105,-2.360242194472171,-2.552339500876613,-3.0094907789300898,-9.31438299114501,-14.503756133083309,-8.953037056577223,-2.8459505576281714,-11.005175843780936,-22.593198847233875,-18.24855310611598,-5.650465309670462,-3.4526943277969586,-7.955309668090759,-8.023489503060905,-7.678437337254927,-9.704628972349239,-7.875695698658898,-5.511529535851881,-9.064138422448718,-11.258643701811543,-8.399585747933642,-8.964846559275887,-11.525875353814769,-9.971036157950792,-11.404312345454485,-16.631022855182984,-14.421991865488733,-7.896850779687163,-5.924061369908991,-1.7807234266233838,8.671845808567738,16.944192089717614,19.198393822820332,17.141815917387746,10.226286804781667,-1.5058608354959127,-16.609383299430853,-29.16164172408412,-28.958394446911818,-20.399244406757504,-20.523889317361526,-30.10670999870358,-50.421184283261105,-97.94248687552613,-148.42279369651504,-160.50058803055543,-136.17511569541404,-7.625278202687554,294.47385263836424,505.6142966597363,301.7864136603615,-66.54404684897045,-154.7088762524832,-64.47525076716346,-73.88309682098327,-105.3238691722797,-66.45369055916396,-51.98626535811056,-63.34636716638331,-43.168634379611795,-30.16273363730396,-35.98122933568271,-23.24380885992062,-9.127960915365033,-12.332608937586386,-10.412140604911901,-3.378693283516366,-8.78593362378599,-19.164080542331824,-21.22408508599624,-17.38109660817098,-16.270982059916225,-19.890192705978514,-19.3209359433451,-10.562501877276398,-2.6939108267847054,4.157292047366508,16.225811360273543,23.93312438947125,24.085050230743057,32.19491380301802,46.17316474175695,50.34449625196312,49.225679818110684,49.884621289805274,45.20427442195865,34.152218134956456,18.853737783634763,-6.773161477953472,-38.989474966328146,-60.80695033343704,-66.19293956543211,-64.47361631241046,-60.94697446891318,-54.030993695567474,-48.58313313892366,-46.60002971510296,-36.51212920061457,-20.695750098549972,-19.102661066396784,-25.848663453841716,-20.079857460724753,-11.332447892039148,-12.340334621833371,-9.354622914794987,2.2919533004681867,8.739581631408043,4.211720207239171,-8.47526809382282,-20.369242809190492,-20.1087894081424,-12.240316864178702,-7.931554136891034,-5.757982827060864,-3.2726368064176086,-3.124771437680252,-1.2064953459113141,6.983570040498048,7.349056684810918,-18.116792145054255,-48.95018546196511,-47.05453235740863,-26.028864682050028,-23.02370529373625,-27.279257968096204,-19.65639598544765,-14.628325968567584,-14.793337704859884,-8.950644396327903,-4.865621232276055,-5.925483755570188,-6.088841342866036,-11.74950058342819,-20.270203719058188,-16.445632907116394,-5.566102675634916,-3.4135324962249705,-10.398354338079372,-19.322669452186545,-23.007142584261942,-18.269045530792617,-13.455012167818808,-12.715887200873016,-4.632018202615118,12.917156095151494,24.740646751353964,24.811010326670143,16.28865863824751,-2.564892000538414,-22.559845548482357,-29.441969214212094,-31.11943162125562,-36.195735098542315,-39.9257501367125,-47.660516419872955,-57.622601668258426,-59.2781945773543,-68.49688066823649,-96.05666164977265,-123.74929121169708,-96.13528282369066,103.83108476092222,426.70559076188454,497.43605389544206,164.26389319417936,-146.10906421364152,-138.4125243530076,-60.53003891274833,-86.81533290450136,-90.3531217793791,-53.279920505409315,-50.032088653487435,-44.20312505483402,-22.529229079163308,-26.72455021245743,-34.14211202851721,-21.838286480929135,-16.921775904936787,-18.956106595702533,-10.684602236109049,-5.355705302942155,-9.254368239204885,-9.860979373587618,-9.40453953017278,-12.283281846494068,-10.637327274071293,-7.396158019211273,-10.542595983186327,-12.828186165512122,-7.624927050082459,2.3132283324532708,15.070707723730305,27.13503292734205,37.708009925209566,51.07603392406608,62.5382422981568,67.32902136797225,70.64919847632518,70.79133546711003,63.104932917813535,45.23402912472673,3.479896708357341,-55.734697846508986,-88.42017309627492,-81.45214038029653,-71.7314336323509,-74.35153839814294,-71.08480832927846,-57.80125922083679,-44.229477998739455,-33.48569678822263,-26.88539011746755,-25.243097543245568,-22.071493320808678,-12.811347012140018,-5.249905710759798,-4.604290915135749,-4.109290169893139,-3.757989467678467,-8.039372612898333,-8.125312200537195,-0.8571873587962173,2.39326311739903,0.19133366006561303,-3.9025502781268635,-9.710615391308707,-8.028768691919844,-2.6141949538536444,-13.578094028413659,-29.401358231087535,-24.882459374099952,-13.845021220848537,-13.275746947098327,-10.886788001808394,-4.995837064483769,-6.566111192659097,-8.508650209828051,-3.400309511967894,1.0780883033917945,-0.16005861911432007,-7.442029776828051,-18.724342991569372,-23.406673579266904,-18.01337061311248,-14.482052269257814,-14.23194318727603,-8.025985992297333,-3.9253771568075457,-10.935785633051836,-14.773507620656414,-8.454626637014023,-5.995346286399812,-9.344826589702285,-10.038401975390357,-11.95419483957468,-16.935274670714005,-15.959590752936883,-6.89599720725899,2.715117580836587,8.74067681958039,15.985284011539878,27.35645004290744,34.12148799534184,30.052321584130084,17.062658621444903,-9.00324278797121,-44.94139879386679,-66.19315941055318,-60.27442130804151,-50.391867139090536,-60.169251161689104,-76.26507980918464,-78.24018454646126,-81.5817354141973,-105.67215732581114,-133.38137018287253,-99.16284217718808,100.03129561361821,408.37358021688897,491.2072049532329,195.579253275548,-112.14669191341065,-132.3518435836081,-62.88518735106307,-89.303891968899,-103.40372552363189,-62.6304057533199,-45.54112022888489,-44.44888106300953,-30.600717309486903,-22.16802781955957,-18.14111757869837,-13.937816090197188,-15.996964365510095,-15.108597311105418,-10.991381762003307,-12.426811607299147,-11.979020763727217,-6.746168223964,-4.505923433765181,-6.3301389038544595,-10.168655101026772,-10.611021194962557,-2.193926569983338,7.622909839539252,9.015402589663356,2.648594981261569,-2.5039116555786025,4.841790385742758,22.114315691256333,35.253396323438174,42.005887645421865,45.96409993699585,45.56777261650716,43.60203919590732,40.167351338033136,27.708784991608127,4.87527768128124,-23.08442685916648,-46.061695933831615,-53.730819089597205,-52.830150083453674,-53.896912620968685,-51.61593202518904,-44.272845129132506,-37.52351753470819,-28.295465587337855,-16.52024020305509,-9.115099152185039,-7.541496115551162,-11.001262682883066,-14.58101811111047,-11.311093898525534,-7.142699555433779,-7.3631041862538495,-5.28648374930215,-2.621161224946327,-4.811066925337961,-3.9171287599842994,7.047193824030778,20.59764490815869,16.594157097883773,-15.2126497662885,-45.037625031095345,-41.75258148334191,-26.126389916879766,-24.078457782675407,-24.10563401528308,-19.264401656892563,-18.07592538393994,-16.82861582893443,-9.965564603347932,-2.9312280026036888,-2.7822138793484967,-8.664864096434428,-11.138772245682166,-10.664324181480382,-17.380161944140244,-23.04073030213815,-16.36069531983022,-9.91341397877681,-12.103257847500721,-13.236324045025533,-9.6630315011679,-4.896436688491903,-2.9913588793151185,-6.981043442761415,-8.99640775533788,-4.4403496049965945,-2.9402255549327734,-3.5852424275639834,-2.6120497493320833,-14.057833737121904,-32.82285676702773,-30.818074287588896,-14.068513569283766,-9.539879290286152,-12.077662058389134,-4.550664566668965,10.831755728725616,24.264822951815376,26.209837725873378,12.024409195139377,-8.493804145270627,-21.163569156110704,-24.659847020022454,-27.34877287935476,-32.044708468757676,-39.395628951557114,-53.35493686101249,-65.59547460688805,-70.55650394109225,-84.32823947818089,-110.23212799378686,-132.23182966979923,-89.76833211547812,136.48167116536132,454.9038814968718,472.51417311605076,112.13290204446976,-161.06277763916273,-124.65712353752033,-59.19759066574423,-89.57007478805667,-84.16412822723917,-51.84475309204828,-53.33248614745725,-44.132003956550165,-20.33803709841696,-14.214773090220763,-4.529703547813593,9.568422509474908,-5.825571452357263,-37.19283736550876,-43.438562022318976,-28.983948489803904,-25.453510005296447,-28.337284630640795,-17.68481122280417,-10.389381972437157,-20.869257013385955,-26.293343309060173,-19.254356303457687,-16.257646019489336,-12.540908268959486,0.9765640610244763,14.375500892321798,24.73734964870138,37.013981473250425,48.62749442825346,58.848125275520694,64.35004941674842,59.95129123473739,57.544520339485466,58.23665075719706,36.946853141962094,-1.3254087200848925,-27.98989843822997,-51.20465714438811,-77.69213430356857,-81.88920400015836,-68.95542698141031,-65.76785191044642,-63.18599810446293,-50.04339989692298,-38.138350698722896,-28.81327360946629,-18.608746779449874,-11.83293408216705,-6.426465036106745,0.3441061997882038,7.568161877557376,12.456794337556428,5.200638816202726,-9.787218215574164,-12.946068754427756,-9.414560480126386,-13.88833188957701,-16.358152598340222,-12.853036151772578,-15.224823244761893,-19.76252679463144,-19.42854870311615,-17.819492196526244,-13.021700515351615,-6.435276550436669,-6.61677433505222,-9.216187421575064,-7.521044732909218,-7.602757633278017,-13.054888390635831,-18.168503865438225,-16.26275374829998,-8.225856449092877,-4.1437266957006,-5.010903552370703,-0.9634720799157357,3.9776814022517293,1.8784122070292124,2.410063972415564,11.846673020787923,18.586312893762532,8.814696154019746,-20.179445513727746,-49.9987983652689,-55.23142177268949,-38.97573716283678,-22.568638934194553,-9.317874261274394,5.704930052280135,15.15596257426741,12.62666054251364,2.9418173300073036,-6.370834239749005,-12.715130869843044,-20.109478890282563,-29.059487835103045,-32.155902430965156,-34.15360276063801,-45.60702887928313,-54.68926922958333,-55.92859801259284,-73.19698009028032,-115.74236169231494,-145.3605755096195,-54.82903997726151,233.85628502722227,502.88927791500004,393.9488926550822,17.13968269474149,-165.15126389459607,-98.37399683760665,-67.52640458809785,-97.19266406614808,-69.59157181933405,-38.155428921252465,-48.71831787499837,-48.91722047804818,-34.639024009291546,-28.12068977534424,-19.742334098868977,-11.066346871350998,-9.51763158868971,-10.22634111549474,-12.34276568606342,-12.431783277580973,-6.452463801719077,-2.8519289079473467,-6.5754136877002,-10.911936742570818,-10.776494683018829,-6.272887763044416,-1.2962335327313224,-1.1375434189910703,-3.4869397221013108,0.41087524332762904,11.854239921462636,23.98517824853097,36.41743672602394,52.02474919574125,62.35945454990288,62.87155809637528,63.31082024940269,59.119721422303506,38.94876743878426,19.41707895453396,8.622783474328504,-17.01924045875245,-50.83427290082331,-59.66880918125755,-48.243384072881135,-35.768619907016195,-29.34024748792777,-45.119279650924064,-71.3717282108186,-65.88331251068237,-37.171952279091656,-25.14990802919498,-26.10951247355569,-23.867998267367184,-20.023016499130037,-9.639848529447214,3.525931299560984,4.1014534862103424,-1.6326721944141376,-2.467217177962045,-2.6749707814574997,0.15859398196461783,6.593332039650889,-0.14551802870625252,-19.156336393335053,-24.59544236493212,-12.640490627069791,-5.2869037262196485,-8.360972533586914,-10.122240997709302,-9.55023859318593,-11.978240946736548,-11.51841465266606,-2.841337247900931,2.716593286727342,-6.651451089271756,-20.88975788164712,-23.24549359789402,-17.82690245133184,-15.592934539975502,-11.17444572051944,-4.99642352220522,-12.06415309339025,-23.38492481422879,-16.372269124257663,-3.7478128245145967,-5.481744639771183,-9.230800712967266,-7.331973614180285,-10.44291574966951,-15.573374868234843,-15.525822829640063,-13.898113854255616,-11.929728030348308,-11.273827019010955,-13.677287527164214,-9.790687240882772,6.598859030359609,24.585549762190322,27.54881929693056,11.724852937688532,-6.344888490582811,-11.610057854468756,-12.076610290296326,-18.911524346054943,-27.886183358540023,-36.46099910361222,-50.29859358107128,-62.197152971925426,-59.67976942011461,-59.95319746750252,-85.43588568178916,-119.73336275483192,-124.57036264358764,-22.587396373562143,248.20452849812548,490.8208541739144,376.6146916309266,12.166941194990622,-164.25132159165202,-97.79757905336606,-61.98182686251516,-92.78942114207742,-79.21290213693692,-53.9588670627726,-52.7065806678934,-39.81532792460726,-19.13822330660915,-6.507677935399496,-0.05571121718497807,-7.378741775668544,-13.477793527750157,0.8073446870589436,16.281533138711982,15.12342336690201,-4.763152393455535,-37.91069766834276,-51.979089377591905,-34.96050738072858,-24.95975774920501,-31.94385199806302,-27.66498508648099,-14.923575340375159,-9.77077827615311,-2.1132703637972097,15.802529541732518,33.43892650158194,41.24415460746149,42.08358747418774,46.49692949711454,55.781648225198005,59.071149835775316,50.10606970305124,31.663483642409865,9.992928299785023,-9.323434988017015,-26.67801485907674,-43.53754746642635,-56.89220856700302,-63.95411953127713,-61.15844158906904,-47.524085256147636,-34.83758268695561,-32.698077777959085,-30.643326479868374,-20.333811576088202,-14.872131955639212,-19.448968595040853,-14.84925301460892,0.911517856864787,1.7292963133306465,-11.886760099738655,-12.264464177521702,-2.4291518219820603,-3.2551303950197124,-8.634555296003409,-7.9315558294042425,-8.38750119381433,-12.96784645644287,-15.406675616864298,-14.045393870697595,-11.64777517780361,-9.375131448349105,-6.599116485434603,-5.729143056647917,-7.792898326862641,-6.515386733125922,-3.1249140418641836,-6.115991365351057,-9.384661841111441,-5.965734237821177,-5.291085933519927,-10.004259652248319,-10.072996857991257,-1.7804171479400033,7.4865880125655195,4.560218326002886,-5.816446056424127,-1.8272323754927022,2.092573682376713,-24.33687425928797,-52.78184906761306,-47.79304631517363,-35.67328318210637,-37.792128163574986,-35.349798826367795,-25.458240422997683,-20.98527852685661,-20.85115865715072,-21.215649291703023,-19.317225300460144,-10.208539009919964,4.763761869612491,17.498948737399044,19.96795591972111,13.782568594225967,4.688368704875586,-11.071896104284093,-29.711677826766653,-36.43755928842296,-34.558937740327174,-37.690304976632106,-47.86540712424519,-58.61622976575908,-62.662325222076795,-69.3070075562092,-91.56464041750405,-119.92702090464874,-120.78961649720173,11.929941780900279,328.174065136424,526.2075042271437,287.5289505879576,-92.10311554778855,-160.95109534432135,-63.87811291924198,-82.0170394291969,-110.69519213695027,-69.18378963560856,-57.681308262474474,-61.46671766855285,-37.89491384819882,-32.6899561403705,-35.17415314990966,-14.666272281531754,-4.831809186186611,-13.581358504003276,-14.29565610221809,-9.660933738497338,-10.120757688885796,-11.429497744862369,-9.278585918552698,-7.705186063595935,-13.79526001644492,-20.887492045266754,-16.84731026744752,-6.88317529925963,-1.1472208995421336,3.224476053423038,15.419746932793155,34.201200286302836,43.29049867027584,41.11284506128992,48.649900644121885,65.3245936660769,73.41002247033218,76.1526680302363,74.26225130829202,55.328562705066524,22.17455117953047,-21.473516040219117,-70.84721100875099,-96.71001702079093,-89.93395175014858,-81.75182853648096,-81.59374632516169,-72.32381830644343,-55.66969772971246,-40.93703954007094,-26.93071459985122,-16.336642662321758,-14.654961858529099,-17.209039448386775,-13.427461371994724,-4.115817151258803,-1.566391517063007,-5.501085781101747,-5.349496417464049,-4.250390621862312,-5.617715298126722,-1.2114056298584188,4.689890918530107,0.5711921940344631,-7.541407156806699,-10.832122623105418,-10.333476498988674,-5.87168696129733,-1.5120173260539644,-4.675632407835753,-8.719442577523544,-6.938241486349888,-7.698387729024162,-10.472988094824112,-5.146592339831432,0.33589876572417054,-5.29936717101058,-13.790833042245962,-16.362669195746705,-15.073083962577105,-12.930525764094618,-12.890857663937796,-14.466204083437376,-13.615524231182867,-12.367803463658134,-12.329688790561939,-9.943375325204206,-8.62999204745454,-12.98131677869969,-16.601229790991216,-13.236304352537651,-3.6343993762785836,11.178355298719705,26.269756630971596,30.686380367763157,21.63805295521235,9.432412220593672,0.5679125698666869,-11.202970892759744,-29.85904749553214,-44.62314884465466,-45.972155528669425,-45.78937307681036,-55.15345470299722,-62.8908225104856,-70.15222140194234,-91.37679823860395,-114.76915246700958,-117.86362880863798,-32.97375142156886,234.39904391569777,514.2089733717108,423.3270840525492,20.424516707731,-197.13635140179363,-121.92432693150556,-72.04829035043956,-113.96621715031293,-103.6376815222292,-66.76029586559272,-61.39946181591462,-47.08351495868396,-24.204330009704922,-21.955889888545265,-22.344938961689095,-13.622624580895963,-6.999204177372333,-2.706205762830013,-1.12120019170019,-5.598804903363824,-8.264137884432387,-6.030450893777822,-5.847197490670803,-5.7211390517910115,-5.834292401801397,-15.283712312927843,-22.501778156540126,-12.162331283864056,-0.8661573837145617,3.0725933122735283,16.31356359387258,30.765333145310073,32.321755216713726,39.5878571685235,57.72928466613074,64.71473816736496,59.68673063792619,53.130281828866906,38.25185353155781,13.1624020708798,-11.905822865730245,-34.0567476509499,-53.31890645787145,-64.17724914244468,-64.37603439961757,-57.528231250946234,-47.417041500117776,-37.02561130096785,-28.25595370295722,-21.521958492588087,-17.28425250543056,-12.38649921883481,-1.6167665980675139,7.3312325609307365,1.3363877956065302,-10.041680037566781,-9.591378301408724,-5.49592065387894,-8.366401146765256,-7.510474178807836,-1.9462670755824405,-7.710265218100034,-20.610589348182483,-19.3666326277691,-6.005836319985004,-3.687210449492987,-14.357681960203124,-16.039050226812357,-7.9875176215117385,-9.835852584831017,-15.401749493370552,-9.203126277609833,-5.158733286581789,-12.391607207077396,-14.460250062096538,-7.543008906856517,-1.2598206533278695,3.2667696502106587,3.7605521595809677,-0.0005305920510316753,2.087980610728799,13.337244052524868,23.8210492776128,17.74326263421863,-10.516944357604913,-36.05043868531067,-34.29224111302462,-22.196293250766345,-21.78123232856502,-26.310887436056838,-30.172973991792563,-34.04965809275939,-28.18629172843817,-14.990570326276,-12.63659306017788,-19.52916353445938,-19.881359907459277,-15.874530381749892,-14.127228629818624,-5.570796288453968,11.725804270356333,22.291735308253855,19.966731774631363,12.932660175610074,3.770124724660505,-9.143459096813672,-20.661370458715005,-27.19149503702282,-32.77811443374971,-39.23298482227777,-45.943612337138426,-53.24385217012283,-56.00083791557267,-57.30110370265367,-74.62087112023153,-107.83738626671908,-125.83318282810812,-49.85297257945364,203.6948651535469,485.8706504048674,439.5975112231329,66.96122069274386,-178.21038002802237,-129.14487550075222,-70.23081600829175,-105.65971447553578,-97.14070706107955,-58.005418369110224,-58.7821230412503,-53.81408613937526,-30.41197881549745,-25.25425521910869,-23.439660493850663,-12.526366020939504,-9.508633746428195,-11.720020769358012,-11.002877963884927,-9.694348627021476,-8.115534923211452,-7.8379400584027135,-7.042803892099045,-3.1590260626977624,-2.160592745245772,-2.1749275653067333,2.184241613859327,4.968974363285738,10.94972182649165,24.603524783383243,20.894502836089195,-4.680600086564897,-9.428918586232514,19.25220845234193,40.716185516876585,36.50711798055994,30.898371406614988,36.26542936137929,34.64362862832398,13.710324867048119,-14.484860123851039,-35.937584284792216,-49.47170947084505,-56.884658771625524,-58.56231870014075,-54.761105393425225,-47.30128697378069,-42.59429881986849,-39.705084754716836,-29.374885882629997,-17.396000020504136,-14.298510982224798,-11.941858125552486,-7.129360861869625,-9.704969802764808,-13.7027138487217,-9.948127084934601,-7.29524306168722,-7.87450846832111,-3.5497933950020197,-0.9712111553720426,-6.419612645242999,-7.075062409619623,0.7831379473653648,1.3913257999753519,-5.1386794094966675,-3.4578146693760594,-1.9615228354763943,-16.692504117250223,-31.502051850728375,-28.264742318445613,-20.04462034558855,-16.25881430483043,-8.564106867912354,-2.303883882374251,-7.287411951435285,-13.150123951955752,-11.919865264341137,-11.84058882423141,-14.48157519607264,-13.823571202471602,-12.419287212964946,-14.617013218498755,-18.507985266713003,-19.615074458423095,-14.243445697055662,-7.9569966705529716,-10.04171500203319,-14.596380652688552,-14.859861401053216,-17.32729722011173,-17.304618809367774,-7.492820060334761,-5.308086982670655,-17.18195001915475,-19.75901962405868,-5.61858728355058,12.785480893573014,28.536069985315528,29.751414407225983,12.401982288446554,-1.5165223720393008,-4.278268299168683,-12.471672806255183,-19.41186142372967,-11.799840324015705,-22.190233864944677,-72.9693946448331,-106.76552399442448,-86.62390463738467,-77.97746378585049,-115.86689805897655,-147.9196670867527,-123.68791098379575,47.216753235925935,375.2381653767103,522.9885779468221,230.75608028889278,-130.27396469924793,-158.11994641495744,-58.63682461589845,-77.44453063773705,-93.12164306686336,-55.030827744436756,-55.2520111492789,-58.55755121382088,-28.6469360652278,-17.66044318994255,-18.956668768494204,-4.572208384623092,-1.053068167791693,-13.251933132246332,-13.525564668101811,-1.9726309124976389,-3.7127805625799937,-25.597822251675886,-38.59932711669223,-25.432970293497405,-13.099342206385987,-15.706912206519387,-14.177199089479787,-8.32378665631368,-7.787060875783217,-1.179313016742194,13.398947492598335,23.296500480223095,31.05444466305866,40.780212696809585,46.54048563595406,52.393125736832495,63.21745708569586,68.02041222794861,58.32704760131024,37.14887636566083,8.933186713442637,-17.94093345647964,-34.778117144632645,-44.819527047393706,-54.79699317826804,-62.079577204169254,-61.115353376773314,-52.53005583320063,-40.64663297466084,-30.13119465434067,-26.863277618258344,-28.990961478224317,-22.77891928697653,-8.194596526823535,-3.8446685355093706,-9.366590327583229,-8.909133623001892,-5.962062580123689,-7.008777128508896,-4.921035764392055,0.5557069882607184,5.466718435749609,9.012211001021843,6.446029785284882,1.708346042957313,3.210914448709623,7.446953954672795,13.031845350855821,11.79604956270628,-14.448166116431935,-43.4457531100489,-37.80302085776044,-19.037583831466044,-17.465069894921214,-16.82861586994313,-9.765145418865348,-8.804737527112685,-7.7203908129132195,-2.567119751632873,-1.1475546237535035,-1.299267895261469,-4.4037791294464945,-14.373630380294848,-16.90126576460647,-6.305968706399817,-4.529609756734455,-21.186967449381616,-35.340591757214256,-32.5859015233702,-23.92336574971606,-20.443766211987246,-17.146105308742598,-6.593363262800665,8.275484319177345,17.875246754272148,19.202430688102382,18.03566084019129,11.932338999642472,-6.161682972049036,-25.491904679442662,-33.14582956863694,-34.20901820691425,-35.13105622478563,-41.09375191560986,-56.06218044562583,-69.00267142452518,-77.94188293234285,-98.4146469795437,-126.4542604945427,-116.48048392151811,33.599346936239755,346.4044233267974,539.6457048718347,323.4227077416406,-58.08359379855854,-173.17868542708473,-89.45495981871798,-81.15821167446687,-109.1456438725541,-77.20931757610387,-57.48957458500578,-65.38020680355153,-47.71146143518509,-25.523923432043247,-21.487578515211695,-15.671491539104785,-9.800392866695645,-10.048930812545716,-5.889051822466362,-1.8916564347949905,-4.919550304270668,-4.113324817823541,2.241115054711141,2.2186046568891094,-2.156615321125498,-1.2246010143262471,2.938338689014392,9.516267110202852,18.35993220250627,12.594168883962771,-10.461894728483696,-18.59183608928226,0.7574725493134089,21.97158592746621,34.78054971229861,47.825467084026656,54.384931273013514,48.501374656696,40.599379086249,32.30377760116769,11.87342809742189,-19.444579191260814,-44.31297369113912,-55.25619276735459,-59.702895981844954,-58.98630244262155,-52.440107115264496,-49.56153097857233,-48.19203224725979,-34.79384923643235,-17.926500325624296,-14.192461693128138,-16.38748373072377,-12.504416382909604,-4.477996428394498,2.7796194717845673,5.3113767305444775,2.6961264518734147,0.4400547651519737,-1.4905564244819551,-7.019056574216165,-10.724439673330881,-7.086136492312161,-3.507087244045511,-7.3925977322567356,-11.87329154087492,-9.319917800724483,-7.183965531366365,-12.15969335003609,-15.471074530308169,-12.348864018641084,-11.168090536904685,-13.117358045296758,-10.603625922359143,-5.310167522939157,-5.754123375441285,-10.663278753678714,-10.033750499920789,-2.7186117924571853,2.4858800528530303,2.8800918747723063,0.5419142536621884,-4.079621766240749,-6.595051019340932,-7.8007835343318455,-15.782829068497549,-23.668376554830544,-20.13115297004927,-13.782571365235391,-13.094649738144298,-13.670817888099503,-14.434009637704591,-14.638863012174404,-12.9349525538941,-14.655953050850542,-16.54831024697451,-10.472937310882706,-3.8481225978359532,0.5214590291658734,12.958844538666384,24.948869374739814,21.195412447411016,11.655395853156733,6.063512259068366,-1.5957234430929255,-8.266951490217625,-12.552602124941501,-25.116042619544476,-37.49018078731189,-34.80009954722829,-33.50116182126845,-55.524672734264634,-94.98828120728442,-128.89994083612675,-145.21504867466075,-140.916175712023,-43.88359396070018,227.84000879083123,483.28440009437054,382.5142612278793,20.746283220416174,-162.34634903551375,-99.66377271152149,-62.320437155830746,-94.24658309856453,-81.74470873190138,-52.34775543783337,-48.74490631355556,-40.46376569897472,-28.209924325340502,-21.438241460209596,-9.596908193297718,-5.925778726368904,-14.738357581380605,-15.52308752694707,-10.49331949042191,-10.722932759395391,-9.440018978699255,-6.008053705758062,-7.397949394604357,-10.550352223706135,-12.241105957861844,-14.395784433803843,-12.993526741934325,-4.9750696355649815,0.31940135985196516,-0.8710993655155608,4.07629338639378,17.741949703513985,28.608748388482898,36.89363261687076,45.04662110097648,45.72590863449308,43.50691396078421,46.125910068445705,42.244128375813105,23.871250109913003,-2.5961840158523355,-30.90786969140557,-49.24469297971156,-50.4958130544093,-48.50860348746039,-48.1387256809754,-38.98621746925977,-29.08971818654235,-27.15148386967659,-18.396768868152442,0.5520712503364607,10.084616495582097,1.0720047271582835,-14.726112095700948,-20.899021196159183,-15.981139651058246,-12.63565905537559,-13.792166951298725,-16.588467430545137,-26.007998992487366,-35.26941105522764,-31.779189053835648,-23.496447307398583,-19.344453516257538,-16.23645325410557,-15.553727868100239,-15.329991516198682,-9.709985906838828,-4.569820571857651,-5.695976221038702,-11.142641248869456,-15.558922882254798,-8.662652087942693,4.138037717413731,3.4709460216031154,-4.378663971597756,-5.403570412318274,-10.306420054229534,-19.38065931898769,-17.890180796738832,-13.903460949006082,-17.58960029510595,-19.93892055426123,-20.30433786389052,-22.97275660107366,-19.416675225084948,-9.912587842315457,-7.765176951285532,-12.210127871473283,-12.142795187684573,-8.869976954998506,-9.333730049769592,-11.66550217393517,-13.358991037997207,-16.16772366714165,-17.94528608675057,-16.43722732331763,-13.06069076270298,-4.811022007001743,8.383006021904585,15.855575715097485,15.093501130035694,13.536120739778994,6.587598157737084,-10.389410654364472,-25.064039874537826,-31.014544114597108,-34.125291092241255,-38.09554872935811,-48.253478547509616,-58.364200213997336,-57.0225253970042,-67.51640520013078,-103.28100898445413,-131.56716231176978,-119.50137933649492,17.431469977162095,327.88606713273225,528.580658879506,306.7513992455888,-66.0514813331072,-152.7735767247049,-71.64823611956143,-86.70851173318978,-108.58514503754498,-62.342552274234535,-47.825378819803085,-50.357535755620965,-17.267219611895392,-12.84179677489,-50.31127683057744,-59.17837803299439,-36.925177010904775,-23.76333416398237,-19.46772852474018,-16.827664331516758,-18.874545956084336,-16.679761927078637,-7.669800621104313,-3.2180925411738954,-5.622545077605732,-9.811253490766793,-11.730173653662655,-8.047151224258114,-4.074532433512194,-3.1159404089025937,3.452422774405772,13.65277712209498,17.976499918876648,24.12576615967059,39.33365922749887,53.64313710309451,59.34432096384201,57.46008288598325,49.7533924869569,37.61085612652258,19.263569314255797,-5.43394154163949,-28.564468861561156,-45.65083696531208,-60.0407370574207,-68.52205547571174,-63.209713494425344,-49.076188797603564,-39.41148848065106,-36.33229244535099,-31.46687826533513,-20.368489690324402,-8.040490724672608,-4.249621531265518,-9.912336068370315,-12.991549150303708,-8.69018795536168,-4.920884603694709,-3.489722430308184,-2.5778740676532053,-5.610385657241082,-10.180199375676363,-10.936811595156762,-9.468309343033948,-6.7753629932630055,-3.821876950498414,-3.9796126002536347,-5.113361052062377,-4.783109085614688,-2.5152759696188927,3.1089618023856502,1.2412349561749956,-15.581570439323865,-24.346761916787415,-11.723830759967816,-2.970120494983874,-9.889782984634863,-14.141906819794748,-12.09725979857878,-14.887344129885516,-18.6901560633474,-13.614593327487118,-5.128455301595096,-4.273578505092313,-4.112394571706599,5.422453191384763,11.294534033933015,8.580470574803224,13.448750058301085,11.312656871101343,-21.150223417889755,-51.660270951778564,-49.54084688709628,-40.47982960209433,-38.11967238195829,-21.252824659731097,6.580169555079458,21.016717879042215,19.04161642525093,10.541410547241801,-2.5267778560716074,-17.092483875809663,-24.559006649521848,-27.558512320454952,-33.57882504096374,-38.920767853177736,-45.725454549056494,-57.639499712160315,-64.20464361088672,-73.03590343357328,-102.52723261865535,-135.36335635074616,-107.45849474953042,85.49486676654718,408.96354516724875,523.2996463998518,226.47550108841472,-115.35288499738972,-147.85320110680595,-63.48018486078287,-81.09593909699099,-96.26976471459398,-62.11832877984097,-56.486533221848134,-57.85378834723721,-38.86153679851215,-32.30265216498,-28.494759559411364,-13.035693337767434,-6.081234601428164,-6.5360674543917305,-5.810976956376454,-7.394861390993395,-4.67525625894517,1.0213886274719908,-1.3746494377481664,-4.480100724571457,-1.7031663488829167,-5.058146221629756,-16.55232817668156,-20.592915882047922,-12.497113257889778,-3.8637283940248275,2.1075025507028284,13.927908241963369,29.77131726035876,39.4748705560626,43.190833275244266,46.877804145882024,53.00541485666492,59.97078025339565,57.71299629538021,38.221909735130545,11.128212728696488,-10.457569914010172,-25.976516162791732,-38.45397740597508,-44.15656400511027,-37.97708045083278,-32.1153681670739,-48.5107861588215,-72.75456558331473,-66.3653887985972,-38.08561326398831,-26.393311101078005,-27.947638919363463,-20.009369767107557,-9.269022838382583,-8.520293561381074,-11.028550012495792,-6.845111224649095,-0.4766312673676758,-3.286343634537932,-10.435164943561443,-7.643608158716248,-0.5705766472032714,-1.9731490295505374,-6.8924840960047575,-9.55806545248329,-11.875215477607362,-9.659344690914159,-2.4760920077739605,-1.2422228178421548,-8.870393629552193,-14.49933003816998,-10.338173296607945,-1.2845895027401575,2.4251633161194768,-1.5137660306603244,-6.923926669992714,-10.536132905346513,-12.191544892963998,-9.504358314682259,-6.420966674224523,-11.294376453913493,-16.551059191853387,-10.224997288090815,-3.8813982019210584,-8.33574682691414,-9.829633009206546,-4.9148109897403565,-5.348974046601722,-4.909903514127112,-1.3796462112210506,-10.276061810224462,-23.52806746813706,-23.708474673136593,-21.167502017167784,-20.51640584016319,-12.61563265637107,-9.069054925178705,-16.673544404072103,-18.31838309236761,-12.27221853996788,-8.051287237996508,3.3154334285930593,24.14946174395804,35.03912775625687,27.819005758047616,12.530325882111907,-6.080022660218535,-24.28847943415039,-30.642523729001944,-27.270004170303608,-29.279255445404665,-37.18658790802187,-43.442849023480505,-45.81708801420159,-42.36771065747256,-46.754561062499675,-85.84263411046787,-148.4080733480672,-136.7255208449341,77.84285833866386,408.2741416051965,484.58815170257196,168.55908722258772,-142.86891139856905,-146.94064188463972,-60.340586051759566,-83.01258825100066,-102.69059141340256,-67.95351310199224,-55.439422328157534,-52.406047725669644,-28.910234246121014,-16.52150429014693,-16.505764547630292,-10.201929094969023,-6.132433033568143,-5.288820073404747,-0.7868147703753579,0.7817131598876141,-4.912308068617447,-13.743833549362398,-18.77595133658015,-15.306036802778726,-9.963068613451615,-9.455524472644921,-9.352916163318763,-8.174011715818235,-7.139607250443824,0.09432562692003321,13.719998823849808,24.529498767969216,30.916680740390746,36.23022134955351,41.04072011013058,48.484918272698636,57.679541560009376,57.29614804465992,41.09875843221024,17.143107867189464,-4.606496425161211,-22.023899266814354,-35.69253377965056,-44.049147131181584,-48.94702566928996,-53.741837617795355,-53.19719419309839,-44.02968310463874,-35.10452855975393,-28.584073072297986,-18.813446217355114,-13.619167304186291,-18.47129873897307,-18.55077143762215,-8.59679339137601,-3.99291023373668,-8.840162955475023,-12.486554161548021,-11.906629211047399,-9.105435425027313,-3.995610563374168,-1.1527949248880311,-3.682795108131348,-6.117728738898862,-5.494775253474016,-1.7209996856301402,6.508088827807843,9.797012244252034,1.5113217775443566,-3.1678415587241915,0.9522636320098492,1.4635006715831196,3.4355800475275906,4.0912970037358924,-20.96281631837035,-52.57000325682358,-48.431266590027505,-26.38691465585891,-20.321089732113357,-20.163984034255925,-18.15843675978772,-19.896803603330497,-14.950870802257523,-5.000338494299257,-7.1913725552901155,-16.07615263426699,-18.763755859929546,-17.206478524483767,-11.659587833751093,-3.6899113789110736,-3.3358988620648056,-9.047057217529346,-9.83361079647296,-7.570584944854335,-9.622463900752066,-11.637323216493595,-7.548171842445349,-3.632491103508112,-6.348936530606789,-9.269246769057212,-7.254148167631151,-4.760580962107834,-3.171963760047973,-4.68209704376919,-16.101776347985396,-28.424997124837226,-24.58321857171842,-8.289447546710484,8.552765755492475,21.770011180558328,22.77233724038599,8.085247201318525,-7.823014693626163,-14.983978568585913,-19.390266028657727,-25.56406517827068,-31.92178616233148,-41.31907449428716,-54.10342350888118,-59.7494582675365,-63.11213663844819,-83.7439078552907,-112.20957621609307,-129.31255398506758,-95.6589413661284,102.21646616474611,422.0024557796863,499.20337608161384,179.59574886960036,-133.11634553696854,-144.59934789480525,-72.88917373106159,-89.40865752882115,-90.6364991050942,-58.71648250708223,-57.25656566861653,-52.41688518116767,-27.80778927170777,-18.106600326467813,-9.235440634895138,8.881365339083072,10.61487078542335,8.939620573253633,19.126643032674664,4.767755873359494,-34.63623990105413,-43.4898420700715,-25.63528532809668,-31.45209857449164,-47.080276963780406,-36.01299761281385,-18.287381080891535,-16.71566797746123,-16.223851422604586,-5.838539819096897,6.444393356369312,14.340269391141724,22.60050948874691,36.65166165161526,49.78246649131531,57.12409601056697,62.310020920775436,60.19861233993119,48.99204841361921,37.668878338909934,20.91400888501934,-6.494128967449646,-31.043233310509127,-48.74775194603254,-62.98590305876331,-67.66104084049567,-67.60539827090008,-68.67611604642181,-60.5486832651838,-46.35989653122317,-37.7725292651794,-28.01271663723588,-15.891371417923565,-10.567560636648842,-7.505579320697439,-3.4099071124272697,-2.238020252756627,-0.13941168621056477,2.0686828038651797,0.11565189172427282,-0.7464920482149964,-3.2603288501548917,-12.979959600661125,-17.866634639269307,-13.165633570523752,-11.652908663106388,-15.215987506944405,-16.941695528656247,-16.024776001033782,-12.45704548629288,-9.652750336426116,-13.07279960109441,-18.21170643747395,-17.72881270461272,-11.829762202418099,-5.8460380266422725,-6.382828549309426,-10.821051834419197,-8.796975602174307,-4.043470905691599,-6.697229212108223,-8.539180764413967,-2.6659559234760835,-1.3031010660661977,-3.160950642283236,8.36871867143296,21.57582736480303,15.956870642073783,5.793041387744331,-2.6596484286425337,-30.265273048940415,-56.53883718759201,-43.32276463672025,-20.468579547600896,-26.425205087332895,-34.98874591393908,-26.78796314955006,-19.94647703979789,-10.055776242668593,12.944668995243813,27.822269718601177,24.06323653057673,16.461589822587765,7.430831617895276,-7.848214344987273,-19.501910835026933,-22.2745167234609,-25.401598420129698,-31.58761145833936,-36.66454186547797,-42.18090042290089,-54.10934403882789,-79.04095348538893,-110.87087000659758,-136.06236439295006,-131.67931933517104,1.5138712500566243,314.86575338006935,528.448652474024,323.263522010752,-61.728565719122585,-175.4573036290306,-81.96179862588849,-66.13245675843862,-96.5161895126019,-77.25800101970945,-65.31731066789362,-63.544961244424165,-34.82373747955335,-16.154760004978744,-19.557289537390723,-15.94534014064274,-11.404254607576682,-11.396309333257935,-4.562883248385274,-2.006826261629687,-10.509081936653198,-13.171312974989615,-9.321542783437021,-11.216089626361,-10.885026151998167,-3.9506132203761224,-5.973600178831559,-12.457058778346804,-4.406640923165924,8.507393888372958,13.262544593854244,20.667945191117532,32.36038434850242,39.33843255490858,46.155239082974,55.45652424295218,59.69156195581516,54.77369361918114,41.309291168392456,23.246274480639304,2.0562286045601574,-22.479477810902452,-39.71970456182463,-47.88594987494618,-61.905079965428065,-73.22109378894785,-63.2060766928596,-45.42134612067061,-33.72045013047706,-23.232943798442587,-16.994164446516812,-13.03500390936798,-2.3408311283581718,9.760131133446498,20.714846520842926,22.52352436806693,-5.130759978413153,-35.51016972349857,-23.603927557600993,-0.04356637113613715,-9.555305030488775,-27.8917140450968,-30.874157823206737,-31.15412271651432,-28.35897853157261,-18.15408195718848,-13.496799575767362,-18.056135914582587,-22.76401229296753,-21.456463730640383,-13.444031611908407,-6.5031460048497784,-7.338526085695179,-11.033155078412264,-13.222004477277459,-14.811256902211731,-13.970234514575289,-9.956774236217953,-6.900464775209123,-7.8673143351197865,-10.294191707766295,-9.617530169830228,-7.057662265488876,-5.894282407253218,-4.971661304521099,-5.72893459228051,-9.579280308588668,-9.802874471537951,-5.824905139610603,-6.157468481934089,-9.07527837320077,-9.14717857483527,-11.337081581753623,-14.951139906915735,-9.863613028440767,-0.48577926361361357,-2.0085233958907907,-10.846919500689918,-12.106076049939777,-10.268188192009973,-15.769370281919485,-18.60820157073063,-11.486129364635122,-5.780915906401745,-0.9355819826033969,13.964135901894712,26.999708764926986,21.294243604127388,4.497862627851141,-10.616908573159748,-21.210292288568372,-26.47282927988479,-29.379758751099892,-33.44238144426646,-40.080210310929104,-52.3023157105616,-61.90728929757536,-62.06782637028715,-72.35860963924102,-104.30336569578762,-132.14025113452055,-84.99507567896757,132.90331445678532,433.99437576054623,477.8933801433695,162.8262386539498,-126.59725094698473,-136.06265241976743,-71.90205775487874,-87.70609027986899,-87.74761771604227,-58.985310433091385,-60.115389153896295,-51.93775655525226,-19.68715405411848,-6.794124580437305,-0.10181205687196737,10.464049796846924,-10.200982281447494,-41.9914281072295,-39.14840017642269,-23.00263499996706,-22.281249857580693,-22.837187582361068,-19.379306991670717,-19.55498865534078,-17.130846556177644,-9.69536109859116,-3.2094766719077565,-0.5443354483139711,-4.052667110496516,-7.758897274963935,0.24764136870121267,16.484526846565142,28.535750358194363,35.107952400646916,41.549638073256595,48.28622774730938,51.994833000800085,51.840182977390896,46.420895244485564,29.94845806972233,4.027134059643297,-20.996955988045038,-41.677342627710985,-56.21276672546395,-58.503942549743996,-53.520107825208,-49.498822999972646,-41.71626888884134,-29.318499136161563,-21.208237687891774,-18.867850412044604,-18.832768488104552,-18.889174755162678,-15.59138725219863,-11.567434866826424,-11.574499452879007,-11.091012959846402,-8.42670624578329,-9.591530838954665,-11.90525831014434,-9.444212436115972,-8.170706396471047,-12.446325949637298,-13.395712122925573,-6.80464992541809,-1.5186966231718593,-0.3938935539606092,2.4452454014286324,6.1402902165855675,9.260475269048156,11.92772196796561,5.702444933983749,-3.106737682753657,2.7481601759875183,0.03167363340545393,-35.008788268320444,-60.52419009872522,-47.77811019041806,-34.51169082732441,-35.14013336464346,-27.179613028239622,-17.09862741232157,-14.188336678092519,-7.542071922416387,-3.2321096047731217,-8.60811184790721,-10.933505591466904,-8.183234611518099,-8.072733157793134,-6.165264286534153,-1.0429059936198684,-2.186365979009441,-10.7276350015679,-14.811313274845332,-8.807063150101676,-4.027966725116748,-8.61168173364166,-13.48383202569854,-13.51888930726583,-14.123932321763863,-12.89842511257514,-8.363078494454996,-9.51255868491235,-12.61778845669815,-3.427993920427461,12.550721759373006,19.593132074133408,17.261639142606214,9.159831936516403,-6.45028848043092,-21.680553625548377,-26.770283134124192,-28.747378856435432,-33.557548624863394,-38.00612339301556,-49.38251778515254,-64.43975808341553,-64.59564675055364,-65.86079335779999,-89.86454172241402,-118.26534489243254,-118.23366780080805,6.946862892963182,315.04514355425295,520.8627082700607,301.34037621569985,-75.24593117568718,-161.8549867706598,-71.09010649058106,-75.83425228950655,-97.11716013930112,-56.67831725101055,-45.272911424853746,-55.69808841769924,-37.18286592505302,-21.58908660830263,-18.002371519005948,-12.842339688796425,-20.179606362144575,-28.726713867400694,-20.901068733063585,-14.577204672741988,-15.034537759036072,-7.891123074397367,-1.200610432301227,-5.471893463362267,-5.941118313774903,4.514255965716807,10.307182141520714,7.979759466766269,2.816816632448681,-14.42827916799277,-33.05400918532975,-21.30115811155454,9.755384254105632,25.29329711187628,30.919511002948997,41.19371659362064,46.74708652311793,49.38519735964682,56.56376528084148,51.57669325198782,23.503999464422428,-10.16148951266358,-34.362044487416334,-49.81662076031289,-56.21869950197299,-54.2405140635218,-52.173361165523986,-52.7662138355885,-50.494626644955304,-43.997547174583154,-36.85239849651471,-33.36156372377738,-33.791843877064196,-29.371081869876313,-17.199995622261145,-8.614756233115308,-6.712730364128852,-4.210428745091043,-3.1342459596196974,-6.333331123450385,-8.091415010886529,-5.943787498171261,-2.1047392485665597,-1.2984289677470642,-8.196043677485406,-14.905773366532777,-11.867392211970088,-6.753514827685187,-7.061787720331505,-8.834386981011505,-11.439887283112235,-14.500797120533829,-13.107136064604113,-8.252222189446357,-2.788685682138695,2.003210864760824,0.970445674850513,-2.958896513648263,0.9368777992564823,6.199153588091285,-3.712877985996574,-23.39551392084322,-31.88503915389769,-25.12144287520414,-16.221098890249632,-10.128969951393326,-4.703710002878189,-6.01468933578321,-13.430517075858095,-13.093382584638679,-5.486245361393173,-2.112830793094947,-0.5561369597743351,0.9244655002900899,-3.420012409021913,-5.773301554742545,2.8331164788147607,16.80475794148712,28.791027396316956,25.8664245078185,1.0454803568113604,-19.606348028613052,-20.278318467354822,-24.51687546686361,-34.84140062140475,-34.29596256513801,-36.31386194555372,-44.76315221891704,-42.785961467817046,-42.20712104107661,-52.234576691272125,-61.83518343724709,-81.70373485318734,-118.47080006393404,-137.32103757242518,-45.91834480453507,234.50213668993842,508.8893634940802,410.715116388608,24.84742972353563,-169.85266462437858,-96.49673574786713,-57.506365387479896,-94.78032870305674,-82.16832525258596,-59.25344240649673,-62.00799782352249,-43.550164727395384,-20.8123553545827,-21.08673171775816,-20.61458948242946,-14.560644479967458,-11.119216838357087,-5.732484344782318,-3.1409398049968296,-4.873045386239486,-5.142684357288438,-6.941509455112964,-8.122946959144947,-3.937585430429646,-2.1311270050613054,-5.195489174104915,-3.930917906240553,4.49069647803929,12.348155078021978,11.024675129961215,5.349295724802469,9.937213642479609,23.650719926493274,35.353908525048304,45.88290530154335,54.5887246897729,55.38808779888965,51.40467848420279,40.06704367830341,13.836090134928128,-14.289002370072916,-31.472790680623888,-46.112190386791525,-59.85238869157108,-64.22667528854731,-60.9280287573163,-52.00391603250639,-37.83547116164121,-26.050375257578327,-18.355411371721576,-10.538796423070764,-2.229588419120631,8.394245144565314,11.517791959281361,-10.054731695216873,-35.45004804343988,-29.36904946017161,-9.779559438388443,-9.548947114048712,-15.521595237058996,-13.660974326047974,-18.712289745892498,-27.50716546665792,-22.83016589817405,-14.739888536160215,-16.948875481261815,-19.47133729356141,-16.026445010946524,-13.510501246435581,-12.944006703418161,-13.22182874467974,-14.443477051903628,-11.255061646085295,-5.574009033076688,-6.988884257004528,-12.042209253107906,-12.293423492807705,-10.513063663993528,-9.059767002551354,-6.859409221407798,-7.912293484447368,-12.00792385227053,-11.935355397165694,-7.408103345110177,-5.551170397844896,-8.82165273348545,-10.825280251759377,-6.6855858481556005,-3.2757301842343587,-5.309186574100384,-3.982556066863129,1.4480303816707583,-0.16021138903121823,-5.95311981090871,-8.311187917170145,-14.553177572972544,-25.203878895277434,-27.232168187426687,-20.898916904165556,-17.946294697259614,-20.334907878300534,-21.475579098274626,-17.712497389968334,-12.938077958584397,-11.001722476718914,-5.807463145062988,7.0820734054497105,18.31253517708908,20.162544465389985,15.99993119103548,6.850149254897637,-9.1279266418405,-25.786112104784433,-35.65920816240316,-38.66064484855494,-39.316896487049284,-44.90947002824449,-55.24786842437521,-60.78028287346144,-67.16306539530245,-87.53520786125104,-115.0316378395998,-119.22818312640035,-8.170699870234003,283.0139362357755,525.1670769265609,380.1006483280914,0.185096184832787,-152.15950985477141,-71.68038266102864,-71.6535568199171,-141.79244823727151,-119.365555944093,-70.27871881210328,-72.28484647121186,-65.02524905994623,-37.776604010655035,-30.24503753706398,-25.211162569160194,-9.835117537351227,-7.653570658356635,-15.699199835628598,-14.172827567288401,-7.880094570324754,-6.435860221762262,-6.240402996212543,-6.646450131852653,-10.314211078939653,-12.480469291758178,-9.187990772367476,-3.5661744707343024,-0.020423595827490537,-0.5495594874886622,0.32528072768610916,11.316616203081168,28.047320506739126,38.35661381587991,40.54917490471526,41.657985720574366,47.7725982682677,54.61646161815648,47.22943336323826,24.757426208476062,3.567878151229591,-14.712859451850232,-37.23599608141098,-54.38554991136086,-59.493021027953645,-61.01483160059813,-59.98254063032374,-51.695744060970945,-39.60419111187341,-28.77097419675445,-22.120538918132066,-18.194782776984603,-11.600276454634361,-8.283832968087726,-16.000207297047517,-21.134089464727055,-13.067567539692352,-6.231909097496704,-9.746749274617432,-14.316868505879288,-13.581437078018986,-9.107761150778302,-6.28230481637809,-7.472230697134691,-4.774287342140607,0.4076941536741394,-6.334203247837674,-18.696134768948106,-19.191471704398126,-14.153563492955314,-13.858171435498083,-13.343498208035804,-12.222886977801878,-13.303947475856681,-11.418603039821711,-5.49388108696391,-2.1035199360398096,-4.38975803039726,-6.959074222940782,-3.0576138754585003,4.656065916391334,11.671125519996057,14.966395027070218,-0.5757577448019227,-36.42819467927684,-55.840602057708125,-40.24457300309502,-21.783292447224184,-21.640905916996566,-23.762208491357164,-19.037099648403867,-15.865937270319534,-13.893522077340997,-5.952591755483457,1.0070049632425793,-4.011589509465161,-11.052987745436848,-6.882564185181039,-0.6817315506717883,-2.232349966284165,-8.012250295099914,-16.523223309027514,-21.411179868015672,-13.970633435219167,-8.04697041306293,-16.413029062860858,-18.765062427462308,-1.9196346189060058,10.481648964340035,6.4574026110137694,4.426629957573354,3.5475098253019652,-13.416416005057172,-33.71925566132384,-38.63965952496345,-37.06897440861428,-39.33641605626418,-46.476280946663564,-57.56657911835255,-67.172313106992,-78.55776732437081,-99.20816814254353,-123.36970514579485,-99.62732202216549,89.87107140901324,408.3492511622948,498.1432554700785,185.99224843713722,-129.86018914260956,-134.1954200944765,-57.31606201972857,-90.1525299937562,-103.78309364960538,-64.67372440385027,-57.83680499283357,-56.89531917393218,-35.337882008334745,-28.072696367285083,-26.047959175928526,-14.709313128407942,-11.256391879518882,-11.133996810248817,-6.203280088115449,-6.738181319445605,-9.319796957777047,-4.7803495868054,0.7660645778650537,0.3136436927685917,-3.183563334256995,-3.832167914538341,-2.931208317872975,-1.7475649149658428,7.718510746319727,15.940202237307822,-1.2509442644211832,-23.07021293140595,-6.418620523627197,30.02232107414999,42.44635918538931,41.30948250700928,51.08710220916168,59.557014752002885,51.612647455669034,31.40981724728413,6.687679344200221,-15.938736915992735,-34.333518160584475,-49.933459465538135,-56.498788925045986,-52.01576388580479,-50.81761820639245,-57.29850073582671,-56.78755365664909,-48.37736385769136,-44.975507789499986,-42.11459853905638,-30.263244308548444,-19.631075988526952,-18.47827280813899,-15.97348990520311,-6.464038184052619,-0.5091969484182819,-2.9532770619596356,-4.764450202189131,-1.4866395982830305,0.006557885106879269,-2.912295235424235,-5.223181104918279,-6.1630000230495625,-7.032621860589902,-6.691191414566131,-8.150228903734352,-11.851194837750185,-10.38524690389906,-6.350782351802419,-9.778912587198967,-15.09151649030532,-13.258097963907998,-10.067002314150194,-9.530213913495793,-8.692580931970149,-10.382100355541183,-14.542093068099753,-13.952006293891422,-8.83905505643819,-5.492356273108612,-6.608464804675352,-11.027384209627716,-12.56336464286926,-6.596502566166663,-0.29661973038538214,-2.399608361258009,-8.529861715624596,-7.867338852905094,-0.892742571669503,0.5144756545668479,-4.112636526502275,-2.9844112623676846,0.40654482403494185,-3.723353010026777,-4.9819220117691305,6.697870967719124,23.471089376119274,34.59051061292171,28.084621988716442,2.2331195412371976,-20.012458466081146,-26.901608651051596,-32.35675189346503,-38.547317447508036,-38.816156078500086,-37.83390950061131,-39.446068029657866,-44.90834567092726,-51.68188092870209,-57.749978067881585,-78.31149932829308,-112.98653032849137,-134.73896226872205,-106.25590695996068,67.59322777998851,386.4980691617298,525.312167475731,247.2886513570162,-105.08493645197919,-152.12083286107918,-64.31178433222433,-78.95399970151405,-101.20883182622961,-66.5236706674313,-54.849816679697156,-56.553442216826774,-34.57551367361337,-23.300852053782403,-25.765117108987425,-14.745454228678081,-2.7100769215574463,-4.042161835963478,-8.08821999182691,-9.626520041909803,-11.548413614094923,-11.227937284439847,-7.369387876026896,-6.102749656566079,-9.694360558829418,-11.41192717749425,-8.015537010805017,-3.0223788285195736,1.5436323718055416,5.631973901604687,11.470346735512633,22.42533422545322,34.05556479377665,38.85430279588114,40.05383054192626,45.54395853868314,53.976247959288685,57.054612113859406,49.63582834434215,32.661096857749726,9.664262464767155,-15.14391826160639,-37.10178478943271,-53.24968173092573,-61.6977291180983,-60.046801331105804,-50.73572307597212,-42.18579864823383,-35.95369292464411,-23.74941683741874,-7.890778991455932,-1.6494743350766328,1.6064732380364575,14.413190025430822,12.622379538202267,-21.326967033289108,-45.72463138482662,-31.37390368435544,-13.251294975893739,-13.929974367639812,-15.11546676851665,-14.965443277248532,-21.652036988342097,-23.0270316852044,-15.836512537742863,-13.714718109058872,-16.18666979487405,-14.149732988603176,-11.048456967056488,-11.170666191157473,-8.959402370425167,-4.687870930877761,-7.300541077773694,-13.796695026518723,-11.574418579847942,-2.506725506815112,0.3289062908561746,-5.8668580855020664,-12.698538772754876,-13.355655969550412,-8.180437077662994,-0.9378232892144887,3.4678895141932777,-1.8931028318372007,-15.049205879108229,-20.542812608008376,-13.293621022069516,-6.413803603012294,-7.255404741738218,-11.72745039392765,-14.534023466626913,-12.255507944182852,-8.356465526405398,-5.994218814271946,-1.5546704123558754,-0.815214781775726,-9.33281601161507,-13.190096736998417,-7.937750164311982,-6.730746312894295,-8.55380205897428,-9.19324323025387,-13.429790018173566,-14.133084953450687,-7.592926331045124,-5.617015769909152,-6.050493927370811,1.7767001370933837,13.327204219856394,19.842834092968708,17.800397365558396,9.64077347512577,1.2490111762401988,-9.742472681554325,-24.737742477628462,-34.663747902010385,-37.43233317372976,-41.32060921344036,-50.70832511940108,-60.130876846737955,-64.66438570572218,-75.5501163239553,-100.8734754946313,-118.24800465586561,-61.0713274218311,159.84845598996236,455.3029684725683,482.3090054488205,147.2245890838929,-132.44832498278072,-114.28711934747247,-67.41394712274565,-130.81366159400238,-136.1051876776512,-79.81362843839082,-71.50358503833978,-69.1803795481785,-41.275609494748196,-32.79507270936889,-28.338623839327568,-7.53329757546236,0.886563315523901,-3.555287636970192,-3.2123996365062695,-2.7821792717358793,-1.9326990727413005,3.1783196418717274,1.630216314635529,-11.718610227118791,-24.521870273005835,-25.14090258927548,-17.061527421395738,-10.64530021725218,-7.471078937728331,-3.043881582361296,2.5575657674263264,9.32530835127903,22.478859595713924,40.82675818063619,51.74479765937399,50.811268806477926,49.871221544232235,52.614918762529854,47.09365420495373,29.735655098370753,7.905422283247724,-15.367867199366957,-35.08003794216251,-43.08931531884903,-44.98374520018744,-50.40082510518563,-53.51256635300459,-50.48285231816682,-49.25198574317159,-45.1741502389738,-29.841325525887353,-17.578154124559802,-16.65181735249782,-11.936343133567483,-6.43434066576474,-16.07813324037834,-24.95949819876939,-14.626863710154382,-3.4306746431032806,-7.106861055401367,-11.693189621297847,-6.948607795101228,-1.1802495679695113,-1.0610658600875595,-3.209085504235901,-3.772147006136315,-5.890104952752843,-14.373175799219943,-25.812952638092305,-29.518971969754112,-21.07142133724733,-12.846618480702194,-16.375425418566262,-18.12520200844704,-6.23600533403922,-0.026646630249587133,-7.153703462201577,-3.8855069824614397,7.984654819121772,6.543154173037895,5.29766271108398,13.25375709114818,-1.2790673859647654,-38.52558966178958,-52.22341414272045,-33.71653104362553,-19.57712264129684,-24.287738652840304,-29.724654340296258,-25.151725865847823,-20.487475765551952,-20.435423481939676,-14.677162365636939,-5.861694925597966,-9.230635156949404,-19.86024995769686,-22.190465201399483,-17.089143791363327,-12.266396936941053,-10.534698744131184,-12.002410965733958,-11.654954113324923,-2.5054391965110803,13.571413265027324,23.657244064207806,18.768430762749535,6.280897264146947,-6.048614688302919,-21.546157453639605,-36.55068866889681,-40.095225213784374,-37.57852311789302,-44.31360607293453,-54.25494575562831,-53.18418717579494,-59.88082648638079,-91.24119649479887,-122.91826065757076,-130.03482405787028,-39.10550177435759,243.55531674733015,508.33552845048786,370.3370643245836,-28.5949136535192,-179.9331962185854,-82.05737797284579,-66.63762150010086,-109.62888814537106,-75.52349782045422,-50.85431875339474,-61.83074789212307,-38.86877801736282,-18.15793886462245,-29.113631342917145,-31.275653049120645,-27.405170217658664,-28.254984801261777,-17.094986983908974,-7.502666945543464,-12.115204440592368,-14.828282802548493,-14.513997592229597,-15.571784451209101,-11.337535969640545,-6.3290421467161675,-4.9024569543219005,-2.637746800179511,-0.7484438916400444,4.711603391921685,18.506873137967556,31.918280840838023,41.39265432888727,42.652514892950165,25.16149264933073,11.47279072986016,29.003751275023376,49.61832073921343,43.71473619810164,28.30098665174431,12.86710909024644,-11.457467953005764,-36.27170093458298,-52.42235815607961,-63.195556007301285,-69.1519977413867,-68.74778266165568,-59.590133682342085,-44.36775086741948,-37.42615643412339,-39.497699496906804,-34.10751620964735,-23.04565946414141,-19.921767737974413,-20.803681788176945,-16.946123188431663,-11.68791333809967,-10.22513521347333,-8.680800766276526,-1.2762002694031942,4.1840307988292444,-1.0367110905126111,-6.038478230793622,-5.729364215019277,-13.039673625178587,-22.047804467177954,-17.268431313466934,-10.971876564002997,-14.175052674845542,-14.312080638931825,-10.625781297969151,-12.915936264713011,-13.410746599502737,-7.712314845213676,-7.727677960283216,-11.78948577956119,-8.1896655938265,-3.1743659047911343,-4.54895687474621,-4.334034768842592,-2.8258711303024135,-10.43666090874402,-20.42649302480425,-19.604054830157462,-13.977376486730172,-14.348064747516304,-17.082240632142188,-15.509283100857186,-11.434177060761968,-7.870804526647991,-4.839051096299112,-5.275640000496988,-10.115504775446567,-11.297973654412296,-7.236715107830765,-6.945457458506866,-6.563971676120458,4.069643382640073,17.323428028973215,24.372160485799444,26.850368268397688,22.084159872911442,12.751939648413215,2.0743669827499502,-27.832794519896854,-69.87019479273141,-76.99938166658194,-55.59805555632969,-57.68417093614481,-73.53604795824073,-76.64223802182988,-92.5253407129341,-124.46853164032974,-136.25854239591618,-62.86060888184588,187.65980741977225,487.2439189911201,460.8314247795384,92.6976212231499,-153.55861481869522,-111.35442760919206,-63.73895630203244,-100.64330866244843,-90.47710456734612,-56.51439842488024,-56.92322164667874,-45.02321454316973,-21.826164386484308,-22.199991254259366,-23.944196830649393,-15.289280770199706,-11.19890585493037,-8.054173937451125,-6.441488815152223,-12.30061573640928,-13.885284249210613,-8.056553514443463,-7.134811614687614,-10.536770304901214,-11.85945530705248,-13.858735823188757,-13.688369303329248,-3.6146859942777034,10.834104065869056,20.370103614287842,25.537640025585603,25.651856878142723,22.43147015018659,32.05024820335938,56.80005587914518,69.30949253364977,59.5364267545754,49.77276019698488,42.831344760994284,20.82902280814017,-8.247796830502505,-28.54378749803834,-46.870284873586485,-62.135493889483,-62.38276824756057,-57.5752300470877,-58.36276209738007,-55.0422231196107,-46.20056031653747,-39.14671259636739,-30.22206392787708,-17.858272434272543,-7.282676276885791,-1.1054727457371882,-1.7742015812747098,-4.319449822739287,1.4694827586769001,9.789953762020879,9.92717160491355,6.855303301686485,5.379806264157805,0.8877427139326919,-3.494019453901938,3.7542748636164305,15.768636942382958,2.6726757009490427,-36.367259162696136,-55.19835759039503,-38.949598454861345,-25.560282623953448,-24.055340742347553,-15.363530207989001,-10.534874935344071,-15.700251186261482,-10.8469829517987,-0.9465269917625818,-4.083311328691451,-12.20207153128576,-15.766712208275472,-16.856681407675968,-14.401553253097362,-10.720762773968154,-9.1581622670897,-7.264822843881184,-7.413795812597506,-9.783821515990848,-7.011975765181202,-3.242287519587098,-6.70762507177589,-10.244661201978335,-7.943595345147788,-4.984681904218384,-2.55149377417856,0.28504758655229345,1.5360774083961513,1.8622390388746233,-1.9160593225173308,-12.982978954072774,-20.219726894013313,-16.61928205341552,-12.908986352402685,-13.354951022441496,-12.71874234091791,-11.822260967163473,-9.90020402028089,-6.850439139583472,-9.00275969629595,-11.761614093784608,-8.410249362728607,-7.912449933825453,-10.308841585861735,-2.2842299950593787,12.522468595023518,20.036357836526797,17.425786547468462,8.202400208789138,-3.833357230397368,-14.360711168719124,-21.258174023433384,-27.563318244669787,-36.49794175406244,-42.47948138288239,-44.59300157475192,-52.46799099868213,-61.50786408158191,-67.6572437103609,-88.55599781382085,-121.74994346130578,-119.16675983009846,7.745073567046603,295.7821884011663,521.3019103155177,373.7322227552994,4.26201091847474,-143.3462899044766,-68.65930658534101,-73.13457562730893,-137.66366670034967,-111.70478723807861,-69.12303027449549,-71.9463980010168,-58.92139606745683,-35.88541718879688,-34.91695830459579,-27.482363484250893,-10.501694195123445,-6.822580971803156,-7.878952918921506,-6.341590130630852,-7.118483948661449,-4.780495172946489,-1.1188869193617794,-6.081629983065424,-13.908595139582935,-14.40065586160044,-12.056173250494728,-12.848850709585749,-11.459466891596925,-3.7574836139637213,5.735321157019982,14.952006514412684,25.884882166231364,36.261032548933855,42.008699925346036,42.39304770752078,41.881280319552246,47.270542580474995,52.604470854401725,42.19278902687445,18.385198459007775,-4.190454220684238,-23.864373677438685,-39.04554838288901,-43.98451474312561,-50.52201135099023,-65.12112879035259,-66.91586716061678,-51.34902735691293,-40.69303548426217,-36.55720027516801,-27.446905171903126,-21.941033607422586,-23.94211891355592,-19.99915818614293,-10.30252127364085,-6.325302938832934,-7.410451633589972,-8.558588896938389,-9.617157894792086,-9.571415809976202,-8.005816493319195,-6.1080338402020615,-4.219633957742829,-4.929460224334655,-9.626405364615866,-14.545916547330364,-18.51195284620135,-20.6413229556211,-15.42278130281833,-7.9226694438299745,-9.00611140023723,-10.67807961518843,-5.082593048174495,-3.1385679738450243,-3.6727836366620643,1.1146794147292631,-2.543177663547848,-12.967275001700674,-6.731656935110394,6.904632256368542,7.6935655772030245,1.7225158853347295,-14.202674019816207,-40.258236215802455,-45.05835393844413,-26.033137072755054,-17.620828485827516,-21.763535131140575,-21.544270656102867,-20.204669130890558,-17.254969214734235,-8.718437040210055,-4.454500346031448,-7.493153569988937,-10.001218741678766,-9.901131476575845,-7.120054000595015,-1.877683252090197,-0.5845831711277256,-9.051042541931,-21.240979795135743,-21.446999469499858,-7.967241460821107,-2.930598497297648,-16.820095493358338,-28.166080396051445,-19.48899626043853,-5.2124094686665075,-7.577996428917491,-17.528821844976072,-5.9324694725372495,18.883463713344348,19.94925130007823,2.676952252565492,-4.050229480845353,-8.559273725500944,-23.282916060854195,-35.33718852198992,-39.65786528984722,-41.46357767146717,-44.65905303228045,-53.0083238413205,-62.80384262721293,-75.54995922158663,-98.01017887208135,-125.54362244677226,-124.3888598803216,19.47608987215608,342.13532360610776,526.0264013827766,274.3560781276225,-101.6608613569488,-166.331189987304,-64.19465860082119,-71.99322553610423,-102.6788900805844,-72.3985052696178,-62.574151887563524,-61.653604780453584,-32.582311971749824,-25.300308715180595,-36.36039770828708,-21.83267669353888,-5.3112900576395745,-6.050413543581648,1.377913880542426,11.379733856713123,1.6639644234726276,-10.755199499999861,-8.138091277892961,-1.447811191516184,0.21344038916566532,-11.936138419795121,-42.174221274919304,-58.28772896885916,-37.26800514554937,-12.034450988759287,-4.842568829592912,4.87084217632863,21.284177352239745,32.03350850850971,44.02711914585889,60.85020384324793,71.38385334167248,73.24124420193823,66.14559510475267,43.64067472928641,14.213279533156967,-6.642950481491219,-26.395505008815086,-53.71467527316627,-71.3716102702737,-73.12791591057206,-76.6148821754597,-78.91317221578117,-67.83773158936991,-57.83927957701919,-54.66375588839665,-41.64611884096976,-23.643729894582087,-15.891630049148205,-12.012838460397546,-8.762813787416533,-12.327603954073822,-13.85239184740265,-6.316839136943649,-1.0461151177049395,-3.4553381167254535,-7.0095854025354605,-9.922492564690806,-11.33362707200019,-7.85638640311501,-4.514205409375744,-7.385356479446333,-11.26367669314143,