ECG,28.944267001835655,-509.1311390159854,-638.4193033374702,-414.82524447543386,-266.8220216009855,-287.2745465236084,-219.81986924180364,-99.37443446001944,-79.16669898280341,-56.18563400958088,14.541837617759136,38.39845340874386,21.563979732260194,-0.6899810587282147,-16.102983426043306,8.08598293895676,33.500893160831,2.2665656162322634,-34.85022976849421,-20.74940357199035,2.7374377491704074,-8.52881951461369,-21.579126722087643,-5.2874971154356,15.76752741759441,27.862392953020503,39.002410089763686,37.949236732002895,30.389782088506124,35.2132846141023,36.69470814296511,28.600209489401028,28.6736316244056,27.802400263343632,14.171994579854587,-9.661352283996024,-48.75441378264399,-77.70155210156011,-61.65218544298424,-34.83867257462721,-35.10406408160222,-34.91235611005658,-27.36707644670015,-35.45179934309705,-28.807859136647906,9.968909493247267,22.299213473967754,-4.770835613491354,-8.65247676167117,11.097534207568822,5.733080046402463,-4.654034229428264,11.744808354657227,19.067521764653165,1.9595864621659675,0.24556087486028755,12.303518446261094,6.790800916316735,4.414581382260857,21.55515801088027,19.59005289636143,-12.284176105854577,-40.97945951994912,-54.88193642465829,-55.92205529553779,-51.832570384155915,-62.3208357438353,-79.12409934153669,-86.35799043199675,-94.73678312908746,-111.7090199381598,-105.6888944408355,70.52542242637108,483.6654027670076,701.8578141346029,305.2578456255645,-220.50554241695835,-240.2006129358918,-55.2026829675026,-86.79586869516592,-120.37385232387874,-51.33811554591803,-59.99653235768617,-70.07599902759169,-0.5250409608527367,9.204892106632524,-31.351978051447528,-13.96426163201088,8.724251930736747,-12.314250203715897,-20.49602778299348,2.8496638249192277,8.199968050531439,-27.412496183081714,-47.464210257776,-8.510671423549434,22.639529974248454,-0.6498688278108068,-4.723759650407935,41.330969359751215,63.34523544935588,41.535987676223726,31.683720932708873,41.98343003291294,35.43090587693514,12.292412263642484,0.07296595235085013,-1.3584313999063333,-7.212496096756996,-13.078233708050316,-15.8338364939051,-31.149241313459022,-58.14235066456642,-68.2025294381214,-49.9021089150701,-27.9960993610136,-21.932909766404844,-20.188354102954165,-13.231106834417165,-9.383072054632713,-7.02249773852963,-0.10856187679969587,7.716143753552223,20.22245786874656,21.402088508192804,-15.298664091099353,-33.699965781567265,15.404961158137565,31.080639830773485,-31.29646471068124,-38.9292537269361,17.943337002157666,13.392173901229093,-15.942577303991518,4.194345516952239,10.65207095319018,-1.9510073459221493,10.8258487647594,-1.91411138307779,-42.75422883329552,-41.90760723118163,-21.86740847032114,-32.07262940977032,-50.42153548319578,-56.87406417027992,-61.50974950805272,-65.91777055444709,-83.13654156418946,-128.81614554963352,-53.96506670565924,350.24898747027777,748.8460240499907,491.40421541077376,-152.1983204541959,-303.5477322146494,-58.420586144667816,-57.09602331274648,-158.61483232366277,-76.34545571063553,-55.383596003962055,-134.26822121647047,-86.16657931563162,9.205445575853474,18.18534207245424,-0.7229740474554092,-15.7668972978597,-19.178664780656266,-7.962942167709759,-22.600392483619412,-25.92879459104757,9.439308268312658,-10.445417562407101,-78.99642329034786,-68.49377496075108,8.470625988356709,33.87453661752648,-2.3983587793190644,-20.489914605436805,4.053855771846203,27.633126174662504,41.1377283953582,60.055951462344495,50.074635841265064,10.694643705406744,6.637748762884451,22.38674726496621,-2.7126889630744397,-27.262890093573336,-12.728087570692466,-22.99280599991337,-69.4997314796615,-66.14589143839385,-12.076794183365259,-4.132243035091449,-45.892990182368216,-55.02995752322194,-31.660012996375187,-17.992174460433294,5.23295955049938,27.546754779149047,-1.6837863280088499,-41.87230906401167,-28.3115464976514,4.927390140346693,14.773217815573148,9.505566642263886,-9.903085511716384,-35.25857578054623,-36.31954972589256,-8.923879604733402,19.446850570954005,14.482689491643573,-22.34041038457039,-37.118888143920856,-14.285385428110928,2.643524325606986,10.097446926114166,15.38997086771683,-11.660241598244504,-42.20064542333356,-12.918261958208008,41.42828810394863,42.59433148544409,-9.599938931522264,-51.27271709638755,-46.14171324310627,-30.04770950580036,-25.7258487584961,-10.51795137434356,-22.066905542032103,-78.74161075047542,-89.13991340326686,-68.68791598145779,-114.68402708936645,-156.47766761889866,-125.50266468479171,5.419876963711232,376.83567110476565,731.8004383057844,467.753951034781,-155.61978372894754,-296.15954433863453,-70.51192204417957,-82.28353768760641,-173.57530208973793,-76.41889208672464,-31.860035471444263,-97.6988725929595,-78.61038740439281,-26.504246933717802,-29.592907036757,-11.057424184824821,32.00322123217255,39.97697005087916,20.731402500296824,-3.5846430236630527,-2.0001277325767455,34.42216037535912,26.470630257561513,-49.88561474021143,-87.90248271803183,-52.691700246827885,-24.286747966750685,-20.38610446587675,-3.384887875942939,19.016483396558755,31.423894445724002,39.92986619656206,47.94756550198818,59.390715771736794,65.04042135672347,47.91968754875299,20.234190764924115,-2.3258231211917533,-21.625000762723666,-27.810225407751773,-23.557639844121404,-36.15981060370546,-52.400913285800954,-37.45131410770965,-16.628594447600886,-20.209107354005276,-13.238004815257302,11.557477410817707,5.0160576031935245,-14.357828902120428,1.443441975635861,8.47864023076571,-15.46821421825172,-7.911039967275922,17.375027087221234,4.486582493817869,-3.5247613163232967,18.03607783733944,19.120076026955473,9.316424071205821,16.981941403107957,10.797499851279564,-9.359567099301394,-12.512878554154732,-9.445848189339362,-11.883489633158128,-12.24824992542293,-11.101709007048765,-5.930643661876592,-0.892254460452625,-6.3464488190004795,-8.548559631624698,2.8155438975334626,13.01054720089979,12.58823759315609,2.3471798049013457,-6.6534464742498,2.7283269537183816,19.172042864590967,22.759845190662382,25.148446220215725,31.71780990344792,23.374087715898533,2.4316714911569646,-12.543824963867088,-24.907225960852635,-39.92732075423581,-48.446429909553856,-57.9566775314453,-74.67114163517572,-75.42325240501945,-65.21806676884742,-78.4163455529976,-114.93276500579972,-124.76589952992413,60.60746770893047,530.1991431342503,817.333800273566,408.27025518513426,-210.52562531324264,-273.91546409016246,-54.555720986419324,-89.67788802047588,-169.29264879094825,-87.44241218990679,-55.248567091974365,-82.35354580292223,-38.36567568507183,3.2004239289680783,1.2087477817921801,10.40588908942986,16.36175104838115,12.328329145316758,14.24905677428093,-0.7145532932032239,-22.679516762293183,-25.917605462587247,-27.602862847585424,-26.86328035774708,-10.582240419789663,-1.0356088191795205,-3.6679488746880597,1.0416706776675664,10.95556120201518,25.695509582259945,50.211305055102585,58.98957273196744,37.53856319531077,17.86280515071768,18.195305322404824,20.007039392894566,20.14501238202437,24.523378131222827,11.995244034847616,-21.89939896956245,-40.41124797752706,-29.314379773217848,-9.641337981548244,4.119759451872481,-5.195173345698439,-41.3138930464837,-58.956406466266806,-34.08579002920929,-7.6506081386510125,-3.527247153922536,-5.9819076232632185,-8.759810533097298,-5.784696413162786,12.017695637142657,30.762474217527306,31.63025295808639,15.00433625692001,-2.082954489254563,-3.1471858739777456,8.33820045925045,23.940915664060277,32.68878888241163,3.5708713497129807,-54.54693414243063,-73.35998431430555,-42.37165864969114,-21.80768642508523,-24.805950591423567,-22.127919792865356,-12.2828726239441,-5.872612049889765,-3.381696506796543,0.44015987714983495,10.785622303398007,16.420561066597507,9.223518192974216,8.762839355431819,20.199168671256967,18.9587846006403,4.634368521192527,0.16321007459364345,1.7569321361499783,-5.767018922653607,-11.988765293469093,-8.770589584774005,-11.427192647711951,-20.262985708803843,-15.437709980531212,1.916828351764909,16.32404583199063,24.112710787378035,24.99720561406028,26.618928102825343,39.08063390357245,42.48987901418667,21.163918187596394,-2.437086047015514,-26.951614020877063,-66.38210325647889,-91.57898006117854,-89.28384402060655,-83.63731347043111,-78.37317274640273,-93.0163335699394,-135.27188079809392,-152.3309534398487,-127.61404759300673,34.61576671922222,485.6486758209709,844.0468743004193,503.0049044403113,-155.18181892365038,-285.3367769820288,-68.57476120086073,-90.47431112342534,-186.35789101190687,-111.63713438700943,-64.55984460045461,-83.87086006233022,-40.79734142050171,-7.629983314489849,-29.87491855684597,-23.736847785000702,1.9594924704575405,2.5630321069811846,3.8299474673779192,9.611402446031699,-2.0960561268384863,-13.825613440490603,-8.669165585697154,-2.3598743406741547,-2.319189691452885,-0.7920022116369827,-1.4412455428612976,-3.8153755509808613,7.661152521952257,29.291824088504608,39.42193189309825,40.89622153041734,51.303019702311865,63.764844681070905,64.93024406390522,66.50737346137797,71.37940769008054,48.69236193321916,-5.396725853126113,-44.6425598953459,-50.78756660874206,-49.0116167002965,-43.23546734239518,-28.22591404113177,-23.14588194613127,-29.915728020927595,-27.550989504125102,-17.426676941703747,-11.699451493219478,-9.431280222005537,-9.70310933078397,-8.062527866848857,3.707539683543786,17.841403636622644,24.545162238026904,25.400970969173606,14.318431104988406,-7.606437383790762,-13.640599202544514,2.8605763197686125,12.05665411854035,3.796869122379959,-4.3341705164017785,-9.599256948246573,-15.630268485015414,-13.507646271027026,-6.030918922422725,-6.919271094039251,-10.899089724876678,-4.608868703324872,6.010196477974642,5.236843140727317,-7.932329303281822,-18.30763790382725,-17.000515946495096,-11.73594909011147,-7.539339843403375,-1.4673274010526196,1.6617685317576072,-1.9121145605506147,-3.896747128001063,-0.9235214212244767,2.1031249486320944,3.958354976407159,2.7958658348571026,-2.5567812960964433,-4.962214433146011,-1.48942361564651,0.7341335240898168,0.40482909419335245,2.0508897104359916,1.5251921743453103,-4.375615194827045,-3.8868951931443947,8.968945087895555,21.900313671233967,28.339529246973406,27.404471967212785,12.955223546093618,-5.49268789637403,-15.387644131431717,-24.86440891331174,-36.18717193597797,-51.76895056673039,-78.95232182481439,-93.5861217141422,-93.2902223264406,-114.84100465642548,-145.1867798018258,-141.06526943182547,10.252444641337348,444.55226939628534,827.002216839529,557.5332628065073,-89.56979009425903,-279.1761464573452,-80.70414307189824,-73.55191052954973,-159.56623556054274,-86.34328982835765,-36.95586776470445,-76.03374872988408,-68.84292533694384,-47.087077123067395,-49.42620241087667,-30.59027624137726,-13.627403698676249,-12.893778987732556,-0.981814682694564,6.448712834936979,3.404528502427933,7.279983399031233,9.457321116699287,11.310884986512644,19.439350070202146,14.215709249121975,-4.041535222510343,-12.134306270453397,-10.092234965176244,-6.654311583562646,1.7344728498372621,14.488045800563714,23.112515875985515,24.13548819339355,24.061480237352328,29.066460760434968,33.4965766471803,26.95472449532159,7.604890007178517,-13.008805553407491,-19.63778491655726,-16.736113390005364,-21.444023271156112,-29.45639184163585,-27.442926206415844,-21.82021058024199,-17.998826227435806,-10.476577347645401,-5.612442484425914,-9.911795462855103,-12.246833354367462,-5.975999427321996,1.7150599500905899,7.294824792937694,11.703059352750563,13.348914524000739,11.560829816001629,6.077170608353976,-2.7418964545094817,-7.582820548651882,-4.151793480415201,-4.260737883323772,-13.711072106918923,-15.200438297992852,-2.8011820143340973,3.8601048362207484,-0.7263907863996368,-4.429648120203083,-5.411810179047671,-1.8208152313686776,9.586868848420773,17.365943604522837,17.750502436243345,20.333095975442056,24.585095301744815,31.908887610695153,43.152202010981675,42.16377347585016,28.096205946970414,6.441475406995263,-39.926426692042185,-83.8907881851207,-65.80708378284811,-19.672124757180978,-15.772235613906108,-26.504583274094163,-11.967431421543743,-0.9909839419180706,-3.0451515075802487,0.227367812574931,-4.954486509426516,-22.33493313519315,-28.39750930901552,-21.99260398295261,-9.980222836494246,9.910422501546941,24.013109502548634,22.502447239785077,15.434793099009994,8.096851112306325,2.465738765352409,-4.593571611152322,-24.56909032375274,-49.25540206206833,-66.65283610016829,-81.81865503093162,-90.96407032586693,-99.58525815019267,-126.80581532141551,-160.91597905353305,-130.83789381081576,125.21986993137565,602.4276111820604,791.2082237967572,323.873201086401,-225.16732963401043,-240.45452436760576,-68.06778320258604,-116.6967203208494,-154.95435132657332,-72.77798048368398,-64.94659877794484,-93.2589917422557,-54.796726500025045,-27.212192010966547,-28.645077601738485,-15.102180576164542,-11.366286282515796,-16.219726776750857,-3.748438960590482,6.508488664545192,4.033220838239155,-2.0506007116702722,-11.470103454121626,-12.781723969161858,-0.9016906655607089,7.876367014634178,9.601501115801124,10.303511616494351,10.645639974154818,19.077408084532294,39.81008441076091,54.69618542049936,44.599264532322515,16.74223951347458,1.488350433524925,13.17829145797948,26.8512826424945,21.669967630485672,8.880526481355144,-4.504386312279283,-19.66067335865253,-24.00161444001848,-16.68728289664577,-16.277985262793766,-25.148514555397092,-28.07802485848746,-18.797582835463103,-5.332628896463067,7.128874290848141,20.193991523264692,18.089560757182042,-11.785375599419393,-33.06680571625958,-15.029811408213025,12.024033874051193,19.302387369634477,10.194092354534984,-10.269451477940393,-23.29962016474454,-10.592434729268302,12.145641773900957,23.647481281077564,13.422780333561697,-16.24852954556487,-34.25950828167342,-23.059704245302786,-5.158650043421689,1.0873898265977253,-12.170568176882462,-38.992294358129016,-42.91499563684594,-18.282002566454032,-2.5994410307471654,4.71078123390153,21.953822102694517,29.701643231069284,22.645615520519193,28.377464846089065,48.04157597508932,43.5091928765763,-11.525687273092561,-77.35659648284256,-86.42594715287358,-50.23986576810819,-33.25558993929353,-38.05570398078038,-32.03990073780825,-22.004909794814434,-19.42236145409852,-13.27972601325251,-1.9494787793522939,4.035018831030975,0.0810582662232271,-7.016248630278554,-4.083824554312445,11.325983359310259,29.208725542182712,37.860185399890796,23.824444658353258,-7.668216956297858,-26.506125609203774,-29.085388518288926,-38.11291826326598,-49.67006088636393,-56.908503797908836,-68.61864280967305,-76.73011494601462,-87.76758868037257,-119.05092437023617,-147.87609559090578,-135.88689441644343,34.23366978672962,461.3222688559007,778.6067705507651,473.90194497084633,-117.64438933374163,-264.13074752684014,-91.09600894537094,-96.49531354195722,-164.06520093668993,-92.96890195099215,-52.02858958938706,-75.559958384596,-46.62955748673896,-16.41194488730607,-21.64060458351155,-7.123189186596191,6.141257353935501,-3.383968441433306,-1.3965156694742769,5.214108839893679,-0.11395353188081447,-2.088510963128714,-1.8800555934503775,-5.03249198413632,-2.309269751974898,3.89828097238256,7.8944641709228005,11.84852147883757,13.999926746082945,14.449120623943424,17.73206949336836,25.91098378741929,37.475399833914565,43.66981623174569,41.266630107004126,41.91091189214141,46.949939369760976,44.643966336837664,30.297059409490526,0.7337521432137359,-34.84960466014266,-47.67715647601396,-36.38232466253682,-28.341854960038333,-24.68654704763434,-13.650195092887625,-5.3332154209807605,-6.375765726174428,-8.37390532768518,-6.603030849756971,0.8098868694478023,10.146258575509385,6.360598595152447,-12.321272627767724,-21.99952993006196,-11.128019168638257,-0.975084131520978,-2.1152725999250936,3.029543027641583,14.164441633950418,12.656914832507473,3.502504021998317,-1.2828157924552883,-5.9355537401513665,-10.827323149113207,-13.644416111307065,-16.982152573958217,-18.004937995292558,-18.42431082204047,-21.511010604185564,-17.94201064281015,-9.43741616875949,-7.454035305840797,-6.073883548948228,-4.821452929726291,-12.30951163883267,-14.695460168134012,-4.228024024102904,0.6457420282211146,-3.5667683509400963,-6.1850289034461845,-6.3989435785058815,-1.6049328056242889,5.238802851887263,1.766695643569637,-5.880814241057285,-5.400424869682218,-2.4759318649929583,-0.0008379599909371649,5.691291131007131,6.595012979307248,-3.707008776764491,-14.372633166092355,-11.96204287963925,-0.4097557478491023,8.745201372124377,17.662343022709422,22.831447078545104,7.4356254284355705,-16.68885452099573,-25.69586201189324,-29.76239018010069,-41.627028112596825,-59.5583247802775,-80.16143821461847,-86.11706858005705,-81.87842182830697,-96.40579589328667,-122.15590330534883,-110.56936712788792,71.82043480178697,491.626342638144,746.6168542742641,390.1159634788247,-161.4957019647181,-239.9308147894198,-62.67176259180273,-86.41109689999581,-149.1115670318077,-87.08439662889305,-67.79205160607148,-88.66133098684952,-49.049529489782586,-23.414418457332065,-36.16613481265465,-20.062491251893825,-1.618630923618964,-17.16607414029346,-28.22933772111746,-15.341617318558649,1.2246457271218336,5.562267545512125,-7.288725463540763,-23.654925688386626,-20.98565255137816,-3.212139245152869,7.78258477861899,8.873340628478385,10.17330314328403,14.360318115533374,21.54665009034778,30.256177178122797,36.22438626322326,40.23124702889844,39.633263243005764,29.920939375954266,21.706357384235915,21.579128593941043,18.549111938356106,8.840762452676701,-5.699259124239678,-24.370941274969415,-31.783336229473335,-23.21706949921242,-21.78265912722033,-31.556484946039603,-34.41110530244683,-32.61914997645386,-31.425198166066945,-18.30348006151919,3.002603975512965,7.766891604297673,-8.585708643022055,-20.31349231912809,-9.228145727349805,8.336216731928388,12.522738584242308,13.295556661952721,18.978317755822545,12.382588878124821,-6.913422874912963,-10.233600649327624,4.440537946388467,2.8661342645937804,-20.957353611761864,-32.935518155212456,-22.03264799236144,-7.768804320436079,1.905102401215311,0.7035276342137564,-13.25249410997733,-9.87260066618793,14.081189376901033,12.502104578435532,-12.428036818799963,-19.105533584886956,-15.293785672842155,-15.487820598950334,-10.51957573863534,-14.534303867633877,-26.831126179253456,-22.488387983731357,-20.218117104316605,-33.218788508973915,-24.6982588129615,2.9474976696920177,10.130522978915218,3.930859176442837,3.3012857140769682,-2.6685862020638016,-11.598927499743741,-10.795494565811312,-11.395044879007783,-21.93989643017381,-30.79693383352156,-32.78147755138922,-32.98276648452544,-36.2198219641235,-49.50298943885117,-88.27562944019445,-149.55372236380848,-94.57489624096095,255.97981738992038,638.5887666388143,481.493157348398,-84.062261149589,-303.8194204155286,-109.65432558405675,-46.82368419599618,-133.84736312389455,-97.36890295347064,-48.4844810711481,-81.94378424316126,-68.70960905630768,-22.091792896302437,-9.959459651103955,4.244995403964319,6.3366006291995625,-17.655625750852444,-14.795040541274942,0.425193964885505,-6.207417440859104,-2.731347486213161,6.8016583920033415,-7.407238569542631,-16.552384003330303,-8.663650757431231,-11.385668472227286,-5.292684642436464,25.16715133696748,32.140253845665086,14.972411522897353,31.062753710558702,61.50977299774172,56.0162056107371,43.71346330718404,52.45773819757511,59.13203559233155,55.184524583435156,31.60924350265872,-16.079970354275687,-43.3167650339774,-42.52697369223571,-58.5734908821136,-70.05522689874252,-46.506183564283845,-32.79489960516041,-36.26073950161262,-21.149043545924044,-10.305912516331231,-13.758984872711693,2.1118638452831995,14.963878239939907,-0.19048358968575663,-2.750117971409069,12.4659681842147,9.662018492005064,2.5696767015061615,5.62733973003007,-4.587896886818092,-20.199394986631916,-17.711332198737107,-7.61576457342718,4.891423892312659,18.110506300432572,7.650333271952519,-11.577288247088333,2.664225891300421,21.397619187855607,7.168021633359439,1.0008752311918157,12.689405352049857,-2.136485213883285,-16.155468876617057,-1.221335511363744,-9.990931974482994,-26.950223011566543,5.878673186008909,26.373193113503866,-3.0005042099439283,-11.316857896681624,-15.139246824148948,-59.456645579805574,-79.02677683610742,-64.98243361157557,-70.07626182021261,-70.60028653324196,-77.08407069473184,-120.48577688697429,-138.1106048279384,-78.17075623933988,146.14705761853972,548.6864642864681,675.3600060782833,195.5907715423597,-285.57555463935194,-205.75025540713256,0.045341347358023754,-78.43857527774438,-170.51892484131514,-123.79212733898225,-94.60807708220678,-85.4609858091408,-43.658985861473134,-13.116727689378124,-4.87974631920131,-10.764323744941159,-26.07042622231492,-19.309495385921952,1.3757238167415728,-4.034749550026291,-29.57571395788995,-40.71001343779511,-25.048796507190673,-3.146868961153448,-0.08181977073208913,-13.892099535022975,-25.32802674077466,-13.920994310281715,20.34324479696787,42.73155569049561,36.71850144863799,24.672297204253724,18.334843227815732,24.612472370633387,49.592065916959434,62.34351969184924,40.007908360823635,6.149557237500483,-22.72362190697371,-44.91917314309848,-47.02131665911702,-30.581926040247563,-21.568963392207046,-37.644717368591,-60.78254272166792,-49.51311594937275,-3.8124801780154485,21.25616330661353,-0.8365390965960913,-35.89791298547861,-46.00604464757421,-25.925571395050447,1.1226830763666822,11.167925606044594,7.331750302249915,-1.1687183291718348,-16.484784234783483,-21.89584170139053,2.2728088471325076,26.108539638167407,10.038758709012534,-25.513444716196283,-36.750592589220986,-16.652695904511727,14.074462329028607,24.152645890648248,-3.3258226016946715,-33.17144037569335,-23.470596973234628,7.380471985836008,23.919941748991036,25.417544417786008,14.120061065214244,-18.57361546803205,-54.306395956866936,-56.04711853875264,-35.20150600608326,-39.639174070801964,-67.20192909299006,-92.69290810196722,-119.80343485704321,-135.29735900182183,-122.1875320619301,-8.818392549366592,339.84315845981104,681.9499656075724,473.37447373390125,-97.02874756360272,-263.99736535400854,-66.22957440410626,-66.396613585965,-173.18768530340168,-112.41892484072308,-53.30209899030868,-71.73214486452491,-58.33778398123023,-57.816093847491075,-68.21471799708468,-18.448895183813846,16.84025115050666,-5.540356632820664,-21.068265911323397,-24.11937451295019,-27.067589256307983,-17.38938224017178,-4.5701404337422815,12.866476929802406,16.166873941514233,-27.329152587558553,-55.42931039241953,-8.448947159074308,45.798212489124516,47.379240933614504,22.812024511781296,-0.04736027195309411,-3.2579132055927342,24.68820010446823,56.91653010512019,61.57295931257859,36.363097430233466,-0.9437415769440882,-24.933002310875136,-28.66043411187819,-27.197622777479715,-29.359263207571107,-38.18024651119466,-52.96046150902711,-56.9755749161492,-39.57770690358926,-18.800282627675962,-17.17575185279891,-28.680089044124323,-29.31229797446902,-18.42212381762703,-14.105611541957135,-9.506952058269258,11.584399089393699,29.527219662269452,18.10462900173934,3.285362481514154,30.701409798024144,71.9429827900861,54.475823387201345,-1.454161991653283,-17.239869429408387,-5.508428544645035,-13.651727765504122,-17.07824167423475,-9.745275550333897,-30.729465791416356,-50.968098104890935,-26.79869278365268,-7.328235293443424,-28.328027904735894,-46.10103057448085,-58.45888551973029,-87.56463095237373,-82.03080418249972,-43.991101285779706,-64.7766642008328,-127.04042852866385,-133.39028969861454,2.8001890100921685,371.50590023931113,714.5794949286346,485.24456407502015,-131.2272809666372,-317.3574150625791,-72.67443935374729,-35.292334964004745,-160.6803471499666,-104.65557434918526,-34.629002265877816,-80.5815752264771,-71.71149996379589,-25.343617879888313,-39.39753865565943,-37.23459995634486,-4.157919927375852,-11.470677448971959,-24.69181740953367,2.151425423271382,23.24002672052768,9.076227345858205,-1.7718611715830288,9.283037314150498,11.242423627094311,8.721730524957744,30.513722879814317,33.581565644121305,-6.458757523789116,-9.861691816436835,37.98231355013698,57.02582292124704,57.55771714757353,76.84932705244039,62.27743066611198,22.525262668318092,37.80584283348399,72.65327851005961,41.88736016079331,-27.167453090051925,-69.54039537608467,-83.9333238297537,-82.5751919763113,-51.13579670309733,-10.622116104010168,-23.262044231763845,-68.1641357595515,-53.92028451987746,-3.733961922183237,-10.138689305953761,-42.5642293606046,-35.686684792953955,-25.377195256155503,-32.69857826639395,-13.286716730738835,22.20181472169713,18.528353521769127,-15.380295193215296,-29.22185669370986,-12.379981843063769,10.186278751136747,13.27198525663572,-6.606734939565772,-17.79554163105526,-4.25745057258143,3.045753271032318,2.1977368355109412,12.268578125001726,-1.6942776755032085,-42.61269690109367,-47.128531362828724,-22.81245338866656,-26.737443845433603,-50.94171569658156,-67.09015213857698,-75.53974934505203,-83.82949665666288,-96.36036681988162,-110.8837439631091,-84.8873546859844,128.8328273131354,537.2361462669626,667.4367083747529,206.378507137113,-257.6361933847694,-197.32720435898494,-38.23641004901415,-127.89811071870164,-160.34978388624748,-56.42949037269355,-35.54832739520178,-51.5034666549459,-27.85483540235514,-34.73844341591362,-43.08125098989979,-14.625378247702862,5.764938369174859,16.253779475544093,14.058034106717864,-14.851554848385298,-25.33104702276767,-7.088621157058289,-2.1856161473902667,-9.729165107629514,-15.444309646727742,-18.1038777133251,-9.505697377301459,0.2545456651916389,11.139977089566445,43.16630709580598,69.44421767425018,64.24028283193343,66.66966341184222,86.93586520014884,78.44525241546582,35.10232049744553,-8.214524765181974,-33.41980763114379,-37.49326307278419,-30.52337421932677,-34.84049845764561,-54.70875059050115,-68.24822287321953,-56.17158705289869,-31.59867707085445,-27.006769584044854,-36.35992348660396,-18.607241535649724,18.992873384342886,27.073822447284172,13.066325367254596,21.532074506601077,33.8809668730656,13.0734643966314,-5.842699498509601,14.206376032430141,42.61412364807855,49.025616109703755,31.681687584290735,-5.691099703740816,-24.664112133084636,2.6497023976665552,24.412377846520307,5.7498896452034725,-15.43422553419735,-28.09683375699027,-40.4836109998079,-25.6163749632718,6.895458411262252,17.19082754155514,13.734934695491656,6.444762652545124,-10.481077306827517,-11.01575155128977,1.494882722658195,-14.065207129096208,-45.14142549151576,-66.42136369365453,-82.02285303784913,-71.94879144327322,-49.37123759971662,-70.76090155609634,-123.74645644290581,-155.65599440750788,-43.53647192689691,367.9880743614061,764.8003456059355,530.18106760351,-111.10330082172959,-320.55021233656396,-114.04655679818467,-78.09372614206858,-155.07488190306114,-81.44657665324576,-31.58719338637715,-74.14598197131748,-45.473188952852105,14.063962765743474,18.423887453717846,21.252689181335022,16.453668495272,-23.520541164555937,-41.07604570002727,-21.913077937624305,-10.6041045074759,-17.953685780737306,-34.750988020149606,-46.71181382877035,-34.31422500463038,-6.4104004995798824,8.41660827461079,2.635222958108974,0.924107808279226,25.25634243390676,54.18327587390999,63.730655393064325,68.3115664717669,63.98745513886087,33.194568496088344,11.637304142634985,27.72702057198986,43.331790007789635,25.829735558356745,-13.124981809627819,-44.773523150085836,-47.265554942106306,-31.733132074428703,-19.50859932560581,-15.5473648275968,-29.247312742515923,-45.76257361605968,-29.348851679488572,1.257150768060038,17.677229879343706,30.12156804407709,23.149655012299988,0.7327476062241485,15.33509819800649,52.103081619395034,72.45162994663607,83.90510553763345,37.33681405504748,-80.80400631145142,-131.14999154355718,-68.20756669780215,-24.16577870431111,-41.41736994179453,-54.37832479587494,-50.386383815747095,-37.04617648207459,-12.567057552231173,1.3394001058409426,2.8966928415313955,9.52402788302948,10.867213645941668,0.11845561316637276,-1.8413050560926645,12.534585535080168,22.42995744660559,14.465285134466534,5.111124333873019,14.563516106317667,34.71980285301788,38.45861877240924,16.780012010167887,-3.7535531772437727,1.8392841196346208,20.714620459221774,29.728534257083684,18.249044146805097,-17.717764173964373,-58.852461147816044,-76.97138515078171,-76.56537628149258,-78.16496768358283,-84.92929833782422,-86.78727625338138,-89.39169703729868,-108.97745647145611,-122.87645025744402,-117.99121775110333,-78.74991328345361,174.03522979156546,640.5569912500816,741.0881250293398,198.70816335763652,-262.5220722329276,-168.42683544018004,-31.259647567038837,-130.1567984131282,-143.40102853703468,-58.214865359902646,-67.70336691555131,-75.51588191896475,-27.387451664613415,-22.93484012853245,-32.295871871269036,-4.369851481121505,12.432023893535568,6.100395685855942,2.298280860740909,1.1084318632343528,2.351382838543372,5.408864563151967,6.373454666096757,7.882831808097842,5.146650980854687,-2.1162201725528273,0.4290486157487763,13.38545715282556,22.50179670079781,24.62262342821566,26.511708455626916,30.19076756416466,33.56644105079814,36.587079615428166,37.953843693124426,35.22392479268981,30.7231323507545,23.212603529812966,10.057282742463858,2.781096148670862,4.664497518050673,-0.6841918785228671,-10.147039236616704,-7.177520372328452,5.519600878329298,22.046148747006885,29.089349387532007,9.3993408740084,-9.66734537687994,-1.9818697576686604,0.3760693238145454,-12.95090272974513,-15.73178608731464,-19.457317780975504,-30.358782646607075,-20.786486238314623,2.579951351612915,14.03178746775216,11.322139114996181,-1.9055132370466206,-10.264638790108165,0.5806814083442635,13.91706805131874,13.193347747901766,-1.7202009275258447,-23.2134266744829,-27.91791214694917,-9.120487057526756,9.53698562531163,15.027179959734433,6.434899674561272,-6.932064265154292,-3.436219653825643,8.689751181915216,10.268591141510257,10.828309630651747,3.9728424296986375,-18.47253758529359,-22.141885807794093,-0.6914876316014489,6.737511577393219,-7.805154465615985,-26.6936592433316,-36.00819269402867,-23.680868872932557,-3.6966139839880228,-0.7071213442398303,-14.58199335471356,-34.407322673165275,-39.63687006198164,-14.001969078511125,14.311548503422742,12.53278103698273,-5.895333907329096,-18.93955092631812,-25.91363261864371,-29.525144977661196,-32.72658287566975,-46.06303796687733,-66.6400392603673,-71.9252897257676,-71.28280958512867,-91.93998391839307,-116.27440053721537,-126.18638989830978,-36.503408384890704,330.7511366464888,752.4039235955096,612.9170068954608,2.9565853856421818,-271.83921799891573,-109.23767717249058,-65.78823706462681,-152.00273288410716,-96.37915286484223,-40.60142437116092,-87.99181693686657,-85.62638517851812,-36.15518163224536,-26.67386180313985,-17.578911182049225,5.113782715883936,5.170198974000213,0.6641981578491958,10.14736669991709,18.332361013352774,23.42514170652222,31.14832731011102,26.02236469874235,-5.53664558907112,-36.174451538742844,-30.32711712274046,-4.6773976383213505,6.815463285615614,9.158714954534211,16.06024315674774,22.234471161780952,23.96981288284845,23.701973328840637,23.261139715205378,23.636048888490496,21.5494330013682,17.084007305253408,17.46646738709769,18.47491610936693,4.93513916081284,-18.920023200305394,-29.82553944172067,-22.711531261968606,-13.470056252055594,-9.005626021668647,-8.126428949365305,-11.057623399094735,-9.952223685417191,-0.5589171061574807,7.850047981140768,12.370411833029326,15.192845512195706,13.501802920795747,10.904601913569543,10.761914789856073,10.174137801816302,10.95666003252442,7.580140249044451,-6.2228376596018204,-13.104100387985081,-3.852019962597628,5.053236103280412,6.400378346217351,-1.9271573350001576,-21.0111240867038,-27.93688017067479,-13.292770048461811,-3.114990257082147,-3.9584675538072127,-0.7259572984964624,3.1780504905936127,1.8727002515130837,3.537539294183877,13.418828386693745,20.819651543179873,6.599495422247064,-20.50455622790169,-26.061860423615563,-9.720432044300992,1.9402910647349532,6.239676725634483,6.986369950315472,1.9602224993184216,2.6827853731709648,14.295057962165377,25.999604255788398,27.06419612314396,4.75365009197796,-31.031686002734915,-38.49163185271009,-7.870759887299343,20.772611738383567,19.895102766725984,1.3120535527392905,-15.05211742922773,-29.51212665660673,-44.48285791231873,-49.40539558009741,-55.02091367825185,-74.66282473309754,-86.63792565215095,-91.06159185842854,-107.43138052822849,-121.224874945632,-91.1568076874037,116.09905446742121,540.8693244607172,739.1581456467488,328.0276568086904,-186.78377577871512,-212.63015484832488,-59.55531696238518,-111.38447193527014,-147.78211826572033,-63.68835273444357,-45.495602216632214,-61.545987425347725,-22.962282505906344,-9.063020113091177,-25.662423810876028,-11.433574289770917,5.387508024268387,2.0950936096634933,0.8908866535674851,1.0288327630798884,2.8220723903728224,11.794136248043273,9.481125177017319,-8.083347952515576,-16.993502921895594,-9.650152024536107,4.623414067367586,21.99771385295144,32.88207201071954,27.084258572960763,17.060358878690245,17.27586715786823,20.523168903072246,22.431331437608264,29.878566730095105,32.087248430737525,11.059207171092314,-17.422399982972784,-22.64621986971502,-12.56770325280116,-16.595011755094774,-31.28522361581904,-35.18748120694589,-28.764393907829977,-20.794064905688842,-11.963920781652831,-5.617141700672455,-4.122061177286183,-3.0946806513357235,-0.6422987471420107,3.110728314687091,9.23321885349784,14.024944531101971,10.661676230655205,-1.278330788048252,-11.817669012213688,-11.112887975147446,-4.205438368234653,-1.7085706215268521,-3.911023888133891,-8.311956780559374,-11.466825443937768,-5.440467724526854,3.9844229951285346,2.4137467689783465,-3.989838131029581,-3.41567355097514,-0.7204603116386694,0.5155565928409587,2.1484425531724796,1.9280619035740512,1.147650837757913,-0.049007690912354906,-2.206429602292695,4.04544241085291,14.109199061641885,11.532958128357041,7.867683807303829,15.8943036187774,23.66579648450864,33.025887704005385,39.13909912959197,13.153327769335782,-22.372326333181945,-17.757577165283898,5.36323226678811,5.84226079256071,-9.049440895150001,-26.54396289025054,-33.92327257089403,-11.170353340039007,22.38508945558534,26.469390288492992,-1.732808161801998,-37.01824326080789,-55.114678494518586,-50.23069326200112,-43.7005926336842,-49.448489371560854,-58.766703720998336,-78.2965382283231,-115.16440441050818,-146.887431264262,-143.66735183446986,-6.087214569236465,371.53902443129147,711.39416088,514.9021811215416,-41.93247772727868,-258.1586387732856,-105.20967434365949,-89.2714928467735,-191.29654799758578,-139.22571814181816,-59.89317460627699,-68.1713726193635,-48.06120248300399,-21.573398132949713,-51.11450976675874,-54.860752703778644,-20.29797136680002,-8.136788694455042,-7.94361115793086,-14.373196717548112,-33.46813710348294,-28.40325776112672,-1.292453529464673,8.116393351528249,-1.6615650845223477,-17.69954278506581,-26.540150581927875,-11.09485188218439,14.668033228467058,26.970553702746287,22.10887194461896,3.897542480343163,-5.929998167481919,10.085070722021857,29.15434842386773,32.55895244614548,24.625658005411054,4.872573437345456,-11.660340667376651,-5.912327607369884,4.279609061088939,-2.2090087381251315,-21.57109025541147,-40.49306118891697,-39.43964539122722,-16.8790697875157,-0.04142193932593585,-4.624287191213526,-23.17991781832527,-37.36376621517444,-28.214848929498267,-4.152516832948242,11.166273252167716,10.521683782597451,-6.243950501568971,-23.18656886642223,-13.38275529237233,11.5839816662461,23.103419123319213,18.3731400681342,1.312145934513648,-13.11756917420567,-8.198369919558974,-3.0045313467536623,-8.92362058996859,-12.692185969684473,-25.464776184184032,-41.90283348660759,-25.752113759979597,6.993523411743792,16.042343644684383,4.756464479309759,-17.384742663854986,-38.5759078435565,-32.82990966085012,-13.201237714069366,-8.083242009869158,-3.2376645282891836,8.487705507152096,5.819425374967305,0.5868536124239756,19.560177448669382,38.41939824528463,21.289298123825635,-8.6146203754618,-10.078369610368867,12.436838691452047,35.798091859918586,43.132504113249354,17.167074193091697,-27.00945061714521,-48.67154357488299,-41.20761316650672,-28.15543479641456,-33.83388406009718,-65.95585416752911,-93.86531665289223,-92.11928494273513,-75.52450815732129,-61.64007520405882,-72.7381109524289,-119.22473451469185,-151.248157982333,-72.22291119833429,235.08035073921656,663.3384623304864,699.7262376958076,158.8332525504062,-287.3896157377533,-200.97039287814036,-48.582312973092684,-119.50001831174023,-147.4061742282175,-111.60329608163629,-148.01721698484215,-136.8484235469281,-57.064239819924865,-38.480969715648996,-44.99742912389772,-22.444372621612928,-15.231415781391455,-9.069220596682921,16.74200753327634,24.186181447242994,15.435185830435511,17.258447569656973,23.319379384742174,30.17796141246289,37.87268570249395,26.248074277628753,-9.107270705887379,-33.005849183375325,-20.206590970636018,7.247444031298874,25.459551291573987,33.15375857305877,19.293992439821192,-9.192428960125529,-10.285262214080532,15.422112389876485,26.822850361837514,22.666255272237454,17.489432624600635,2.600244296457035,-14.713174995139697,-12.671004595423872,3.1130613865358594,4.714196070929969,-18.335482781288995,-37.89983021169243,-27.293878107203135,-0.8448479907293307,18.19616035974874,17.904001140184022,-6.145344683961073,-25.40438832163938,-11.028633142744948,13.17115368743245,19.69171329647785,11.700263717789184,-7.21454178652847,-22.439323768885714,-12.982714242173945,10.136345532747706,22.297535092973423,12.771472420612056,-11.347797538569637,-21.546414590511915,-2.8961320660850802,23.18037514543711,31.252454445608674,11.260904186170649,-18.981417272500515,-23.259465239917304,-5.272306301634339,3.8863764738333026,2.749407837953166,-8.079936232372615,-32.38486478449235,-40.1586282807476,-13.104573505840936,18.47173866190716,24.83145916058065,7.66743031209739,-7.754336833980728,-2.305102663665325,9.613590967345122,12.030048565973177,5.751408333384278,-13.815333435867146,-30.148301086030003,-9.763265097339271,28.55756629636099,34.87479552954796,0.6457609119951577,-46.42191239876112,-72.60451622785877,-64.67988153364789,-47.000913004270686,-42.953638603634246,-61.778626291968905,-117.42732011013128,-173.92065798244286,-171.82383440528207,-134.3704081887053,-13.52082357047388,343.9388114089327,697.9911260631338,512.9540050934918,-45.9566794466808,-250.32678818299388,-78.88698790815305,-57.019033798213755,-162.71611938395014,-121.01493835278208,-52.99887519861001,-61.77089058135311,-36.56126063222429,-8.953948075310045,-34.401535755382426,-28.79964236748193,10.266021112831604,22.27289994768669,19.704492702745057,-4.742734949105159,-54.204914826671896,-64.15521357821903,-34.32460140373637,-26.296479517993134,-30.625373627944224,-15.508581645136353,1.14435665587515,5.978990489289465,13.806123366301195,31.298971432970816,42.47556973252102,39.7073513283337,44.51044324752141,57.24420050431166,50.44453595711603,36.321927387590605,30.64966015749088,4.42957363976231,-32.38703582853176,-35.51465568080583,-26.809465848802706,-39.21221602362296,-44.98296201071986,-30.809469106350928,-22.29328466621968,-21.87199382697063,-14.510524913529917,-2.074366874947506,7.46940548441507,13.467880758446725,15.580341960188907,11.817255609180874,10.149278697631605,17.547169779747726,16.25966086616669,-4.543046088958781,-17.38122211105368,-6.348934987039689,3.838463717580559,-2.057919793582579,-7.7759362921432285,-1.2204586989906283,4.684957053439973,-1.0687771717902115,-1.0677275903504428,13.360544335664068,15.644631629410965,0.8351549368404529,-1.9941181672561346,8.696927612149846,13.091703158934155,8.238126977003994,-2.294986663713053,-10.305705200690932,-7.760463173137611,-3.53980369812935,-2.3195112044243658,-2.506594053775474,-9.680165594585077,-6.2956022408482095,21.24973082682037,31.388159765183516,6.27963391041726,-7.5723380464564585,-4.066243143164423,-14.98084168636592,-26.03841136279265,-28.997535280860323,-46.841499853051516,-68.58597871655607,-85.00074510854132,-106.63543765323065,-114.07107173674054,-84.90288414505758,65.67113462477172,421.48207824933206,666.100593370532,359.8120521092417,-170.70351974501358,-264.9775466763638,-76.11136029521944,-81.59016824082593,-152.5267206726874,-82.56708057926141,-38.15835621778905,-61.863617632767344,-38.93997012975604,-17.792635300818823,-34.17369219084025,-20.34736469842769,7.4325129678355415,6.07961650699166,-1.0218245345873864,-3.874246666263502,-3.3738488434995375,12.008926310107334,20.53584510148007,8.93021446287612,7.728951382294816,14.619727616034213,-1.3187555596895009,-18.079238047397673,-5.560494531665072,9.106275678873175,9.43705296060057,19.83784454129447,35.52788479194953,36.58789996657107,39.29164432529679,47.68773427673119,39.1001229824708,19.82982833406868,4.204208716381315,-8.19735419762635,-1.5534864158788477,9.91768371225127,-25.130318257668026,-75.13545989375416,-64.52495527793133,-29.920253957756653,-36.08926689309659,-43.243134133573506,-18.46514249575648,-5.1056202754952125,-10.608916673492889,0.30324901066069154,18.114308005054124,16.683835043338828,4.747420140205696,-3.529401233235413,-4.723561811071544,4.239024403071262,14.459950583816884,12.19748068023949,1.7076245180658836,-6.081368096490403,-6.192233719354121,4.076083166729319,15.0281385128089,12.677676276551784,2.8760751664817548,-4.952876286895166,-10.338865259209511,-6.642813215181074,1.3196200410082914,-2.9104827422405535,-7.982364691894956,-2.5612078951157304,-9.738487412965924,-29.55698142863181,-29.557787849628106,-20.727683980179172,-40.30962842083464,-67.30466788144882,-62.349882816171394,-54.80182422667843,-77.28302448514273,-100.85958752812539,-92.2584402740179,47.272211122168216,411.76038436721296,676.7165641109201,381.17270256706064,-154.26927840722016,-250.13140154758418,-57.23980960606685,-70.59823851808672,-150.31039949667579,-77.97117604873148,-41.94533002318913,-80.94066421866027,-47.71408786104958,-3.820737535169222,-19.997767467406355,-22.78341754157913,-9.813413087212837,-22.091757343779935,-27.9032130920919,-12.918451813111743,-9.397074547471128,-23.667553704585387,-27.736989661376114,-9.039159468521621,3.7597134071824545,-2.1965478720416254,2.810636840588369,17.111042488303706,17.522984152962913,24.06438837018807,45.42342515907134,56.86793962310091,58.724229548820546,47.32101755232821,10.187393680051281,-14.336472263296683,-3.411912889731254,-0.35534996658040985,-15.323495815510203,-21.069025823078462,-31.141940587127138,-50.113284795011694,-46.98397008984615,-30.634601023420284,-25.00431730409094,-11.691597985072713,6.4348659336986795,-6.145263490491487,-29.10116430169604,-18.006050971354853,3.597059681920964,-1.09831399454208,-10.943154714035746,-2.4015646060479607,11.26589613400786,15.859339194600668,9.473282116289415,-3.0834145573778784,-11.877430503632993,-14.587022978823711,-11.42431963412723,-1.4598753811288319,0.3864114354597614,-11.40418002939691,-10.87838251578848,5.941139276943443,12.492564986585634,13.143568279776982,21.97733533590437,19.010914163939475,-1.7728943686856082,-17.40090007347016,-24.81190426973656,-40.00548361233082,-65.91865905879467,-78.72978118862576,-64.84906811933125,-62.41710318342926,-85.11116489129901,-98.60946485988524,-79.82669000601365,100.82269702341415,503.52325875935844,669.3317571926641,224.2104796699399,-263.66342663315515,-223.60052652687818,-56.513421593888324,-129.05169246999722,-151.11693083643624,-43.258054668751626,-36.34881884207055,-74.91915009408595,-43.175975742279114,-28.674453460143788,-41.933965651804556,-10.5120076373642,25.61721732916859,7.536550882014193,-29.087298449059958,-27.198685545178652,5.506783439607494,15.853452750660253,-8.818728030948066,-27.276889656919476,-23.99988313860494,-19.258471251933557,-5.09667027819219,26.977106380096664,36.90262285840581,15.591193807777266,12.11492641034765,29.137955108024002,36.222847863162514,42.06988396658404,41.29783806603751,18.007798733289807,1.9875296552500892,3.7323383025751813,-4.15741834100065,-27.229488796881892,-61.97818526514132,-87.82478896350176,-72.75655087301088,-45.49003775931269,-37.36455619760754,-24.11102138582227,-19.392855619058302,-44.53058626958136,-48.02175424846348,-10.897154379850406,19.024243361349374,17.32149563840901,-13.597787292502652,-42.935041771111976,-28.044963578519702,5.894042247734344,16.7418450549389,14.140951481766143,-1.7699549382462436,-25.029962572502498,-13.580032893282208,21.23738183306806,28.428781983791637,9.663016785832408,-13.625988713292827,-36.02972364861013,-38.99289211030505,-15.191994982335242,-4.664837858351337,-39.10558752833131,-78.3431739158764,-76.8557062874275,-59.69964342070708,-60.799152783866106,-78.68177650795303,-103.29341267508576,-122.77218419144134,-109.45992272801686,72.48051182607124,496.80238837550917,719.0805431812045,284.05185219360243,-278.42703319206885,-260.8028636226014,-23.493592339525176,-68.48230519493816,-130.5750900157703,-54.86981637448669,-57.87850040069896,-80.62230435666388,-12.750772440297876,25.625967188139143,10.537864539570016,-13.80867923347963,-67.05171029636,-88.19667206333675,-42.77847301835237,-19.285436179785137,-35.10559135991119,-35.16141052688829,-21.57704441105833,-10.951798486381605,-2.6943334238223304,-1.2064995028595042,1.4967457010505572,14.29876782285939,29.34405652224774,40.146599391296746,47.473520894701835,51.98058200616581,49.08924672428313,35.57045999560189,26.356435554468703,37.35859616357125,49.55551940243155,28.6333341464469,-17.49149088687718,-44.2688896201168,-36.319448076344955,-15.75598126823925,-1.1509330556828012,-0.2550851863329191,-1.713015169556904,9.387867259520064,3.709671975045774,-27.960712654444364,-30.431852615850616,-13.35354563658394,-31.20770429333208,-34.853078102790036,3.2546542395351636,-1.8325431886710017,-36.73470670430224,-6.855086399350254,38.76509300313859,19.779230238823686,-8.435519540323067,4.033094058742464,21.507918889038585,24.523029426050634,24.649890272445973,21.013479673010846,2.6705064307016677,-25.641512469042258,-27.721059966851737,-5.080878065679201,-21.98597420987236,-69.02222597599929,-73.67625081622236,-55.529983074366505,-54.309781608258234,-55.187902462154035,-80.88587081739117,-127.13369883162925,-126.18782114839135,-28.41810134800602,265.4097854434772,655.3479954916224,612.6296132094461,37.63780756782578,-315.86337056591753,-145.70243531101733,-36.155495059570804,-163.15958347614367,-151.89459760572132,-32.69567388942937,-35.25391305946311,-63.63933712663639,-32.09307985195946,-20.71839709442412,-22.290021401078047,1.666030980019789,11.992085638627064,2.0722709916315463,4.283279214720272,3.529670206115839,-18.42332445749618,-24.903130032854065,3.9520760045175427,23.417833943640392,5.96531922674596,-12.442994763778149,0.562084889552855,26.950951305069918,38.89518753141278,47.235160969979106,67.8837666237955,76.22396045917952,61.888873605380226,55.48771157489586,50.49704795088291,15.26383646899729,-21.917522044073927,-22.714461106898135,-19.61336467792694,-43.17536194824467,-45.997366602230244,-6.689161717701243,-2.6838082441670217,-49.833284324077056,-52.510728910013064,-13.972728516262507,-17.57548182696692,-24.24438313332329,9.084647667816974,5.733486775176701,-39.016687445369186,-38.00755515032212,-1.722510226330101,9.356843320795107,3.654137965419743,-0.5622191334497479,-9.336448028732525,-11.254173110488797,6.071127976249878,23.40796966575478,13.976463908358287,-13.182518973882797,-20.068659158671874,1.0024827031146666,17.94146580138253,23.527727005897255,34.062500464250974,27.3447531393593,-7.095115672740275,-16.66918905178634,-2.007078095454946,-25.657687154383314,-58.88277485242762,-57.336670101827984,-70.44787826522406,-88.06473854369318,-67.5113764775747,-78.77104728451279,-131.2355908387545,-129.08219330119294,-2.861052772286058,339.3764234737903,708.254752303663,544.4897706812642,-64.71861559585643,-292.4095682028401,-65.98129543121355,-33.71820686963847,-170.42088848614068,-106.42828982331005,-19.23184486914805,-73.71148673937275,-79.26251209975128,-9.007047231545815,16.881328511455745,9.923527998311387,-6.178243573469402,-29.71259521251894,-21.972024178932333,3.9918959728031496,-1.0332512993709457,-34.130545694083146,-64.44824722399527,-62.115443978783446,-16.610130211374067,23.65045829315297,6.842581898635586,-28.252433870598665,-15.175936351394332,23.49578263822233,39.778130933382414,51.368553579751946,59.69383075562372,31.191903630224513,2.3625077061335835,16.611305797448296,29.991931815155525,12.73517724657385,-12.584175138405726,-42.021020737846,-68.18318456017192,-76.26834346043445,-70.8881523431176,-42.59385057286759,-7.271730471355333,-14.876134537741944,-35.90087668069754,-16.726974038162233,5.408101801155185,11.311484586011975,35.2546861507939,49.70308191780353,23.10644946462301,3.1557289457553206,23.51579943808633,47.616408909396554,27.636217058098563,-31.94672263915584,-72.20292793060415,-62.31059684924824,-36.205062521634304,-22.79920340169082,-19.856346757239383,-18.643923118358472,-9.5182951293759,0.20132682264220492,-3.813233028468275,-9.836104224256818,-3.3058970180224305,9.747838604680737,16.84652035259537,12.011031847206457,5.505854742083295,3.1944708180904025,-5.265783269940604,-12.109495294073277,-11.662998441570455,-24.458024027357784,-42.54568772101298,-41.30199384133178,-37.290879543085666,-49.79325761024608,-63.60408256831132,-77.64713229919896,-117.7033697116519,-82.28902847843969,247.88092492459987,678.2723208246612,575.8250309506309,-28.29468486377899,-312.981425026969,-116.3398380618416,-43.463803174799196,-157.48652491809744,-116.41159267510682,-24.792145758768726,-48.29306654173598,-51.737473921773024,-5.14441045363338,0.30638693197265354,-9.103174896517396,-5.371194926678334,-10.94307766936431,-13.578262404489028,-10.268897182356024,-16.420716665506838,-18.34835300657717,-10.779166421441179,-13.663535888858371,-21.842551892926362,-7.653428145664442,22.24175423206141,27.9739791655226,7.560318475495459,6.179322325764327,30.95622693787915,39.68002294809312,30.830117460168147,39.77338137911521,53.71956966694175,39.56931505492602,14.105102885492954,2.1963919371295564,-5.418029524150923,-16.870748370608847,-28.338262907287678,-35.09054950623171,-29.529966964322114,-21.3632980693297,-25.84448003419817,-26.53134349372945,-13.827541004760558,-8.287758675839164,-6.704100077048392,3.374369962471887,5.661216040250734,3.1157522639740725,10.340981044339134,5.682980588375166,-9.7378672124684,-1.8618338220073434,13.59395844957618,10.724562726458576,11.277018167178248,17.044050651469284,9.820726738470647,4.987597261937159,6.508260681240678,3.6927504453823827,10.802693694025022,16.413804727120237,-3.20051021632879,-13.91875416881691,5.390069955250173,16.966543078062358,4.68297841303095,-21.173127474039763,-47.56811320713691,-39.620820776264985,-2.667760906834882,5.303003342473671,-13.946546121175682,-14.614476471733092,-6.198747859175574,-9.844196995606511,-6.602208952328148,10.192891044767936,21.59073197713392,22.514206357291293,17.571086143939223,4.853047452017762,-5.621041097446618,-3.4888301995738296,-14.489974764156598,-49.26259889644208,-64.1704437597392,-53.378088026448566,-53.90107175171761,-59.799672914072495,-74.0666771263373,-110.48703411032547,-126.4822981678198,-90.01790054566268,92.85230437720551,511.4122476688036,765.931735846734,366.1451599971041,-227.31985324914726,-276.4911752023569,-54.96165698016554,-87.34152005685368,-172.6477670324257,-103.87171066009924,-63.68586937775284,-72.65157068622428,-35.25075024801696,-12.885733786961694,-20.982673904788264,-9.270393339097378,-5.2516399670505844,-7.857123348531795,22.620700681713735,37.32710399024246,-9.828187068872527,-49.18418446910351,-24.375868471133742,14.516510931321676,22.747209920054843,13.266798077061756,-3.9026705661179104,-15.01754615893581,0.13848222475298133,25.102096850676652,38.590071655540264,41.55207755561496,29.605498622980754,11.496483168513791,8.494885192107947,14.773450007476022,17.131280143343993,8.747517645025017,-20.45824574675489,-52.06308663010037,-54.132751230329504,-36.20198337479761,-26.715775683644292,-31.578758952598584,-41.29655727457602,-43.660664722389406,-28.250488144673977,3.7576836243455176,22.816042769236052,-1.5087541070189303,-35.54777554171915,-27.721304895714134,0.2534019001091057,12.492346480064306,12.788560519766738,-5.992468925402001,-34.48461983568902,-32.34635522570031,-11.221587285671667,-3.2985936060399563,-0.14391480875994134,-7.020592340488641,-24.309142843996042,-14.747541389160803,11.077587754504076,15.119555880595096,13.31314823485163,8.214337229979199,-18.433108993689842,-26.42018098587839,1.450777043853675,6.532937527938474,-16.119600892447597,-11.777282114103793,9.040738812439447,5.143263817689104,-4.1876537820351585,7.3660498513677926,16.97442412373553,7.249622147210481,0.9292727108890151,11.899086286720099,20.075613839871785,13.620264906353421,4.617178875161236,-5.592680313749717,-20.49447546757098,-20.61117155181286,-2.5493055390109056,0.34658083736497325,-13.290962757770636,-6.592351773962889,13.14565987081217,9.098470236277043,-7.661155329524972,-10.215825981605075,-13.859725050028867,-30.656458825504497,-36.59913872160533,-34.88113315394856,-59.58098768485567,-95.43054884476379,-109.28608689671348,-115.96731985060364,-126.91613399928063,-133.8496470689334,-56.76884685553782,285.09565105191723,726.2892586662305,648.0960622243456,30.38538597257385,-304.23175815423025,-124.61702871232059,-35.95370834133343,-152.5961926155748,-122.4964742591865,-24.572251036128165,-37.62714399734734,-38.0866576974136,-8.12352555567183,-37.70154772306684,-54.131516368356,-18.22155624754564,-6.302729208343678,-19.817346653058838,-19.887309397305543,-17.51612136711006,-19.60679030097694,-17.763053599438265,-11.407788826928911,-4.586475190711387,-6.57922610690255,-10.398649076866906,2.9677475349232694,23.30305635292489,31.076932517552358,32.085725612983325,35.30802555700469,39.86315550726366,44.05348072974459,46.58450780866852,47.63376139053287,41.85581401081055,26.81221705458343,16.456542760181303,7.970771293476055,-17.01069516570415,-38.86804266370482,-35.11026135827262,-31.630390473134334,-38.1900687379113,-25.13307671135741,0.12098824346918935,2.7333216943471377,-5.697541567978984,3.8904391380829644,14.948047474816413,7.459424248657386,6.137256415006725,17.91035906848297,8.527629827621164,-11.532982047124477,-2.7148498437767414,13.244276407857946,7.584258741804549,-0.38368503350778127,-11.425116519515429,-33.482447392197834,-34.176605358480074,-13.989496642742813,-10.422111199137232,-14.142089190742524,-9.385751711421996,-14.662922819532856,-16.559088156048322,5.956130459354322,16.355573039949192,-5.050613555512021,-16.175706764638836,-3.2167631091235243,3.0127629062646415,1.744611984835935,7.612085807512633,5.974833634308875,-5.2885014013698735,-1.0880394047147193,15.498386697339603,19.4293833006837,9.416889540614633,-5.085935520084641,-17.290071638652968,-15.178905085425372,-2.613355847570225,2.5407266774518114,-0.9994695698252087,-7.394116788348207,-13.424998028105273,-7.837742583769902,10.750843002238156,24.989871232464914,20.798844249654763,-1.2051401206976387,-24.035187917714747,-30.367028443650504,-25.502028274105363,-27.986788769883862,-48.933717924254395,-72.04756489056918,-74.8290682890634,-84.24829121520493,-113.44330242097578,-119.71176663198183,-92.97766865046901,68.41416437845561,497.99257208829226,803.7883955374116,444.38727656057944,-150.5342546019274,-224.9421796597795,-43.950193274638444,-117.09665015329425,-200.74227120933068,-106.95099052585758,-77.54619248288338,-109.25971281867514,-63.631070485770536,-29.57990201259496,-34.91647685664721,-5.194902693601197,18.799746772149653,7.379792335215795,1.6437445422424268,-5.995191101230747,-20.059756739995855,-10.625320532152344,4.95327285775781,-1.420925659156394,-10.866884078064508,-9.999939439179176,-8.606912280613226,-1.3997356378706938,12.988811630431199,12.514228761287672,0.1546850909526012,8.309748255882711,32.72992048475099,41.00398635672201,35.58343734120015,33.246365664980985,25.265064609380087,8.825405203129776,2.2664292318338215,6.162157437905433,-4.773419276108024,-37.22966649831125,-59.4044225868513,-49.15493451683615,-27.459950756265172,-17.04576812493525,-16.080340618785684,-19.35172904768065,-19.122959073368428,-8.642574796119128,2.3660524823372793,6.6030243931260095,5.09423049471007,-5.399566222811659,-13.045055388675811,-2.5800578582371614,9.882753894049365,9.517512648481304,7.180592959311719,4.790597532090651,-2.826311217566545,-5.309365091387925,4.018915991029334,14.294033967419324,11.871754765803457,-2.38338251587789,-10.796028117822296,-4.012028488481973,5.774775738889858,10.214755598197016,12.454236309599784,7.232428294339378,-9.786689052663423,-19.98606123534522,-7.055415293962039,7.70109184567299,0.19465573581511242,-11.063309780452341,-5.629917893477471,2.8370893296468114,7.5728220762919936,15.55782561846351,18.057976228066526,12.550271155131822,8.26350237272288,0.8520676752175789,-5.822148075883591,1.7331324224978166,9.186720052929246,-0.7808215048482285,-15.786902269073638,-21.35702734277832,-17.011947237343943,-10.322130491914137,-9.147066531569914,-5.478187602793442,4.748272408439781,6.458009819204305,2.645610885669996,1.496776076376408,-12.287549941859037,-29.0801301504872,-29.310406987953453,-35.70482705842242,-52.91041098675341,-69.20814021370967,-106.64229578083687,-143.52129046288135,-144.0732242202175,-81.21030080145383,210.17551583033537,675.5146170232105,709.5906114967942,122.80455211867121,-303.6144442918942,-176.85989760485546,-53.850500955863794,-155.84076487362836,-151.57180324135024,-64.10954281965675,-75.18443635468641,-74.15090473534616,-21.76921322238947,-16.196184783338765,-20.843601667358104,-1.2225931707278468,-4.82570599305787,-11.955389519403614,1.317345227852682,0.027256786427141577,-9.946150659283393,-3.5533918009352483,2.277180353816207,4.977573305986722,19.12572668846534,29.89575328217091,25.36464916767427,17.473212089024862,19.955137921263095,42.48019581384122,58.97881968416,23.029053519301915,-30.558430200436444,-28.081466689033814,4.682111810954913,10.650366656242777,8.382821623475674,11.920860431298227,1.3567127548460363,-10.86510726578738,-17.939541873051553,-39.26326010086637,-55.999893841086894,-45.552952320841435,-34.00818520827894,-31.59075778998551,-17.621049887556417,-3.2940511613128542,-5.217636050205975,-4.287290057022231,3.072199987817715,-1.1870805270500995,-2.3789359017392053,12.249077968947923,14.417955217211226,0.9226892697780018,3.9472270480145193,16.01177456131534,8.642529608327234,-8.19204611074522,-15.352208515444783,-13.838590340092917,-7.371223150063519,0.42403645809117707,4.589145983545515,2.2534160852043517,-7.221239476714704,-13.164221648182378,-6.661096525297072,-0.6761897574680766,-3.976258169381127,-5.700079763841943,-2.9656241751857326,-3.052718618702972,-3.7389036686089154,2.968411173522646,14.281292371180523,14.384956260171542,2.6888487141238615,2.398718463421594,14.146006260766669,13.521594998323819,1.7526778889891599,-6.679663423953559,-12.934290606370405,-13.752605659298762,-8.351648374710226,-8.433142553178111,-9.108295189025307,-0.6376325506014648,7.493028422153126,10.696565167727888,13.845833156452123,17.428557600766688,15.452786422617843,-14.020431764286458,-66.09305321595718,-84.21876776090298,-66.75727685264874,-71.8470652141153,-84.63120991335748,-78.39364112859704,-93.72275854341962,-119.36658544702041,-111.9252951830583,-18.957679914566157,300.41741098364696,689.8345514400232,583.1820780901959,-2.1689928928361155,-294.8174896715202,-126.77735488924671,-58.673723260396784,-159.14626114511245,-124.46442079880646,-49.82081791599489,-68.31887661524529,-55.61818833962897,-11.972919395435973,-17.74114093966549,-14.932995591689258,12.237727121894622,6.795379876559663,-10.16607173124235,-8.980684975731258,-10.8889069705993,-14.41145618689373,-5.530259560270752,2.173198790113739,-1.690550208369225,-8.897004245750965,-11.690119470238288,-6.540881427362518,8.706297433785902,26.313848639180904,32.13668701848919,28.087440036663217,28.19595903583288,32.33016645571193,34.87035697895637,38.831559750457735,37.33450301056903,20.369578061012973,1.0111749836614052,-5.540056343327725,-6.20341546562355,-11.35512961299295,-21.90718280295647,-32.80815391037133,-34.06721648671608,-23.897561079720152,-12.736186310504358,-4.309244374591245,3.206554148765049,4.093008962182036,-2.474332746341476,-4.464334196223573,4.876197286967294,14.73123971598806,11.882149285139988,5.020511511149792,11.527394411011535,23.46974685327775,25.715130031518154,20.617135900802843,4.124715360587627,-23.261783555230416,-34.40393343495613,-22.70810250129589,-8.849067767388899,2.7104123264183517,5.417980761495514,-5.734512223069407,-5.209552586898056,13.530190640504728,32.391672352921006,48.173945041203666,34.283513809200116,-22.344193171998185,-53.33793828360042,-27.86731907188708,-7.857815939600638,-16.272184555897947,-28.169401930498957,-37.54157016154491,-32.68585179442172,-12.52456139931784,-3.7534529859890817,-11.821530525713747,-29.561676021558583,-49.124911967715796,-42.43800647508306,-4.9125956623022695,28.352355998776936,28.064377356326162,-7.9026820891643474,-40.690263363908855,-35.74000805778957,-22.383152669839607,-24.308065825872838,-35.6802539116566,-74.14636509420029,-110.99276109085787,-96.2216313390868,-80.51855001345291,-103.38159674072949,-122.65691672714938,-67.91534389130345,210.20444735088137,619.4560799712731,607.5434543796227,65.64654452086049,-282.91841028258386,-152.29882260398142,-58.217517818710945,-143.82007562247927,-117.28793720718576,-36.80867382035932,-51.59399673137347,-52.87445134630525,-17.340260291770903,-15.648661074556614,0.05060260431218033,32.20613873459675,8.869341278494211,-33.064464688947446,-29.007750058920486,-6.311700864377608,7.359743753892519,14.449100854099562,-1.5577481439977099,-29.03371416604882,-24.456146696229794,5.985296476238048,28.895844433906905,38.67503548167021,27.368770061341355,-3.8516318077277694,-16.7338433375586,4.646203143177297,31.247614221673217,37.40954693017205,19.6538863108699,-2.197412283587011,-2.9889943332909747,13.115015483382553,22.83876349026974,7.521617614026537,-28.828282693873387,-48.21644879193549,-35.21545001406528,-22.82072352366925,-21.753424240130606,-23.962078457168495,-42.510379722531404,-58.907815509750236,-40.63462099820677,-15.806775203820209,-11.318751599322495,-5.115980761555424,3.7841390263750725,-0.20700279911036468,-0.09495011413483301,12.221196917279142,16.152014142298235,9.034695373624722,4.861962030573544,4.698571416512035,6.383153965029728,9.620119629848727,5.938258189952989,-4.711178102744174,-9.842565460109869,-11.40639222942809,-14.612003228599864,-8.18698912313725,2.842329343611178,-0.40769828026384447,-5.71684277811468,3.873581936111948,16.02457038732214,23.52457635676546,30.69275962235734,33.77380191353153,33.55192547114229,32.28742792265671,31.48093065743763,34.95004668466625,15.516238101993324,-47.24460194328038,-93.4216606798982,-71.8847521579178,-31.327482012207682,-21.89048021102922,-26.040981186383405,-22.294708323111756,-20.141683878913632,-29.97555593343924,-39.37850683216974,-40.91239534552223,-48.89548896694008,-56.159969508504446,-59.3627109957786,-89.6873681650514,-131.3225644627527,-132.81097390365312,-20.424494628003117,320.3527316435868,683.9533560664079,538.9187787935108,-26.640868755169826,-272.32751783314444,-99.45853839765029,-44.66065540209861,-140.93574470132364,-113.4478717476185,-56.85339891465827,-75.22406449050825,-60.24465918556908,-19.56468610669821,-17.950059417445765,-15.294991947118493,0.558556180373948,1.3135739230208046,-1.277693943105576,2.1333437268551076,3.436336998824782,3.0203481093825246,1.0695926542816447,-2.5120758202905282,-4.651244511429388,-2.6580740048648748,4.709220672217256,11.766005326991847,15.472322097647174,21.524026507558908,27.919062205050018,30.1737461405788,33.69897336546903,38.48923041203993,37.518245737673986,32.415890688370126,29.1012671920303,27.88748991044018,24.353560746976118,13.438320904739815,-4.853966052694893,-22.263424365033814,-27.972519504845057,-21.417982929108383,-10.838654902720947,1.3145165951942703,7.541627428826942,-5.934314508392063,-22.006761019701887,-13.382524973321255,5.812271534375861,16.444353870197485,18.879535968023678,1.6768361349863667,-22.580626972018905,-13.639298230068187,13.878973404305146,19.830060949550415,11.403000303818864,-1.0385464365195132,-15.082698994569244,-4.673007576267788,22.917153763890646,20.24955218134839,-12.284757170205019,-33.39196050132462,-32.51095337189161,-19.480097234207644,5.911517519098553,26.45810867151097,11.208190433881795,-21.75453175901265,-26.07392432563814,-10.301320642763667,-3.952113270086201,-1.0774813533823107,-7.498152763627246,-31.548612431281164,-38.14786578249151,-16.03665839469361,0.932621770710508,6.856191127907566,9.421530692498536,-0.1760572684989583,-10.356399772314177,-7.290343672008651,-10.584232271603405,-32.44228036981443,-51.77595295696922,-57.33945319562255,-63.25879456831658,-64.763473514232,-54.663668654030744,-69.97422405275205,-120.37320962924343,-149.05290061922733,-71.87770648647437,229.3033904789712,642.2008502381127,648.123447485975,107.16808487149378,-293.12693940936873,-180.02501340036295,-36.28066559213682,-107.42608287126035,-128.94527919498606,-86.74415590451768,-104.71679210397444,-89.34669562254203,-24.57189952467039,-5.921451595160242,-16.832418789775073,-26.80084642981523,-38.35428732019,-21.279865078658442,13.666627796257444,20.093082476556187,-1.685914828409956,-25.69148441634639,-31.202530487593872,-12.184169419877149,14.0595788487438,26.545144641333355,13.381047705137952,-10.47725537736386,-6.261413200291506,27.856576142318595,55.126769260092566,52.654009564760045,19.079379896156567,-15.195109823769773,-9.875615931179768,20.00664580344784,36.592015317491224,31.284960075443472,0.627593299705449,-38.1949727246337,-48.55043368897654,-36.068784242111775,-24.615591611042493,-19.878508634025422,-32.474096047079186,-48.03717446590374,-32.30872256120854,0.06824550052512102,17.93347937581695,17.897887164225907,-2.022709972453576,-24.147817537419286,-16.370623522947355,10.847012191174626,27.319171307531008,19.440658278102973,-11.878096585943258,-33.669711132958895,-19.18365755973597,4.686381170656475,11.914485710500964,1.3333174895849744,-27.596658899966954,-46.69331645849818,-29.076635521054296,-6.418028051673478,-3.260502780177415,-0.4947063618231269,2.703231936424756,0.32910196864669716,8.579264056055955,20.205051506458112,12.243245786883936,-4.258982306652872,-8.753831977171265,-4.268711601039151,0.19077262265678552,2.2590948201008145,2.3493679411851165,1.8547560797518048,2.411239893132013,9.240357796648455,22.95312722954993,26.697679706006443,10.052573117377769,-10.009206560602308,-22.63571043076253,-35.02025557379286,-42.69762781196509,-45.46653784073957,-55.74676052446358,-63.57686667864479,-66.22233515753346,-82.38694265916659,-98.81892095192742,-89.21609086446519,27.297712463042984,374.5048455357898,719.3945025089401,545.2954409390577,-15.503849020435382,-252.63030463838538,-109.42693687653144,-86.57084472252768,-181.4704295469758,-138.6905755943414,-69.73511159012074,-79.52247760112914,-72.30593234756923,-55.0892129479557,-62.39880400781065,-43.544522169030955,-13.681448589999526,-12.3506209733162,-10.945911414768844,-0.5438198007942479,-0.9858495199745647,-3.39305252877946,-0.18358552813981444,0.002519519558890515,-0.9588634977181845,2.960475437838836,7.477031223451511,9.006660182333238,13.672862361119094,23.090339417898562,28.661407243568508,28.69660136521742,29.13997170535628,32.73896390769733,39.622986980757275,42.55335190673678,33.749184063193574,22.377764898008703,16.978677645894308,8.404321849112737,-8.489018467391373,-25.729330426916192,-35.921753631484684,-36.81347166604685,-30.12233073962194,-17.85225550527364,-4.692615939576621,-1.6506486853287585,-7.455704215534197,-7.235096323042175,-0.6674044354546442,4.090757858356443,6.432418327895865,3.2936639193064616,-0.43598165491544716,5.660673832507762,8.63008778567493,0.9164139295907008,1.705002759949072,8.36777129962591,4.664549245332644,3.4613124423033064,11.916280317002162,16.51917554860354,19.137087748755167,26.68350672044619,33.07310576498268,29.67425214767269,15.072328983036176,6.651373394522594,11.780356843078089,1.4106394926337797,-27.42909747421511,-36.12694129226679,-20.32942995829707,-6.70516766457386,-9.689347114893758,-29.971963710070085,-35.729204218991,-1.3647637404568629,28.410640153611737,17.899743343449277,-3.7349899652144725,-25.596448092379465,-49.79481031228451,-46.98188119365406,-28.977103158864637,-39.251471397629594,-65.55399460723893,-87.08658292614247,-106.76901238175577,-112.33183866172091,-103.1591119940862,-2.8299055786328893,334.33949809611937,676.3602984125062,499.7379643689723,-53.12989605088386,-265.4429444348144,-92.85489988838478,-60.18002563396756,-164.66141477330865,-118.19276357522901,-32.531710769839776,-42.923552940304404,-44.21475304296397,-27.82955801548178,-44.65241529508446,-39.89264951217155,-9.277309679581988,-2.6725703180543157,-10.908734214227213,-23.89858788281454,-37.852500049651425,-28.683142715850266,-10.907947977832709,-7.8980886400743096,-9.62804222430682,-22.914132062358945,-43.62918886282535,-31.790195397047903,2.172322622148739,12.77270172759413,8.094533824198846,12.472100031472602,21.655790712428022,31.513480496666816,38.03983196332692,36.48612949336034,33.4299735373511,26.885253601544747,15.888202813702456,14.007116982239172,7.975711101228001,-22.869894056927368,-48.41695472946935,-44.89997712291945,-40.67464437090338,-41.17815828762641,-24.336762991117652,-9.313636683917586,-14.79140530674886,-13.975295754832086,1.3533256397826832,9.216103877754712,10.913461755079663,12.84039619182874,5.629748534074444,-3.2727762798011213,-0.6209951107898153,5.830645917263419,8.835300275163974,7.142794005608617,-2.375302609306443,-9.132217637651962,-2.734676679119371,7.2234011266124405,12.37982065518659,11.210712049896234,5.43072196229803,8.32028075464579,20.09816327262009,27.63037890296062,35.18433526743119,33.149646213152,4.171744746095928,-12.861168172285954,14.776997305187123,45.326854123406406,44.05945044670209,14.006940244266989,-40.24330033076567,-81.11159911991261,-68.16651865565277,-33.60422349223409,-31.23401018429354,-68.96057902694602,-125.52684237917603,-163.83359247763664,-159.4174966825677,-146.58282699322694,-111.48079679203724,122.55287960219616,553.1752661930457,686.6637120124043,239.54148026556652,-218.84259624837674,-191.98538691731486,-45.76160646247856,-108.20701781220548,-135.6524519635173,-48.981248858474416,-32.13876070895909,-44.334343904799724,-12.35755605961269,-11.616993672868514,-21.923704050919348,7.980437521052282,18.736413617440697,-6.308887484751811,-22.08783811333866,-28.561502051635458,-30.92663416391666,-19.738900576031824,-7.2396954029907885,-2.4821273869205145,-0.027987698760545854,4.811371060234989,17.40606102690578,31.797386932942437,36.01270688654289,34.30128355006794,30.120816946311148,20.644443726539492,20.02130283662817,37.10278348531993,47.823986694873284,29.80231236134376,-4.377245246048321,-28.080351490099645,-32.944138350561325,-29.2163677569408,-27.372029268543226,-32.35801479703461,-40.884329532479235,-37.86553069127041,-18.635552238341344,-1.4959738519009473,2.8294639573943954,2.9656533790103516,4.491124377206303,6.056524988648038,5.414161971518768,0.5922153985836118,-3.5912283428450236,-3.426649798476981,-4.954450721111749,-8.097534620361278,-4.5521636340121745,3.7484688731613325,6.58685248533471,0.26236681507149306,-8.12422229567881,-7.69776282678391,1.5956455599835484,8.035142989600168,5.24800740560968,-1.2134058842070792,-2.1984291694280857,4.717713496457503,10.101528963132168,5.167290476588008,-3.8812847180820724,-7.242938913650584,-4.9891117321377125,2.1564123333697633,14.876131151262772,22.131549306343242,14.171830454635602,1.4478244230735804,-9.802873881868557,-25.48017774117151,-34.31043766056642,-31.881796668720536,-42.170981797796344,-68.7483920214629,-94.38868440865978,-114.55297430484141,-128.54210727821993,-117.72402046140245,38.82375866018975,434.8394561111902,716.2961286994731,413.38679041643996,-136.97729018380767,-248.66137699720116,-67.0293092204328,-76.14114420136536,-151.49193612757338,-86.8261433058104,-44.91271238641418,-66.36753632390031,-35.849884064048695,0.8441085410175422,-5.171539135348915,1.5433460439023188,25.50294318252075,26.982847353242647,0.06382408527494299,-29.592660959696456,-29.92561207391828,-8.76969733752082,-0.6502381585352603,-6.125114716544281,-6.722931909762837,-1.3312606122744421,1.522222727500186,-2.002913837389377,-3.2231098852741398,6.721736548421293,18.82887780207754,20.73210886280219,16.741339701751357,21.665105314613673,35.862213317804674,40.226812896598666,31.454968796773812,23.569156244004944,12.142735723070665,-6.602050437615513,-20.4813350981796,-34.00373016073195,-48.697189406488675,-45.41268495606559,-32.028515591843714,-29.828005079214268,-28.460824000014078,-20.15801246958399,-15.30181531860676,-12.359507998798552,-6.286411229531307,2.2336014352593843,10.488166370502125,9.199478139706446,3.0568296827883312,6.442267420285534,10.163011709998958,9.07404357947039,14.745921317364337,11.276918825592182,-13.638116142672654,-28.683608963013413,-22.781129466003655,-20.995564725823158,-22.192993565702373,-14.92411284480954,-12.635068411802411,-16.542223415631927,-11.044220875230302,-3.493642158374559,-8.414568516270531,-13.729911822954959,-1.7540397661472742,17.55252472804392,17.88094103580012,-2.832028400621587,-18.86450217515167,-22.548454963119834,-28.659711031693895,-35.848815854829276,-41.262564215211746,-54.63182255976791,-69.82419245550098,-82.78198415161779,-96.20978312252598,-98.30556227771491,-85.29326724835494,34.22220502905165,389.93034571242356,689.3915574090887,423.87678197888516,-143.79031277000593,-287.6321474498286,-90.7591290901967,-79.59154351479467,-164.40554865004867,-97.46050044916065,-34.23576255473222,-52.63681578094005,-39.0581417197216,-15.309288135871611,-18.483577602788337,-4.628165834668237,13.954513702195747,17.209316277308098,15.73143549612419,-3.9815293698144476,-27.5643172693935,-21.746508720373654,-5.245647945653488,-3.181913433628157,-14.390996189764529,-30.894264824952998,-25.88809129467399,8.519635420643697,31.84948333641382,30.429462982879798,33.30554994555433,36.61419189547465,18.700385436414695,4.698542716725995,23.132259976108926,41.51351487218567,27.51258609690126,12.613742404183153,13.72665444284517,-5.801198624028878,-39.60064414006478,-49.77238477608872,-57.99378493062145,-76.82122414236864,-61.57810439446122,-14.929984573272051,10.825365996808916,2.0419496581360406,-21.739987501480826,-32.88218863551525,-17.348599498639956,-1.6079439983237158,-3.5532626475311986,-13.163221293356862,-34.97788552214009,-54.771838263921595,-39.80360227440742,-10.259792397363114,1.3182828142594119,-2.1467885117275998,-21.2845845863242,-37.09211528436783,-15.78790058047115,11.738930591475048,5.027346217538874,-7.401980120818045,0.32917425924398813,11.868338781985997,10.47747982939645,-7.324182867371825,-23.409824085583928,-21.7547924851309,-21.17594904868305,-30.976731593005002,-40.817522131037556,-51.86911981959662,-54.100457289142426,-60.84295961631389,-110.21620904132783,-154.569739764004,-134.96871294644947,-35.64112250358795,255.65021015091264,633.0358585080626,561.7949215368874,-9.11424621389844,-322.79158228240533,-129.03825542886347,-10.346828505676388,-131.3040098767222,-142.29685845417066,-51.30340213623893,-45.62322989854145,-52.72988349997933,-14.70539993975396,-2.760121398358798,-16.095809541780916,-10.308753876779182,9.286256769456685,12.907079924891976,-5.254296955984367,-8.159001238362045,14.336333252212865,17.74928855518966,0.2537207979465528,-5.425518849485723,-15.278654638756962,-34.820800830584204,-23.50824094166377,12.769667737529447,29.45174026920394,31.618110631363223,41.77886238313525,44.54231223787464,34.27549045805948,35.289958132977986,44.74731972712537,36.291025789819855,16.333322593804766,5.545711358156442,-8.152110093207988,-38.40070135990419,-55.981914328522244,-32.37397659705358,-3.797175870525548,-18.009143135627863,-37.61367427941193,-8.914737245729285,20.725148340206715,3.075516959524022,-6.230689857127876,13.369026777114215,-1.2284410823771843,-30.036691142305926,-6.525145301326258,18.2891081527891,-9.73521030914381,-26.45678648785444,1.9253250260627195,22.949508011938285,18.367202225359208,7.614088220362173,0.7467581711849061,6.633598619702627,12.30017820837923,3.073762604299519,0.5749476651560936,5.55769624616703,-7.054124735260213,-21.474300125939596,-21.806510970129224,-32.273330489601534,-51.67921203076767,-54.44118260759293,-54.100279951568346,-67.6287004960881,-74.87756961658778,-75.8194485030877,-91.04790535440475,-110.36966882577062,-99.25267597193252,65.44344670420446,471.29656324891306,733.852439082289,365.64731413637094,-224.9795520876348,-289.59233001123147,-56.475541053112295,-78.44199520601668,-153.20246802484152,-54.72070067730215,-32.275985243335654,-103.0029303842813,-70.83073940769755,-14.532291759448164,-26.506738337276552,-24.835522699265844,0.4861563089577512,-3.179453143968278,-20.684711275968457,-14.298292969956213,10.780862429459965,8.387664305076918,-21.687868600858334,-21.48796097539143,-0.033123736571836204,0.20288204959696654,7.22379873444342,28.24428329145268,27.640859174736732,26.816691325204623,44.45115997600598,48.2436403098892,43.27902426927545,54.43317436947253,63.15633684162314,50.66552674973981,21.7688497688586,-11.330186246082754,-32.52730483497113,-42.65724705917962,-48.91626719729897,-44.2871206885644,-38.37730184991737,-40.988196710851774,-29.429084502888333,-8.907563468455502,-15.929981914848838,-32.257305690927176,-17.73760403579279,7.240541006045866,9.6931699940327,1.3528323534752955,0.3227347236136193,5.316496689330882,17.314737519611516,33.247051065827414,31.585174982238296,12.37639639579452,11.676361906879198,36.043575246321694,55.53847917335538,57.683331754582454,28.501114684493853,-37.26631894886514,-78.78966033291505,-56.2571986632217,-25.34691813463468,-22.424821108652417,-25.202608905297573,-36.66538572310877,-57.56957676506109,-52.919071371554466,-32.508272341967015,-41.3756157840634,-55.05416917445272,-40.66164944946223,-60.36674524977293,-128.92204101169156,-153.80542346962335,-105.43703695541758,86.58456353386973,499.4881322150742,714.6866620901349,278.0035181662876,-272.93655552909973,-244.88518039032823,-29.798376746276595,-112.34116188152441,-175.5153244780423,-60.22149465323707,-44.57984031581806,-95.92344100401915,-44.89774897250808,8.779543770294886,-3.9372333304520097,-18.030766722976505,-17.468197655166897,-4.72136083537249,12.050848744424755,2.809304254503447,-14.798989570318799,-17.024660685125486,-21.875356791643068,-27.035656375093005,-17.4859438009458,-4.546617517216269,0.7771045619713353,1.2825863681463234,14.257955036460825,45.37410729852181,52.98665121655951,28.35558255145441,34.20146107626004,67.8737778354842,61.843487306098915,33.716201522011104,27.17127951263553,6.490756024357998,-34.91751252183005,-39.81927127213547,-17.767553448648925,-25.83448994982276,-47.389596618474755,-39.74138999126282,-27.595789182519013,-34.085976371152015,-21.029096328345616,13.66287815212684,15.867601644364916,-3.318689407955495,3.9467660419839623,12.99795874919782,5.203190605146033,10.41306299558607,4.573261794875321,-26.681630307544506,-14.154859874968958,33.851844837525476,28.5465240043779,-8.519052365223953,-12.20380091552995,-4.7646333337721,-5.7777391458571685,-5.822261557939438,-15.85772207666934,-16.148149466420612,15.285594691010797,36.786400910512384,28.008863513217115,17.04665818813032,-7.331201707370319,-57.26366672074814,-84.8380946682615,-75.69039811193008,-76.09316367513802,-86.81288835871639,-88.68967755287503,-105.89666269349635,-125.79922931519437,-116.09302954197733,-32.82380424165902,279.1861660553861,707.3838212384537,653.8503631015229,40.108378647688724,-318.0572053311905,-138.92943664389747,-39.01461945355443,-174.49815774763346,-171.40203001067164,-66.76898194870014,-58.64702454936048,-65.29263609354915,-45.89585257261951,-44.94128957246417,-24.467126436804463,0.7084243058903024,-11.77247750212538,-15.049511390264009,1.9873397616367292,-7.497368129372877,-28.566190222242632,-24.544373720365208,-7.529850449889235,3.513958488597142,6.8465380491153995,-1.9703872781510192,-15.789026902181517,-2.741983192305451,39.11104239925342,58.55472876870857,45.744554927493944,53.117209766599856,73.52416330551912,56.06971349350467,34.13828647959184,49.69638443255905,41.53173532954411,-25.69618667115938,-73.7367437401955,-56.37924587904929,-28.408403128495642,-28.163157459061587,-31.265127736286633,-26.588632460960284,-29.343599868588797,-30.3013765948291,-17.48693551422267,-11.613405390558725,-21.056678830244937,-27.397588301490046,-24.721940234914513,-8.21540450867025,21.708059868265085,29.758087054174638,6.113404604279541,-6.569259068710474,3.4627716392398624,16.655121385317603,30.906863916081527,25.211854665496027,-14.625287294198067,-36.63179586343366,-20.21302230875962,-20.411653428363273,-30.26511573591469,1.1690883458906072,23.507318980052347,-12.080096499848777,-31.56320595818458,-3.748412207179115,2.3721564392741215,-8.80586015149369,4.941765761808642,6.893210415291349,-2.9872167627340342,21.548920092348755,32.97163494434376,-7.619579829598187,-36.38732547548974,-41.63499519968569,-58.457039005330515,-52.804939178617516,-29.89762018750446,-55.84875901392331,-106.09161856973802,-113.629642067927,-92.14054552427585,-93.95136316265183,-63.04516268966931,210.56582021582875,660.3922089374465,693.5726322156813,126.1277625447094,-295.23036683468933,-171.54465539645372,-34.282849584084055,-133.22948519643967,-151.5436223877782,-69.2749687504803,-66.30367105023268,-79.20250161546181,-51.56680282955847,-36.78137427111487,-29.556553547364345,-18.440249370038714,-12.616535880781157,-0.9898132822089707,7.509359399125614,1.0921455130451072,-6.648327677412679,-6.492531662952516,-1.363392980782665,-6.644446633833738,-29.46789522543446,-41.52465968309933,-22.588524182850918,4.511006845566981,14.798088556779996,20.163824597715976,40.392020544314235,54.37727427302567,47.11330072703711,53.302551444750165,68.81450194010547,54.097739064091904,31.656013188699085,11.771218766842466,-34.01966442400414,-56.858999195390936,-24.065453804571867,-14.174729147707822,-49.18519745566945,-63.380888205682595,-42.63908650831523,-14.799417404667048,-5.2123553759117165,-19.091898987295057,-14.545014629267007,12.028221402402302,9.32752966563379,-4.826502178546873,5.394078749634055,1.8006614037721764,-19.336775600539262,-8.294316261312176,21.47709171201342,18.629246964652722,-15.2553067876584,-30.915891144160902,-2.8083075138382423,21.640648543629805,1.073144762724624,-17.494855835963243,2.2819172352546686,15.879597948712746,-0.46036007779493593,-12.457877866303509,-0.0008959072879231034,20.32821396970524,19.81089028439455,-1.6189772867191454,-3.5776732795291224,19.862302095273485,20.75405463862929,-9.000952095911533,-30.094777344716466,-30.941603141070367,-21.40591424098006,-3.4100032706772483,14.285744677461084,20.4679531386332,15.738157228152891,8.233492544135121,7.976864466302926,12.376903936574486,3.5891352272352144,-22.240260368310228,-49.297237357986916,-66.43739711207043,-63.68178128806278,-47.573357015778996,-73.47191794032094,-147.8564456053715,-176.71766332045115,-142.5029536443529,-35.54298228980848,319.4764096137373,753.3058995729356,618.983522176916,-38.876773104869116,-339.64480048780104,-127.53727646689158,-47.457436948223354,-155.97868153659095,-112.92112831914604,-43.14680802477519,-85.12975440181484,-77.76470147788584,-25.764852865550385,-33.23854115160391,-34.16483527304236,-0.5671522657547836,6.309131703777766,-5.1275198129100374,-10.724284254086294,-11.115801246118195,3.8157191438292264,14.722400620554849,3.3892197426161452,-0.5692314426792437,10.103429888891728,10.02498303935993,1.5922410794448671,-0.6718854855794874,7.257242789241156,26.654354117766943,44.99584836764187,48.375116434365225,41.563223828403956,32.556526769573814,28.85762170532467,39.95752659591718,52.0868901765168,29.84671272197632,-27.493309527465676,-66.01078175023541,-54.41755274357048,-31.51120053449652,-31.57607666094795,-43.582062623853076,-59.60966146743973,-68.88277455248806,-45.78884762623445,-4.357623473104454,16.466158637381334,12.183840072759121,-6.433872286375031,-24.732080378928266,-13.553218087127268,22.17255078390971,38.67429534032685,22.57381797800972,-5.249869368850256,-26.64428500456106,-25.001752608819093,-3.850573706158965,-0.07133926149600711,-24.54484021402453,-41.815949436057,-38.33931080520486,-29.017582036764267,-9.778580781128934,8.499202557339494,-9.311745135802344,-40.49367825431857,-34.254469227793635,-9.887025685903122,1.0836925166388625,13.852409511792253,21.77714725152446,5.639270330408019,-9.05407222971014,-3.1170622794322007,7.43616843341319,8.161319855755508,-7.7895021568309275,-27.3656979364547,-24.721180444152107,-5.392412261679588,12.604624768729565,18.720006662643307,-3.093086676719402,-32.47297220496809,-33.5154287012517,-27.5403202751414,-31.671298028603857,-36.0850091138968,-69.2228540991756,-114.18225121227488,-105.41041956083632,-83.47016307204856,-100.3307759638026,-119.10356300243228,-120.55967568388161,33.549623534075636,489.52528574941573,805.8724562028723,427.4787090889116,-188.1076351642585,-275.8596120152471,-80.75370173580987,-114.43634905395336,-174.99387837426346,-74.94722149902753,-52.87384175572258,-120.39527761979889,-91.27657375624187,-27.747371908205178,-14.818771019236742,5.885179686158086,13.85284142892382,-23.73541876470648,-31.65339434185986,3.592912885443125,19.630918636500603,16.676925049311492,11.748584101726657,-4.612240691712692,-18.83070627857029,-14.923801041986051,5.397010018358435,22.018505714489752,-7.153751701157834,-60.18373699037626,-51.637797850236396,7.52620217072969,33.74198343491999,30.978386649314658,42.87874178678048,53.55779558967512,44.574255550342464,30.818788161143516,15.16726001916208,-10.341233998304972,-33.21152140284796,-39.62762447139414,-41.79750838788894,-46.089600231480084,-35.868453062712305,-20.30757046263244,-24.33496124980756,-28.14144148102082,-10.05458335648283,3.5875159996012234,2.7578836001095937,12.837142707282005,27.910088798186035,24.56907111115318,19.78239282607906,34.86552258992773,42.92689018599077,17.615952450157025,-13.11963004454472,-21.989035009109813,-22.76268486950374,-15.410900094472833,6.515399611315083,6.010070980105729,-28.48447452405903,-43.36663032688376,-16.678823559725195,13.485675267957575,18.15651163470911,2.5039977398848183,-12.514417038524293,-18.538477539759057,-19.166839024510324,-8.603924126655308,-2.5210305796117822,-24.488706921857506,-40.28872905014563,-19.9907188593572,5.759228404750609,17.715594779074046,9.603157135587612,-21.92534579402846,-29.689444105760046,0.13314688639552763,11.867665424306871,8.920890624141748,19.233555081795018,9.945628569010076,-11.302001608874923,-1.4879101891031858,11.59171884992422,-3.7922708354842634,-24.42005934398724,-29.832613458689032,-15.382830098855077,10.260900612591808,23.224361591005085,16.8279193356288,-4.32326141538104,-36.07382437599871,-54.6075419956516,-49.11411401093573,-47.38670332805246,-63.63434619403033,-88.87127816288162,-120.45577676547072,-137.5875142401862,-133.5031961964352,-120.38630169942849,54.617899699413044,520.427384085558,824.4448600239879,432.0593318935025,-188.57301268881787,-262.84733569056664,-51.102554622790095,-107.59483935671763,-214.27275624737794,-120.83000121748061,-54.64884618534266,-79.68323557002415,-56.559551681622224,-30.562475045834955,-42.34045623474867,-23.78065339482393,3.7496468782744934,-2.764349718268928,-5.2101833496545815,10.179703023959092,12.74103395714419,2.3014104252371235,0.12706722876911836,6.571040300824975,9.553519121670668,10.07067188216924,13.59506572616843,16.29654199440176,14.283094670657789,5.73789695901905,-2.2630671565271303,9.62833029040784,34.87224699638432,44.5837288347673,44.68688932412873,50.89173664815909,43.832874208826084,19.823823857338006,4.588872363786357,-3.3560837803702026,-17.74244907424717,-29.75888525760214,-34.13688987688035,-32.81726146310446,-21.325263204927783,-7.321476444022584,-3.894972312063053,-8.53515081563065,-17.422958788579116,-26.00127566212302,-18.572369167382018,2.4406875581942047,9.929643205198275,0.45752018865452504,-2.4550095447355367,4.726896517057505,12.106385941003037,20.719143118992978,19.369523666608785,-0.23569500204529303,-9.249888571479177,2.282790706402742,3.4764228908351997,-2.7169239220525245,2.8158282663371326,-1.9798166335594491,-17.263977099736593,-7.968801770239283,12.075358882908816,8.911255321894792,-2.550061592524763,-2.138828739309445,2.800844201401926,6.52185395147699,7.662555316107544,6.852175999817868,11.06957207733645,12.910869914499273,-1.46889095689286,-13.966221028858119,0.8075215517198622,21.779917494992173,15.986009876072801,-0.7472054606093748,-1.233033437404215,6.5127295192782455,15.927026202138759,30.04528257610043,29.809169695163774,10.582384749756438,0.9030705634873932,4.385072065589326,1.6724578391601703,-6.071962967676827,-14.269744121517224,-20.60278609187185,-14.802350569068453,-6.637686075755732,-7.88286014327292,0.6470732869242788,20.034806744553805,24.796677052571297,20.420453643825923,21.552183743148177,18.904821381273802,9.104505164859473,-7.358612225021717,-31.25213615258137,-49.70821040219254,-59.43860305864892,-65.18257784261627,-72.57761202631302,-101.47237946261082,-140.3949063783438,-162.74994079381062,-114.45635041945599,195.6279569825779,704.2078633065144,765.0147787092305,154.82080213344352,-309.5511409528842,-179.99244671692577,-36.35427822964638,-145.16755176331088,-154.55512102384026,-56.78461480630627,-54.981933512254955,-55.81443206061257,7.523462217533691,27.558077671275306,-19.353497482779055,-68.32524057152953,-71.10029498602894,-35.24360360788502,-17.73555414865948,-28.242262329545824,-29.868138900917256,-23.67892174561169,-18.793968851894974,-8.051969829135693,-0.4715143571013929,-2.4962097000000583,-7.09991620886589,-6.2492502278854465,9.583122180249996,31.07325358024496,39.37747797721373,41.35287016562723,44.97208266675419,43.26334908318322,43.43145750050743,52.38178419740579,55.582511310748316,43.17563214664271,17.64189756725759,-15.63314848257265,-38.70054035644637,-37.545878389423635,-29.14193884871265,-32.388105467809396,-36.394457927367206,-29.2889514142646,-18.833866363868026,-9.11959101786254,0.3574428433595678,-0.039421418632882954,-10.430726220532733,-12.459753984152103,0.6870341836397684,13.912463568004014,14.177428395849414,5.237509771993921,-1.1129870497456373,1.6821384499312853,12.364366226086364,23.380446189563575,25.33108374781886,21.40177288325203,22.55363641704893,21.365239215645367,4.733103766845954,-13.771461762820728,-16.942916569936457,-15.333123655907794,-18.134843380743018,-12.77302295260747,-1.373979646534048,-5.425491213040711,-18.62220890432829,-17.40053856370166,-10.421977235819924,-10.634400019444545,-2.3630378093895605,12.62003598627601,13.536724122717033,10.787052429077615,15.7826831155832,12.202848457121918,2.8646070878658465,1.601304680217508,-5.422915515475479,-21.331653873430408,-24.765829907832604,-14.916903372083837,-6.28385624899547,-3.1939481364995626,-6.039258709095624,-8.994417148013632,-4.831352714363366,-0.4104755397077753,-2.215976187453803,-5.325402078010522,-5.060426457186304,0.8065970246500971,11.793546111628807,23.689836097907293,30.68110591238473,24.2568253228144,5.238333051808113,-18.26291656186243,-46.44148760523042,-65.96378642001235,-65.39522138324907,-71.61981338052779,-85.50270933594508,-83.39051792417425,-95.89662041790427,-126.46915781629708,-130.9705346587058,-66.31127773788617,226.83907742383818,711.2684739651106,787.5425673647904,215.55233106706535,-242.57024091747192,-159.70886421651778,-78.39676531138608,-206.58937635476607,-188.954497143995,-67.98465257910145,-65.9625095990585,-79.3582274139234,-43.306431925813946,-29.458720215645425,-12.523832303656548,14.261145271290127,2.023071907650273,-27.37819259657071,-36.087430544069726,-24.686561210815086,-7.7586875802324045,-6.6849452154127675,-21.49061997512471,-38.617538035193306,-52.675219474197604,-47.43718283842387,-25.226800831052653,-13.871516114535048,-6.730745111364458,12.25646769933265,26.75898897837636,33.23619459812045,42.87754740329436,48.038147342971044,44.62972177016507,39.889349980943614,34.54800066618807,26.964694456080526,13.880850276141976,-4.397873691940979,-17.7166198997066,-24.716182816097657,-29.655813083892447,-25.951601816712984,-16.265624855104107,-13.15540430379592,-11.798958359303583,-5.012409081128856,-1.9817426341430817,-6.2508650095974,-8.318557133048333,-3.9305522506953183,0.5798024835158095,-1.5476838913392,-5.908507755151089,-3.906541309091253,0.2010562388568884,-0.4301862485006902,-1.9893625798727363,-2.3335923726509713,0.14331285138292382,11.337833486492144,21.030734082428605,13.051108220187583,-0.4797186264573723,-1.234317252352965,1.7484144877016683,-3.164607104169413,-9.725331012446416,-13.471259500506445,-17.221921216641785,-18.627227985567163,-12.839248438151529,-2.489171685991182,2.2340550311088485,-3.316441487017477,-7.806171233839606,-1.1895042930687252,8.12666455035034,13.828452928298107,20.197402552370384,16.335343717444474,-6.368735640293874,-19.889663611869562,-7.257806603931035,-0.7219746653264671,-16.107296689020615,-25.02125801292305,-19.134724538684033,-15.796895732574747,-11.225861314788201,0.41225979907601484,1.7491483882710384,-10.222121133488578,-12.146630794960831,4.308587755360954,24.809587624913167,35.509148763719516,25.511536225728232,-0.7484549468045154,-19.17404177494908,-26.158785989599053,-34.500335070656455,-40.409005775770794,-51.91838628257386,-75.27097533713044,-84.14744418408101,-85.97488149185034,-105.29383716779253,-121.6167902782986,-102.95759215415923,82.18083813718849,521.6087250109788,779.4731194089708,383.72380581440495,-185.33129019395625,-238.47576892386545,-62.56736906016411,-115.53162255915139,-172.78381533426526,-79.25161531787356,-46.87950369797837,-74.67546709213892,-46.39443640621762,-22.74078060687055,-24.459105008288013,-4.088767004307236,8.09579435168897,-2.9513269898082566,-5.3730861198226165,-2.220001926715663,-2.8295090022886855,1.2333743378424984,4.404935810333436,-2.7442103483987337,-13.985773334358848,-16.084269855575105,-4.533405323881608,11.600171755716627,21.998907026737527,24.67584284054748,27.057222216093994,39.15366340129989,55.64795606090786,64.61083664196568,69.9299090169753,69.79918617765051,47.16929177872036,9.973181201451938,-14.333999171545777,-25.460739074457585,-38.45245923121857,-50.69761487067245,-54.265953438704926,-49.21552276783811,-35.96022169465357,-18.436064741510428,-8.07993039622837,-8.99403180043086,-9.212468417711115,0.8960266651137241,13.707528739753396,19.001111889413117,15.075413253195848,1.6687008669647572,-14.84946403526989,-20.168266041598795,-13.018232839784503,-5.921418993922229,-5.947147333954721,-12.845025149080833,-19.979537596133053,-16.0636267725954,-2.9285708793338276,3.8247717372676977,-2.143036774769662,-11.296865748196574,-12.087879535214135,-4.113053584561589,3.8287353182921326,6.670940637888143,3.1873173329553195,-6.667789767078771,-13.294352739570979,-7.835581568287627,1.3671033729749729,2.798945299207791,-4.3751935819050995,-13.815879186395257,-14.671359610393587,-4.590895677774762,3.396978017679609,2.020535393543435,-2.8925306390325662,-6.491794910338536,-6.077917693578273,-1.6807646181565579,2.1226186532314335,4.425185579755356,2.183646843132819,-9.504239716697466,-15.276924782488374,1.5529557629582555,24.775058531763225,34.11481286208162,29.436176398180546,12.114325775103069,-7.952445189669932,-15.339550036895194,-17.49150043173061,-25.055504044584353,-35.441486621110144,-52.83844259460806,-81.0754177954295,-114.11670805157591,-137.3785751283312,-144.67702884697854,-131.58785739777858,32.201211203514646,454.49082206612235,743.5613417116504,407.9885638481371,-161.66698565066406,-256.7618816237017,-70.83170150121727,-90.95499560593754,-153.941059617499,-73.504332066222,-41.91078098864893,-70.86239599106422,-32.80396447626866,3.4524507315222195,0.7588765213392001,14.583978301530664,7.99961149458219,-28.012281382186934,-27.625627784434187,-3.575578945098295,2.250081391701677,-2.349190756917938,-18.698418068853094,-41.43841990247384,-39.50205301454467,-17.99754417377236,-4.064622057999894,1.4327712785266868,6.565909435111304,14.549009208098283,26.80458016837107,41.9500672330435,56.24125966956201,53.587153982283354,29.089469454571432,16.184130030664218,31.334042789539218,43.28839697757015,28.06227790358499,-10.198502889623626,-47.885373664996855,-55.026054409845734,-40.668458972326945,-33.211998810633574,-29.03458239949215,-29.120963213376317,-41.76362083335134,-39.79518590223569,-11.232565441468477,13.124988209806347,16.306623971358626,4.922571173811264,-5.630606922835625,-1.9828560633319867,5.925709065072862,9.856126889390831,9.325820712181889,-9.523722570644939,-29.830050336070087,-23.026559150813615,-17.075706393427684,-27.297652518547483,-27.871078228351156,-32.58703950530287,-48.72429098056019,-38.98531496607378,-10.757116598028723,1.194043230485267,-2.518340729988811,-18.51334872160587,-34.486236649045885,-23.826854837372426,1.6475797909307417,11.081532866951072,-1.6125875551922562,-22.548730180727446,-25.40177162023475,-7.169032002592658,3.8897466592113794,2.0134395621607837,-5.909762955911628,-22.173006190459738,-27.509268495249387,-12.735206405578078,-1.8724798106388398,-2.0175516550213537,-10.346796151387213,-22.705704606321202,-12.205543155267673,10.66949801758447,1.9243146263471296,-22.67025430303722,-33.04053680260299,-40.53521925446856,-42.11165566632844,-36.34345701120204,-38.46916966182398,-45.35691987307521,-74.89969648594803,-124.52712662946612,-134.14542601027523,-87.80007501519091,96.5353151716499,504.72627108190056,731.3292378977496,317.5964167658204,-249.0443835695176,-276.1145569737317,-70.94237462105677,-114.9533921776606,-176.69101583049815,-80.73402603745177,-37.1981969609432,-49.674724692813484,-8.12144807851224,1.6453970701578058,-40.79037081225202,-36.722153079006254,1.5645552251035628,18.037527031538755,20.650038696292143,12.331668511948884,-6.320572548217534,-11.337874364786403,-1.7137062538039576,5.886033641518471,-0.780287619577166,-32.46351491317502,-62.13563311075092,-47.17199687322611,-5.656114839269856,24.529018383735085,38.83367743245198,30.554521147145685,10.299046766778687,16.36801245369813,44.88596313503581,65.68503678359205,64.6819396337959,22.2228569316119,-41.366062595182115,-58.43192395909435,-27.924583897962158,-9.98261173080201,-24.45150620427099,-51.073273749499805,-62.17731091865993,-42.751950784253324,-10.056875467018898,14.094542016784631,14.684797825061828,-14.816411480308005,-35.24694334108738,-13.455593549036667,10.476507751007034,2.861172253364458,-14.155257199918648,-22.075874436246448,-17.43797362178134,-2.4010462530720487,10.908793631987288,19.399787635867227,13.690116895856969,-16.391192142852535,-33.948136378907975,-8.431723446431898,24.745848533942496,30.02628456680603,9.90906688369472,-19.203217792666695,-31.31735226279787,-18.79487564844007,-3.637987266674248,-0.1289510639689766,-12.312985728688034,-34.8976444466657,-41.968389078699275,-21.909797469550767,4.9764314121906,13.542847839661244,-2.5673972369854354,-17.794870655464766,-12.118971729315382,-4.8395820437702355,-5.692909340535991,-7.929807310184881,-28.91248069350395,-70.64197961161149,-97.89528044117927,-93.92404787763255,-79.63244635318046,-79.25530975808746,-96.7477266040294,-116.00740453375744,-31.707231123725904,311.01155639466606,688.2250457181945,533.0481767276234,-65.90147504372673,-319.96439323452114,-110.75016461788405,-28.722558548712694,-125.48720331176449,-95.79811553361502,-51.52375593973794,-96.90127813610248,-73.68098785437549,-5.832034168824762,-3.3932170386160507,-12.594411629310063,-12.954207604447026,-30.71373082175953,-20.472838056650446,16.661396750864974,23.930933952223395,3.935276136952101,-16.52958564383995,-25.99807808830088,-9.19034352297982,17.015942793847003,10.820010714051069,-16.636550355974947,-20.625675599565962,-3.385846995886779,16.960947434194424,47.619256255385956,60.84778564814831,24.3750754491586,-6.0390555461185755,17.64904783828489,46.479845603742916,44.907897783508325,28.822164108138402,-0.09155942449550736,-33.54687149185192,-53.50490023827472,-58.5062870161471,-41.09444715831367,-23.522779458710218,-48.58496804193291,-70.4301129233722,-34.327847888765916,-5.3307403459312255,-22.169165677206166,-16.087905329107226,19.878409143223045,26.476971111280893,22.249673381146042,47.270788265137334,63.82505564372171,37.98508132044259,6.393496683135078,0.27790504354336587,3.727253597309291,13.603933755068942,34.96289976255679,23.748870152090287,-40.11863919031059,-83.76421762274846,-67.01947014086215,-47.31055916847909,-45.14814447233234,-23.12874267466778,-1.2570235055866306,-14.21635304464796,-22.55045119641809,-4.151918707230408,-7.3549220498420205,-39.76649256796935,-59.82856807651055,-67.41366436928901,-72.26341660004013,-65.4984414103711,-68.01382861685498,-98.24317960244608,-107.95693504017443,43.0981997809709,431.7910598123349,712.1090650123818,414.3007982357807,-152.40428048445386,-270.2566415077334,-48.66676379856438,-30.21734953715491,-131.00898856608012,-100.20659497834242,-70.35238714466401,-87.7858583773976,-51.12952047970926,-22.47648919818412,-33.853107959334814,-20.593027979624985,-10.598061788595235,-20.76178981412322,-6.439200295081855,11.266935452383473,6.91783840461504,4.635403137053767,5.150328698061666,3.927539723477371,9.383995975312601,11.880985786696337,14.893589505008695,27.902105264986936,25.14365619102321,3.3698217965468285,10.794060059110251,54.158475502119366,74.9985834473431,50.181572900302285,21.09352233078407,19.422866076622423,38.883836365552504,51.423476359289815,24.54315749831077,-27.616249565975245,-57.3965545033955,-63.512915566808246,-56.45845147049012,-23.915212879569623,-5.8793916835494215,-35.25451295675269,-47.72035813169185,-18.664996253796826,-8.213042709341604,-12.999285644319372,-5.575585056146853,-22.123669333340654,-46.17222303518335,-11.298378995707267,40.50104148489531,25.2198286945062,-21.287194042243705,-28.243782271624585,-19.54549173277033,-24.029337848018955,-7.889938531034572,13.856012304791385,-8.9057312062553,-25.64444957132099,13.782517629545953,32.94308047579462,-4.7218788400358775,-26.7139796331736,-21.971725963894052,-29.92400930514141,-38.28533752389387,-43.5915692220148,-56.859122119326116,-67.39583399123526,-86.89393801017827,-113.01735144505984,-115.91632748913457,-47.83120055349005,230.39001531939988,630.9620078080218,605.9321984109467,38.9688878771466,-314.3927736883319,-136.2135392945105,-10.557590977663487,-127.71237302909803,-122.30327926284019,-29.82906242781907,-49.92493680651702,-50.521057465330756,0.39743505470197427,-24.721796633103512,-43.72309652559784,7.820844536952244,15.023982756720713,-5.996005649015855,25.15115018841792,21.078507434245694,-38.94709055061722,-26.262597902928924,38.040526227754626,36.4058116212249,4.7423131650141634,5.6954885023221244,5.235308918445913,0.5776663232472465,19.510910385539624,42.47212462773956,52.28984244119269,47.43644109932375,32.46856244493674,47.63599475327642,87.69887849318927,68.20147617840564,-5.964681718843032,-31.859148810432607,-11.84916935161823,-19.941961097073964,-37.589762921237586,-35.19712974531455,-43.08647354472906,-48.467167484005216,-30.140063088594538,-25.29162854485836,-22.34387987401304,14.394062211523678,25.75028606780842,-18.60521440832883,-41.37973736420119,-22.15094362615288,-12.597576326497922,-9.447188276235035,6.439836502585198,11.220368160671015,-3.7396462731750013,-12.245996227731842,2.1111300962227766,18.900989557821095,7.963960015186451,-16.016788696879843,-17.40176072307613,-4.888556315888989,-8.643124947745678,-26.40334953386931,-31.216758418893768,-30.472374433119796,-68.6967945339293,-107.16133661158962,-63.7764301822211,-23.7042996572297,-89.55299604209851,-146.57444956412473,-74.43035266041201,166.49083124562713,547.3749740769156,662.3372722000136,188.07037668342997,-297.5412709950039,-209.1126334341945,7.713547445336651,-80.60594551168262,-150.73732187537433,-52.61858700419443,-30.451625669684276,-72.70421834779425,-40.52345243016912,9.346232978784007,9.908935248219468,-12.166644563754048,-20.158322020612186,-9.997514255062596,-1.5244762410123074,9.990451615802549,16.487859574012777,-15.46676707755627,-34.21617004807338,13.101706523192616,43.30356596528509,7.729915823141258,-15.9468928087938,-0.21863270469560092,11.817130718961236,13.167733860962791,20.040009761737274,42.22394473174196,65.80345261618028,53.57423425505644,21.693045886541313,23.47640943595139,42.66851897186962,30.37763440665385,-6.676763117162954,-32.610777482613216,-31.503782111941963,-17.20827533389139,-9.707610108894094,-9.59811436611733,-20.279361940169366,-41.23702055382475,-45.38613920113459,-33.96803244691383,-29.527132746131016,-14.686926005025565,1.88602410465319,-16.976530353253672,-27.65715854537045,6.386869850225186,24.969900029252585,15.807754789594657,17.08623618468018,-1.213585684043089,-26.78353309195866,10.245142189546897,48.25654806718282,5.722330650232212,-30.39565517078976,-6.553757565629629,-10.614314798922837,-46.48462218666855,-43.61822361549808,-36.54625972351353,-54.01042774276901,-47.287250977652995,-50.14533158700454,-97.53860241228018,-100.30350081325234,-66.61650623879476,-28.863240527203402,230.7534427755662,642.0835271880861,574.9870907025156,-14.028662015202045,-306.8116344337544,-116.70380609040316,-53.4321492563101,-171.37301728659372,-113.99009127141554,-21.41863383674449,-79.30477474270559,-89.23340993842464,-3.493849225064835,7.983308957533431,-28.651595181973626,-10.424652033633047,11.338141738131803,-11.55082219708757,-29.32471077225946,-18.90864356771469,-10.209413508942468,-11.57674186808499,-16.479861819729575,-26.27490014255609,-21.62471903987137,8.732790404288643,28.764728419528215,22.42966390785559,25.11768014803935,48.28669159684338,67.99579969269136,73.45814341035131,65.5890786261385,54.07709211340567,47.42063060973215,25.534786673003996,-7.661161942735529,-12.133500170973612,-17.985877578042462,-66.91782567052113,-86.55319488895543,-48.798478744162395,-41.44393405450283,-47.816545727915546,-5.329652548874961,5.506799651724073,-39.59904025691634,-37.78853915074403,-3.186044463979645,1.7804941426862975,11.688556528324284,14.948164192367294,-16.4523032547321,-20.273477068257897,5.322734966151714,4.218564854882263,-3.4326633828871636,-9.69461416174445,-29.217772406422593,-16.39905291485998,22.13109546935912,21.274140713759095,-1.90429916810157,-12.63133869367704,-28.263095166622243,-37.8677193686954,-25.019643709856247,-20.03567588435509,-34.28019988638825,-46.28762072178055,-55.78082730309198,-64.990134209991,-60.66529345821148,-59.29006639871288,-83.06375479714556,-114.60691441803634,-113.69385780777446,60.074005867616904,496.4976246459376,768.5960006691496,384.3334817092133,-196.68070875294816,-254.41919586320012,-68.6506167064646,-119.21320876426931,-171.5171621804307,-88.31618063334876,-92.64471186025143,-118.28573353495649,-48.827413832325995,-17.316160101346668,-31.28975286382972,-14.92425086068576,-16.10635150556647,-21.684970749667137,9.532821822160379,24.667243962313727,14.457506803343563,5.624288304773195,-12.604889661458024,-18.13624058364908,-0.44598640001912315,-0.254138108325197,-16.789154341535113,-26.1877053227798,-27.20582860541497,-4.16665720285296,40.29794118930538,66.20745737777199,54.72792811864939,11.991224344617553,-35.722240053926065,-41.79235211534678,-10.2547845557778,-3.610209106411073,-38.98433762429425,-63.56958350883906,-48.03651955035715,-29.3767373434802,-34.280732453344996,-34.694351714036955,-20.765320707773167,-19.199269468082072,-20.943428663784577,-1.6937488606315902,17.446065996362933,11.760649026385632,-4.438656893033897,-6.805420244724654,6.564997029394842,13.668323658157394,5.603379654322641,3.588553101540643,6.827889215683571,-9.650138356840042,-26.189885408232264,-8.568060745493021,15.394912767517532,11.57801462404393,3.141331845826709,6.044349146743961,2.344828299257723,-1.1837495221671395,7.8790904758986695,9.487726589709998,3.016230778999894,11.38803788873354,20.080387330060574,4.0008440897771145,-20.686509287331585,-26.241561543391278,-8.534327570007038,14.23403857807244,20.809566831965817,13.32570319902279,3.461149911730997,-12.267425850798613,-28.193822962741198,-25.764476136331826,-13.403356101817035,-15.122645543293018,-28.553209014978904,-49.289207880402905,-90.00995035701128,-125.98144693218104,-130.94589902066005,-123.15374396599424,21.997129707801776,450.3642437922326,762.4851726966286,417.0352493646717,-175.5916543659019,-249.9847355285108,-34.94776998591382,-81.60177487706719,-187.40556697260604,-105.82995879773262,-49.45415374374464,-63.67340194945883,-34.38203681593764,-35.661863102643636,-65.31759771132744,-31.99335090551499,4.158507176998159,9.552824484152477,23.343330217101713,3.1303133526037037,-35.26835270816318,-14.868942195471744,16.3113769052923,12.290646061928033,15.18850090074946,8.770544411673512,-22.217162533824652,-19.9189437018872,12.239885783277789,24.24840108326345,18.01276747130518,-0.13743340697979,-21.29158773094677,-10.228498295056985,23.318878929094303,35.15162333593401,19.360631824451062,-6.94737761859869,-22.584929533833172,-11.39970359031884,0.38050648595670644,-17.553080607291527,-38.44753370798307,-29.31213988425213,-6.199687381898721,4.923443088548128,1.972710842876543,-8.824664181580841,-21.07497734054284,-28.075216539118035,-27.626086515145428,-16.295127552024542,4.862798657622487,15.747895895705032,4.972084404913769,-5.927273508180033,-1.9616764830877194,5.153779439653068,8.592637800168774,11.11090487459729,14.049969605055505,14.635698911391097,0.026177220329834494,-18.99407063921378,-5.668131906438315,19.52698143279987,6.509929371527647,-15.739223802567293,-6.148291932244637,10.9269323248942,23.523451692142846,28.917642583308492,-0.8096920712036777,-31.190580361876403,-8.291650001660583,20.07121810414403,6.136201837755468,-12.303157893784721,-17.713159835592222,-26.958809019197748,-23.705803989758962,3.2463562313431993,27.35339327254077,26.992543937658642,12.300408639182814,6.768064093021765,12.893739727546272,18.705777002569317,20.18553950447619,1.0594135308028712,-42.54784221230761,-65.55008289931845,-55.383866782040236,-54.804561130481524,-69.26109644804532,-93.66680018823908,-134.22338282129937,-147.9689208396138,-127.69134176632423,-43.120609431102196,291.78522426500297,727.67544819638,631.5560069881752,5.178486489858585,-311.008474401238,-119.31168106342578,-32.27782980127854,-154.01105245702155,-151.548916482216,-86.13890959991902,-96.97351313902709,-77.69156866810576,-26.57293462642204,-25.0922136824383,-36.659204143781785,-35.45138865727722,-29.552302078443567,-5.017563670516616,10.55197050972186,5.425195869740408,17.150814138997315,31.38002867609022,32.232414351537344,45.875962509908895,34.680783346872666,-28.257813105323134,-59.39878996130679,-28.00632281245555,-2.2809086033230255,2.2771362254637824,3.004440501996588,-7.2693401789680125,-7.827383948339356,12.326776956059597,24.730399936035532,27.84691873020602,29.280334870702706,18.095318139480362,5.304025461046239,1.669905217564089,-3.5415541017204433,-12.688289230198391,-27.929952273851498,-43.39437828148968,-34.69016912980213,-8.034245738031387,7.417588878811807,5.9766402747283305,-9.84755722270143,-27.466824140724384,-21.21216397042065,2.535198445373242,16.410470537003064,12.613913751386917,-3.596703241986951,-13.688491083795682,-0.7508096780514659,16.5154453640548,11.47097062417403,-11.60828171147741,-27.520061025955968,-19.074283233526966,-0.629974982628692,8.875586476470664,15.19031653836826,12.130201058890973,-6.192085154520232,-7.137490479279599,14.694534634360604,23.63890753439886,16.33790648045356,-5.618221078787045,-47.477774987730406,-62.74865946090509,-30.720383102487435,-12.492792877938076,-21.659672804851706,-10.278126288875207,6.759530239948875,-7.1381359010649525,-19.601428446928622,-2.066352999485826,13.235836144163834,4.567505100260433,-5.242329617961742,0.4135863591386011,13.012821555034872,24.069637472582656,26.414463826735957,10.105951803680028,-15.196679075317093,-28.28074258174639,-35.62438809396152,-50.56430646153827,-60.602294191401086,-67.54828076276424,-82.53164544399107,-84.27522997926455,-81.10705163576355,-103.61039386629344,-121.77373676877978,-120.15087753044597,-30.846796640814077,340.09615652706583,775.6555816382079,622.5417360881194,-20.93946722901842,-292.42057883854125,-99.1161862875475,-47.83883549527314,-139.22407153916626,-82.00573649924445,-37.22510199306648,-97.06264609817816,-79.72539640382394,-10.351218752524717,-0.29770847600780925,-1.2963012555873075,0.06727058973477096,-19.942309951100842,-15.669722624761146,12.382951847312054,17.570936825222685,1.448273901250161,-23.120997294643434,-42.74140582991614,-33.32088512686489,-5.6207846039186045,14.538252343848175,18.22756305652992,0.6426071269867162,-14.589405483546484,3.9938670746221607,35.51922197957842,49.27876897721194,45.33899154326063,25.479693929940694,7.019954104673914,19.57822082454448,49.99769734919712,56.422487807231136,26.57683096043556,-9.181611138632817,-21.330674805625144,-27.076034929052035,-42.02526483945874,-40.10451113472115,-30.004682898344214,-45.025190789625086,-53.47517625022148,-25.004135585618663,6.118433859684311,16.56846174480079,8.615696740809835,-14.945357757445068,-26.705993694472863,-7.479779083294013,18.640551723442314,23.4139858772352,2.8956099112280285,-19.640798934525773,-20.648328653651724,-10.782740637271175,-1.3954866230368488,4.5953588805559065,-14.316716806863528,-42.87280465853702,-33.29201046196049,-0.004171047012258455,16.397770155734314,11.929745313074266,-13.480395752633324,-37.731429161319426,-24.404912900449197,3.241683367849168,11.054835797156468,7.489730001001069,-8.17388256744545,-27.74860571311003,-17.789952883809853,12.343997174649058,28.19431666303774,19.57380081933228,-10.40576308780247,-28.39598853179978,-4.333612442350798,20.816372478348637,8.859477520198995,-14.309921678086726,-30.37255452321528,-38.41533195524682,-21.54518285935658,13.902496418259222,35.372293345709295,27.205009907215974,-2.009973977321783,-24.05756250968743,-20.887419788180658,-13.32630742244999,-21.550562061209902,-45.58382234624874,-81.22084629281747,-98.27341543761459,-79.74524688481083,-70.58406108558896,-94.53974527810107,-126.69328464939355,-93.41000857755519,187.9840457289738,659.9149272580324,742.4631681919223,193.02061819689246,-293.16656957715423,-239.30393507668776,-93.17160105490854,-152.4266438148626,-150.9072884570537,-54.50607511065451,-51.02483021167342,-74.82356294926956,-39.53333423576789,-8.932733466220338,6.691717547435836,16.237400602134535,-6.443904680783737,-25.87556419203059,-10.277744985088125,10.308077602201704,21.92326498306829,19.291499792540254,-3.4673146291244343,-10.7819043802056,12.264359812658281,31.57806833440267,36.70013668162884,25.173356828399807,-14.141504981954995,-42.519095769775596,-21.90535214240858,13.055975948925342,22.908342316891627,12.810354252977106,0.70965998987226,-0.22827067269158574,8.74727756201085,17.12286697069164,17.110573121372145,-2.725214341049286,-30.592389352257506,-32.042849482045824,-15.294383760178285,-12.919560877856956,-21.80321294131361,-32.31933605319884,-42.949387819952506,-38.61332857949637,-15.933850692187569,6.121618827345193,8.308954773245594,-10.723234119163171,-22.6535559229366,-9.07741554526703,10.374649831943948,22.398309268851566,22.56233788748061,3.4953557460340914,-10.432611537845855,0.4780072061881482,17.490875182892324,31.076720928739018,22.7302145693468,-29.054958795409643,-67.89883154894284,-44.777984906513844,-13.48515144706746,-10.792695929241045,-12.625104205057013,-17.842854043166064,-23.371211426541528,-11.26556703389531,2.4760582439955963,5.119571477014318,8.559617878951425,9.823883030460662,6.916783246809053,12.915532202128123,25.66891970121454,25.678452784630974,4.786450140456112,-14.540591892728344,-9.035032388266606,8.74876358298759,22.14236515379473,27.523317847011004,14.973653549537183,-3.9178896855218897,-4.331079993440701,8.297845580928533,25.65275069775288,34.99442840149501,7.781673005456973,-28.100918669968465,-20.894008039893663,3.294208030546828,1.5778326230929354,-22.52428738483036,-60.75648709472763,-92.18836700172447,-85.46191610353523,-56.40512924081465,-50.80267347939442,-85.82201122557565,-146.11629981581683,-161.14651922190507,40.57539116000092,490.0428695698482,731.6255991954835,343.21738481678074,-218.655129447342,-281.6876977279011,-78.2901716501326,-89.50064217121071,-157.50173037339482,-100.57736926804515,-80.16790726490598,-94.75404796900281,-42.931402517325,-3.637416199854023,-12.061460787814227,-15.158810353951505,-21.663923427666724,-24.417366881171944,2.3855968164146617,25.795665880756147,20.814389456841923,1.1671810491991614,-13.029661244421003,-2.844264964178101,22.636213886841958,40.69698920604136,41.94739492462841,8.641799413789025,-45.93238146578176,-59.76256614432648,-25.01212949103116,3.2126564741327366,9.208104701300444,13.16280642037451,17.405588825322255,22.835103760040855,37.78454155223962,47.34138924698607,23.792362058712698,-18.83390449062141,-35.31862490993898,-22.259136174600087,-9.537245196499146,-5.7885152562920705,-14.13844081627453,-32.47949145600193,-32.27210795975937,-7.9466172997665145,11.13510639599722,13.234863176103612,0.2754152963214196,-19.475288898020622,-20.2201968429341,2.6665641327991216,24.069790560048567,25.36603337400997,5.658656769160435,-9.8800264863304,0.8486216357683531,20.96519596808833,39.22186799399934,45.786199288145916,5.228824038922006,-48.71760010206415,-39.21510381495187,-0.9248401943855242,0.8441024042959935,-8.682480462245962,-12.009864567269354,-21.25401683493332,-11.370170359335294,21.006132999407363,36.58649076060041,14.803668995126722,-35.90724774963505,-73.28650331390635,-58.32182641397851,-24.965469681894668,-17.32077919014338,-18.155856466211553,-13.016225548378316,-12.557988173792914,-6.715130562270403,12.94791172089936,28.389144752958646,27.480513801984593,18.080236685494782,11.93440175001193,14.41879255722303,19.07792749961909,15.126960309992725,10.65872999105681,19.103158810300172,20.25354176205053,-4.890606262986416,-30.41867521696101,-42.08119081763387,-57.65699578404184,-72.94096012943172,-78.1671608699408,-77.67193221152738,-72.10461935925794,-78.65204274817528,-102.89695358083422,-111.68083015376641,-39.745494090940554,242.33047393509204,649.254581462641,657.7429303083652,102.11356174615642,-313.8704370583645,-190.13728551230236,-39.43467975310139,-128.26442710584772,-145.66264913311508,-63.01973136061484,-59.66401966579887,-62.813516342195896,-22.980084842049514,-12.047967179942749,-8.453072089667206,2.623742061965002,-7.626206627093479,-2.8553333397677516,22.19622684135457,20.8506033695351,8.85192087123208,10.66284652126684,5.368385097962759,-4.813353584502115,-4.2674160598432,-4.035071715623248,-5.638092806105322,2.5376300579259468,13.538648139967796,20.585112168709685,32.06628386881364,43.905292486638956,43.1144507891891,37.52364817785846,36.4769908749262,30.509860804190282,23.796411022338958,29.17840098506182,25.436108886733876,-5.596526334531522,-31.65843430828261,-27.38021836166875,-16.36135089834862,-16.651406557920772,-16.775039776585576,-14.014476752616979,-13.9742886317308,-6.211880859100812,14.435038597193405,27.4022332388316,18.443030307556718,5.034959626730711,8.612833293734067,21.548270917373046,18.382933461730637,-2.310566374591592,-12.27623856557743,-7.3532142212629985,-13.498600356714821,-22.09383735845703,-8.617433550412377,5.40726772340984,5.5721304862322425,16.279992294009944,32.494903086419434,35.956970568931624,35.20292274281675,17.747174653330845,-20.193592691786677,-29.5075954515217,-0.8429331341660937,20.086479470961805,18.83515547063544,-5.927457174727291,-48.13672391104845,-60.39540827405732,-36.787788209561555,-25.503758768818784,-19.34666947146717,0.07598063358110707,-2.4176988823768255,-12.664692818962298,17.52636061868637,41.71978403309931,10.369704554805306,