ECG,-9.44145776995628,-8.750794113798431,-4.09474299883485,-2.8382288124852586,-3.5571490971551682,-8.319272272132043,-25.913581867842154,-38.89926974719925,-29.834498944313424,-18.7633538682405,-19.494262016791954,-14.146050379017886,7.129494073192506,31.772708124950277,43.03326276589071,34.53895526764391,16.72612522286984,0.9011942575499603,-15.40503318842907,-33.56975469379796,-41.68093282082498,-33.161096555127926,-27.373624177542855,-38.01407282716473,-45.553723805745605,-49.06495144578004,-63.11373960568927,-82.39911299447716,-147.898739013983,-191.66329483468311,95.76889358290751,615.6892104552606,622.0467956786749,-0.7879978261699563,-363.7474304813344,-162.9513222330526,-18.72456435476147,-99.50856229753285,-81.87956946238762,-14.536389294338917,-40.7512955714556,-43.87369493992094,-7.534419944436884,-19.124912369507456,-33.89795983907585,-13.827817947849375,-2.925692554310957,-7.072100549065842,-6.285994358431978,-5.447782428508621,-8.299751647039045,-7.407093783621899,-1.0767657070341181,2.327068008305497,3.5560676800073043,13.916321335211054,24.822127400625774,22.36731137077336,20.849799945595755,32.23924425669624,43.349521535177786,43.7642247528987,35.372349145348366,28.51089271527814,36.8618408437905,51.02776088512091,47.657913675046856,29.889727594275477,9.573397449733537,-21.377847437513083,-59.40888409098036,-81.03595452963974,-81.32884067172662,-69.727850571757,-49.64023945219237,-34.605920504046814,-34.7179298528756,-28.704123270069687,-7.050646124526434,2.313286921124643,-4.665861584654177,-0.5818184595760592,8.900761515184922,2.1166374040915557,-7.631738956019024,-7.602066837963623,-9.086933182801157,-9.163532783416665,-1.751271752979644,-3.6494139013462217,-15.530521406493165,-16.135731557947672,-9.343802866232263,-11.20189095063014,-17.711701161303154,-24.382039915901416,-29.513076159984042,-23.464734560531202,-8.213644536250518,9.243697006183414,31.309392176943874,44.19724188210124,32.92936511879212,15.634888325117625,4.863112795547587,-7.831628205231748,-16.74172036720437,-23.25746573859197,-38.066218011961205,-43.273186654345984,-34.410727960977525,-33.962426651380774,-38.21613980023546,-45.24767317887693,-63.88366033234406,-101.31521506858554,-176.85217993384333,-130.45123739895473,279.6968363234677,694.4002245163708,442.0147140780788,-188.68178876997862,-341.1144158885222,-90.17479586722656,-25.297653037723887,-92.22415197339348,-48.883289103772,-17.822522480078895,-46.441524371478565,-34.478638478017324,-16.53028991701584,-22.86896507149723,-10.96726054347058,-2.4789032631059635,-14.379532805306754,-13.763778841402662,-9.056630958202756,-17.218355606610594,-15.663857809099675,-2.972813154830778,-0.3726828349754978,-0.45573403797832546,9.60926802710623,18.689421957727497,20.36466522838631,23.024357364392955,27.1330028698345,27.46640589688011,26.873082509973738,29.527096586962564,31.063409127890306,27.067400104949083,28.20486995386458,41.829095897652486,43.947692561198025,16.630661764784087,-13.56885490002428,-26.91886550414308,-41.28803028678996,-58.515114880464935,-57.10584127389046,-42.936620646096905,-38.043633828921045,-36.65708474890124,-24.50204985624065,-13.779922103009952,-16.868513011483053,-19.18326509321496,-10.735363530932744,-2.5757721130442555,-0.13023327415816155,-0.9505717515551275,-3.2153579714595963,0.15545373016995967,8.051363372374244,10.359114847402154,8.47184436341422,1.6645999337421848,-17.500781846593238,-35.70177295326606,-35.497387487650876,-26.591734517335343,-26.29062080837904,-33.35192254621191,-31.088302612583327,-14.147710601715293,-0.9733293086964903,8.411863831308587,36.07736045656809,59.80459905146731,43.311300565425356,16.52647370516143,12.565233942294817,3.774533785836315,-24.521617453499395,-44.33315453751561,-43.29109145827924,-37.97561778023774,-44.358173843707796,-53.46206899106727,-50.577664566759026,-49.12340309533042,-64.83405005843717,-121.1732873172819,-196.38106193248814,-56.828680913789526,407.3544987147399,661.7364942856573,247.18321110057326,-280.1592009014554,-271.48767622857474,-49.69301162166344,-50.497451580752234,-87.82510238569506,-28.370542784578973,-23.339195086947278,-51.65894513498221,-23.55829828714909,-2.508761405209153,-14.042321687425389,-11.463284157482436,-6.211420778336168,-12.683669439290998,-6.733833905871306,7.363469593029613,8.845888499168474,7.929724884601439,12.308169882998424,4.799139860365525,-7.531946879946661,2.94598061623131,21.268212700111025,17.638662246628282,7.35404355710707,9.686521079897936,14.105161936856197,15.142715116143435,14.12690965669175,10.57417668540686,18.159199870297986,40.7138738337678,54.681300541635494,45.807500655463514,19.871484790390298,-12.364671224078384,-34.39752359008425,-43.317462627250734,-54.30130503792009,-62.68164547527273,-53.241366334990076,-35.83756690904134,-22.88052680246593,-14.791212816436591,-14.378946590452436,-10.563654715519993,7.052272097193171,14.750548120768226,5.849174192856573,9.977400550465681,16.03171098566509,-5.484836991252735,-24.0771794644768,-15.445445405552938,-13.567390888916101,-25.69392448499309,-24.1599121181682,-18.012095291016827,-22.590372384529836,-22.793944300044764,-18.21444465994294,-21.323917079670384,-22.892304123646262,-19.246987206430937,-18.823974197650696,-6.595045294806798,27.025157146452276,49.99505535212484,42.46036468759941,26.806536194231462,13.480156003470313,-7.464018794461838,-27.893044452408525,-35.37097152467908,-32.815834085389554,-29.586934668038094,-34.95084916333845,-41.34297544171346,-41.732849965517076,-50.349664622073846,-60.603985644619435,-91.61784793909592,-168.04114940521822,-75.26433895675908,356.9382084970037,635.0557482709315,256.37289544577754,-263.7579885799027,-260.58161731842563,-40.709531435841036,-45.46906530786003,-88.15787900740045,-30.693708997743204,-23.47996920890678,-46.93001467924244,-19.078855177621016,-3.775066719860863,-15.90934621773069,-9.730542948370779,0.23995513632595822,2.934531330247289,6.756425842622189,-2.7663905254041694,-19.244698233817328,-16.96689520860035,-0.912016805715425,8.671301782674089,4.543487294006216,-4.889873445910336,-1.4621147112803659,14.110094947555599,19.887882343850215,17.296164978023192,27.03377754306365,41.1418889778946,37.178713206214425,21.934914842931597,18.079030628391866,29.141430285681096,37.27199170544753,26.52670149554583,3.296371740559403,-16.28044070672335,-31.533782492432838,-47.574226688148954,-58.60031075414319,-60.69983236555302,-57.17264087088564,-45.91333471911808,-26.994953609583646,-14.383787744069288,-15.83171280149179,-17.672410056947207,-9.719786037774803,-1.3248145544177596,0.19304027792143685,-1.1643142721192703,-3.1871474509865187,-4.788111720073115,-4.126683053280058,-5.1765509361700275,-10.041609835586542,-13.477894077499688,-12.76517702989159,-9.976579519777541,-10.34247676684461,-16.917077543168187,-18.289381799314434,-8.002671242542498,-3.047349863899722,-2.113226032636666,18.09015718412088,39.55180763410776,30.789055056516503,14.203763625851202,10.346312774084403,-4.038367433582621,-30.059489665516896,-39.886834500528735,-32.24387031815924,-28.66921456297765,-37.6136479419641,-42.589203436786015,-35.76331614283924,-36.49520147419863,-53.567915862365936,-109.94424910119105,-182.59581306862492,-32.97802104677119,415.9003575450053,610.2998150505769,168.81017140479764,-300.0532228733487,-233.710514309047,-19.95628294398593,-38.48163406110237,-69.58438698632088,-9.67672807976804,-7.406369646555106,-29.32924275415754,-7.317518297629235,-4.848282461312081,-22.443652144989624,-18.26578352969982,-18.106342230689975,-26.043371772293924,-14.735860294537806,-3.8378957441557695,-13.143311496700552,-16.306757036683877,-2.77502210830081,1.378417385923667,-5.466112112968157,0.9810123607847716,15.187033036932778,17.976075756465228,17.140661410932907,19.284016069606796,15.655067932160165,11.071776413621908,15.47456440270295,26.68739272740376,40.268014495870375,47.87982081632009,43.071893087529645,31.961894468716793,13.247258888128487,-15.941206371629688,-36.274127492005036,-40.729321890315504,-47.27505997772478,-52.27887460115596,-44.53455219974612,-38.43246966487777,-36.13705625964927,-24.791900434284067,-15.118925961556581,-14.630022855683475,-10.281475277011754,-3.4738257591743,-0.9518444684416245,1.5332330178201588,-2.186128647795819,-13.25995879758947,-14.350659445689832,-7.471689600702533,-9.84797759849177,-17.5141971870954,-21.312498251732727,-23.25972654213293,-22.37699472449323,-15.869365044446106,1.5699091781358576,34.581959319159104,58.94827530830193,43.68074836022807,8.986294064816661,-4.397759795343195,-0.7925213332093577,-6.457345958593081,-22.963350436630684,-36.08408928569156,-38.58940176166318,-33.33772711100305,-26.042522829413297,-27.19496917371077,-41.201912936685076,-49.22085560288916,-80.7045271149975,-181.48638095664649,-148.26383422524617,254.0239108873714,621.0303101832458,354.8610534444548,-198.88834902212835,-293.67075124876374,-70.37965244802484,-36.108402137229476,-92.66291068373229,-35.20416794988928,-4.196223827937011,-40.962464343303054,-35.081736220490285,-13.213921836825271,-16.78689522130007,-9.16827619796257,-1.2923257430548167,-13.547168224780453,-17.2614912815542,-6.246131649878706,-0.538833803940129,0.35941650718467644,5.204756407563607,11.202730581266223,10.114274205504618,5.79478473710976,12.83000645634017,25.57875577668306,24.72814057382185,15.356503623093248,12.059582053420261,12.239307433825743,14.983325466315069,26.049713634940602,39.57984568645624,45.045890229195294,39.320838173365715,22.986590653267456,-0.08788973240556963,-21.309031435559387,-34.19331696766909,-42.795889096833726,-54.55178601053012,-62.08470484198443,-53.30808089004229,-37.27117081436413,-28.551894509672252,-22.57744215275774,-13.76759547567675,-7.001837298879714,-1.8856985354347096,1.1060891869248302,-4.1553303337255265,-7.6993781773139,2.329365452081092,7.648253491056757,-5.434843304351382,-13.969485302493142,-7.201199319257803,-4.546165771497126,-7.273518847245752,-6.957834773260402,-12.130058199874581,-10.54400148593227,16.76903860865618,39.52104014447399,31.17532949253769,14.551008195855022,-1.981204463029929,-25.10143663123552,-35.18773979663616,-32.50421516033131,-36.433841022209805,-38.120219451478086,-37.13090202789554,-41.46212546347783,-38.659795005735475,-39.06077115811789,-55.1376516262797,-97.16689829003641,-179.96226472278715,-113.88428887872941,303.06437444560174,639.5107385001904,328.4722472403253,-210.94190443149222,-260.08070087920623,-47.648581125982474,-48.896269578702665,-102.48725446781808,-38.233010774111364,-11.890670562120505,-36.05530928109117,-27.515294598860635,-26.60220300862004,-31.37058500919681,-8.941687313295212,-0.8290390516617414,-10.8505234042935,-8.470938210368638,-11.447033216838689,-19.274818960174894,-9.990397276910347,-1.3955544752106577,-1.0485522182757494,8.396093473134721,14.115361345272941,5.649808288110139,7.384232755217189,24.609897786054212,34.58945623536118,32.54616438443196,29.143938911372665,29.8252951662512,36.95189039208934,45.13097849897652,46.60741855969571,45.46107042097684,38.34209948113472,10.462377831637845,-25.823700727512527,-42.46725992049526,-44.17445297087303,-48.732493665169045,-51.49103389147729,-47.323839868990106,-41.822558140441444,-32.61163816682598,-16.716728427854797,-5.250850738125344,-10.370376204974402,-24.37521100290158,-25.750756898795373,-14.220921975090008,-12.445484925202653,-20.32720432491406,-17.588611095247117,-10.473572554423527,-15.124865635344147,-20.028338672884182,-15.024028446854896,-9.528524010295637,1.908618046346648,28.713121489377233,45.7040237930684,31.50333467506603,9.645697714214165,1.4451006958701527,-5.305298068058509,-19.62234593973784,-30.88272861910613,-29.873041477086698,-27.175791324872474,-35.647117084091654,-38.21445148240081,-29.432191464232023,-38.333560761754654,-66.79381101843356,-131.39586115694507,-212.81500392088822,-54.81865358424683,423.01846805332997,625.9582535346974,169.3814009921901,-297.05886474999585,-222.50491170206584,-24.55649131455158,-55.086457130391416,-77.62280250976276,-18.038599659922177,-27.708223174421576,-49.703745899562676,-15.993427437231379,-1.0234748843560268,-11.569201194013688,-9.47203865929319,-11.990414908468185,-19.07612366291435,-13.404834246385084,-5.7897646145547,-3.8321252134966883,-5.392147245463193,-8.670800387851486,-3.463919102630271,9.34980358388075,16.643338436499327,21.490631941068603,28.202694456145796,25.487197573884515,14.950042487991375,14.551629811744782,27.617429528547,40.45513570048105,43.11547888657746,41.38103265702945,46.593660262482096,48.948511196279505,28.86061484555628,-1.1193523603677837,-16.882994725894356,-29.831130290108007,-55.01823817758208,-69.83053710752206,-55.19668623835136,-33.362882474573,-28.08989509725341,-28.94783822752281,-23.6343140679985,-22.621335623239794,-25.521662319327625,-15.722491910330985,-1.8535672601240307,-3.012411482023726,-9.4055364418288,-11.799430094575435,-20.16943167849874,-27.95929371703645,-21.735976619766383,-13.36284253582225,-11.514752600079255,-0.9110887344430196,22.670634736178698,38.20249379356298,31.850899262929435,15.926270539179722,5.01085779673145,-7.808603143622754,-29.33535004874289,-40.23774093297287,-28.07932303454963,-22.050135748746804,-40.544330410816464,-50.876243489199474,-43.93342158018987,-48.159575779296574,-58.86169058286075,-106.5427778500201,-195.11088902707456,-58.495780104039014,420.7173173323764,651.3634840425057,199.76139063865674,-303.16136211510894,-253.34159696599147,-40.56920607158797,-56.92540058422008,-85.95980099962271,-29.87488037090681,-30.504140732847347,-41.66990057698786,-5.596411565199521,0.8752586489239071,-14.94580535565875,-5.1519668398410445,-1.7809852489112972,-13.113531209221868,-10.451979011482594,-2.5506443298156016,-0.8978118106865685,2.391890819144467,5.147015183379075,4.145589943744063,2.3257262048393157,-0.5967180148820859,-1.0856167112825577,3.0813203663953317,7.7321622219600155,15.854814303660175,26.81913632331706,29.230918164631305,27.40314082510901,33.16536384000233,41.142799403835085,46.38081072147106,46.44939642111933,32.29852524303768,11.477449745148043,-6.654350009425075,-33.99257118662901,-60.275842064952585,-59.087424924037954,-46.34821512073574,-42.10459996607765,-30.31613025785357,-14.245744739258868,-14.576235014116374,-16.12201575251723,-2.6670713126391217,9.539595085813554,9.78328826045188,1.4906799104519806,-10.467651008630849,-13.41769543777487,-8.577671998572324,-13.426911173294268,-19.890018215035354,-13.848441220528736,-11.38810532416433,-12.920799657163126,5.150839528655386,29.36797162490555,31.630435804964506,20.25297994369369,4.882689091402758,-16.971527731957803,-32.49683434506321,-35.89715183750901,-35.67786591230757,-35.52776075187741,-43.7688959119928,-53.233824837413984,-47.14831116863334,-45.65180492496944,-61.242892535448284,-107.88077492515637,-194.30240925235384,-92.48120941729286,384.0711397898174,706.1964032618431,303.7522552771726,-277.861161190895,-291.82878906342444,-55.938394244850556,-54.13905530159615,-90.66594531595479,-29.292291817545333,-27.025946314137585,-43.22681831941626,-10.520015584141497,-17.987549051438158,-44.93416857223488,-23.027807921919273,-4.5979400564370625,-13.86576032753237,-13.193902497322547,-9.281900811647464,-12.40224679466446,-7.725847639372599,-1.9489205618782428,-4.415170536804502,-2.6930255929013462,8.585382043591999,18.311021070365996,19.66501831626831,18.581054363264762,23.668432624397745,34.861141884664434,44.90953375486795,47.634729405121725,41.974987236239855,36.07323885544333,42.494429187215765,55.226833478053614,47.98955846494161,12.726013670742747,-26.881849470896128,-51.817432066929776,-64.65555208996267,-68.60781944154306,-61.463077489722984,-47.38959613582898,-35.83510335926421,-31.805846820373453,-29.848502640080557,-18.408604614618945,1.1725894271402044,10.482641021095432,3.756719226518424,-1.0887784461623475,3.5661351102840992,4.16615611392176,-2.447254976042956,-6.627953929363999,-10.452952660196106,-17.535933084771884,-15.153796528140084,7.989019289523883,40.9057207427764,55.026837235477416,33.4730572947707,-1.3513441954555105,-16.156087156361288,-17.540291230014905,-30.6434142121264,-46.64739022615652,-44.54507520571364,-41.5497666896348,-55.95642372763669,-57.942608635198056,-42.55242129577941,-50.85288255707941,-72.08262190099815,-117.64945404137309,-207.62707765943043,-77.21979986517351,440.0646765589075,727.1104156962616,258.53191820628615,-305.37816715950856,-270.75726728437434,-53.16386560048362,-82.76005885427394,-101.75698632943536,-20.01696863265812,-31.845320663133045,-67.69451118604078,-27.643237886910367,-6.817398788493641,-17.44519804829931,-3.6948091410453774,4.437206415074236,-4.022282228172333,-5.5760967870718545,-15.684801186538202,-28.86291382542457,-17.876276427082935,-4.341039093965511,-8.208178123061014,-4.465192304761225,11.009167092653401,16.441716413658536,21.325791888206687,38.88568768950454,45.17270474267866,27.125693431794343,14.812631913827133,29.06551279838861,48.84484763846911,53.36237437866161,49.588502361920106,40.57328487265539,16.10982267484185,-14.823694250288037,-33.07153867818429,-43.01618174674228,-55.230704489925216,-62.64166092541879,-58.103727071165586,-46.1508033728084,-34.24311944764111,-25.599345153136397,-14.535914656729908,1.0362737069748,7.127777033192324,-1.1470436877127277,-7.8901038602814175,-9.382779082057745,-14.87303841659332,-16.77875407415383,-7.227318457536407,-1.0007182246618633,-7.562999732736007,-12.539993608838776,-5.7429355676068425,3.355238945158609,11.448367141793213,31.144876957258045,55.366391854498524,52.42503611112167,19.838923699298697,-8.896369781613537,-23.65860372011603,-42.658675757894486,-59.35424832100988,-53.644085230459766,-46.79153302348741,-60.36109677075206,-60.03407371147476,-42.173012155178974,-55.49932966185237,-88.38966745842983,-143.37489993100377,-219.633284550694,-42.006320876275026,503.99609760882055,749.7463339310505,228.34785930245874,-323.9274396362583,-252.6437170046555,-32.992501208611145,-78.64415324330687,-113.40018096439124,-45.14096491493939,-44.008488066498316,-51.57289376756418,-14.02206363098558,-15.503331287856838,-30.333649892694886,-12.281377700961544,-6.752781259010842,-15.635134372390933,-10.913114631707295,-8.385664848918488,-12.126455265841903,-9.630939358097827,-6.449663868132273,-6.142585511920155,-2.410112104222399,10.426050523347051,27.138170224432166,29.329960030775332,20.400985280658617,24.387368337900007,34.41610686646071,34.306394879213954,39.951835520381536,56.16540611738109,63.78864609336253,60.52694791208249,45.92724100429646,14.247540934089997,-17.0726488382308,-38.418480264567236,-61.86406824738374,-73.76966703906564,-58.883555248503086,-42.259786958387416,-38.326399863175894,-32.14175033744148,-25.89040812612344,-25.61892829104048,-16.044931732902675,4.749174137790286,16.82240865073239,11.835355617564641,-2.2348167995186508,-14.405940176017307,-16.217419162799423,-10.048046211212633,-6.310208952367624,-7.943573685525834,-12.109459305922787,-19.479376269673708,-25.39689987058012,-20.896494825306462,-11.424194548287566,-1.3515181180180331,23.700618604374736,54.08204309194726,52.904228312777065,27.007153965766726,9.0142549036491,-8.918665986460766,-33.266439530162714,-44.7250817622771,-46.55318438847958,-47.90724377705163,-49.39168899046329,-60.36334635170807,-65.78153137851558,-54.26177459604726,-55.72545729280516,-91.60150870883477,-175.9177991635593,-190.8021264178052,150.44404956996829,663.1105052163227,597.9021241928008,-49.59440868427403,-361.1055524271761,-136.15300904576648,-19.54543023859947,-105.24076689741526,-74.08586552921761,-18.943266157125322,-56.828180282129,-51.63620065216092,-8.537141646051218,-10.038897699128409,-11.106339725680701,-2.099328176390742,-13.203139260944116,-13.78457618513864,-0.3853983645523158,-4.048353535443628,-15.314680976820602,-18.62031221044026,-17.20376335600126,-10.28420237211597,0.20693259076580617,9.861000797856228,18.20838798181083,21.724673882519145,22.856360850854198,30.4656579561302,40.573414632863795,43.9884309654843,47.55126006861323,60.6201655981026,69.49340674769067,55.27584256350748,27.985625673268366,5.999004753926445,-15.516482919407952,-40.40118503543632,-59.024655200607214,-69.979956790266,-69.92781493447508,-54.46785595309002,-40.69614591989086,-33.615397191292956,-16.46088274940177,-3.224909411824143,-8.952988117256233,-5.410579937662288,10.010524506064964,4.86262624681215,-8.126501531086664,-3.4322755660600475,0.37553748232430095,-5.271565701053998,-3.509809232385269,2.1064934850193495,0.5895569755094527,-8.750321483639162,-24.07028920102237,-29.878583645655013,-19.252463022014616,-15.774326908323218,-24.050450006460704,-22.484471875124864,-14.132019498114916,-2.5959424382123375,27.684961116419935,53.80399827203523,39.59479178223208,10.698779486382552,-0.031307640585275465,-11.578756078559227,-33.01946495330991,-40.48003356989527,-32.84159349169349,-32.14348010018672,-40.23652136572897,-45.10288107727748,-52.958039125074805,-60.95087260697075,-59.512321238352456,-116.97427628703201,-209.48148654030268,-16.269218818916855,501.08626836932694,657.2749799622702,129.42944451837246,-326.06566874187047,-208.98918100367214,-21.028703057384725,-75.61622099827323,-91.29929021737291,-23.084542011878042,-33.154610220748644,-48.6738706490612,-16.31496137001036,-13.495238344870707,-16.796346943925442,6.881652380160197,3.283706691358491,-21.77724511175827,-18.56202020893556,-5.889642082608713,-12.441769834654078,-19.50130888830921,-12.989405752665686,-3.9535717829482104,1.6263313752331126,6.073476516354653,9.763558304634328,15.010271124969753,22.286866345441688,26.59676404985431,27.75208940332007,29.01880581248775,30.937009905999226,36.07430336162684,43.52171258530502,47.28555023010378,47.43721719993349,39.006921606128024,9.346454870356613,-31.028799762778938,-55.893683365311205,-61.37708337776287,-56.401883529803555,-44.926618783530714,-37.08356378278699,-36.62194685265856,-30.08182515014994,-15.859882917446082,-5.113632309319275,3.7401958384437393,10.359155405474961,6.133337688370315,0.3750097206737468,4.015487595122334,4.925642907022912,-0.9720285397330937,-0.22830170285604545,2.9297679479347245,-5.993455691168396,-20.92213550695859,-26.97371811656269,-21.424005083972254,-13.256140382572838,-15.063543711985488,-26.973332797856045,-33.40140708847936,-28.127470447437002,-22.092221498363315,-21.45307258149375,-22.290259395710827,-17.590584498142967,3.055748601134378,34.82177418954078,50.01265124075324,40.22467755531377,26.682096920692395,14.257641871238123,-7.814865386175573,-31.575814350940558,-37.61977218282448,-20.14223985752138,-8.105564639207472,-34.12937252224462,-64.15873227179509,-58.968106741608246,-54.46650642785526,-74.39255295594874,-126.36268930357,-187.72861170488244,-21.176598822298075,453.061570602822,647.7418693280714,173.9470757372759,-305.866028695316,-227.4097542068994,-28.224791051789897,-69.23999947800486,-93.27847891508776,-25.563647725456853,-30.77956872794155,-49.19652530324099,-17.502426305493373,-14.749581110732645,-26.101783598814364,-8.525111786397591,-4.4724625728140985,-13.987581207797215,-6.934039335120781,-6.353924901975729,-14.145198883876656,-3.8505829766846587,5.25760593000618,-2.5466851507667974,0.29939376889054703,12.991306797595144,10.85044307290936,9.257640373644353,21.996010454016425,27.18682465242929,22.926860787616704,22.240695487397506,19.107171036578304,24.71550123339671,52.320954354256784,72.24395440968749,66.09794075189238,48.06979319475101,15.861995693409884,-21.80162457539626,-37.85007578773099,-46.74754260553077,-62.687181959530356,-58.33891828822166,-39.15853072003954,-34.97166644502609,-32.759245903240895,-23.27839222054406,-22.022555099466295,-18.906881971019864,-8.098335630533196,-9.257031081773842,-14.123085687473022,-4.002552569464125,4.375575497094427,0.11364772169726223,1.8666004714943458,11.00484572684552,4.757243086214061,-16.722211455602302,-26.297121111974427,-17.106812211313766,-10.03772232576743,-13.654772736545723,-20.022823091123897,-25.816425057876028,-25.89482005340048,-15.726964464160826,-7.1758612185975,-12.54854372398838,-22.045226738695355,-10.796246365302848,26.64421307989614,53.16746388505443,40.296165970415444,16.895043305139925,6.470226792537865,-11.394288405782085,-35.2774432895912,-39.13417707112279,-29.655139835516927,-28.395798205046894,-34.6671882771366,-37.635107752758486,-40.88227365990174,-52.708902944746185,-69.79291938604811,-124.05283931907663,-191.9920585125728,-21.37937151412629,448.2557098861015,633.9262876614177,173.11729723136108,-293.09582167727046,-224.32499844006406,-32.565006309542255,-65.97313545749192,-87.8631797954593,-23.59307169357057,-24.83504310970082,-39.80795637554419,-12.117425808453282,-12.502095371764856,-26.556888228897922,-14.829466646433149,-8.410240890201404,-6.620719906006798,2.4197131054076824,-3.9960702511683266,-14.78846635076946,-9.160682982494073,-5.464948571469775,-4.537968822491169,8.4331477908441,13.841574717885825,5.521659155953427,14.217514420956464,36.20208555718815,38.276869310361946,28.160130849362858,30.247336054516346,36.593851686244264,39.70335598855854,49.26381177345475,56.334141920456496,43.65536399264518,19.03098116154039,-5.1171710214206705,-29.605789245520427,-48.463483686190116,-54.70671309122438,-56.7336937626094,-57.84853286190802,-51.71733739984509,-42.34505865882443,-32.12959012168113,-17.501381419648617,-10.079382141436732,-14.72841251533054,-12.546532713188007,-4.565140871804417,-9.925628415292664,-15.606360278457718,-2.34664018527166,12.598907274019474,12.043349837422479,3.4698520619983313,-7.402562039411215,-17.867765996453237,-19.34651137500796,-12.373342794045733,-7.589873960687836,-10.563488325133683,-16.205533144369742,-17.785762881651486,-21.648132017252106,-31.270609340989772,-26.842713547944662,-3.5779793290779622,13.082851613780438,22.428047962203802,39.80666686283292,45.708712059390194,26.866131969930244,8.635712760799723,-0.27072604979550974,-17.278569893186855,-36.852457580011816,-37.42631117785807,-28.85937169557801,-37.61477144514539,-48.58442349780428,-40.24690970178258,-41.08104173544638,-64.99074549166248,-114.67910171113917,-186.74884164251188,-76.31621288231594,366.0486033141098,651.4115712395068,277.1718357793167,-252.64345330298977,-263.12828446321794,-46.32117785748896,-49.24262712493964,-88.15354129477919,-22.51011104040008,-10.59219748676152,-34.62230791220823,-8.797633757274648,-5.7281252422207025,-36.764702258947906,-33.56089202980127,-15.6902721120815,-14.816855000176773,-5.946894547840444,11.125774816548795,9.077260443721002,-6.055759769285682,-9.451711988727624,-2.224312190849851,1.104446912312753,4.440634239441211,11.859278539798128,9.943284811609365,-0.07719707599167758,2.3006076431548736,16.883049439086573,26.47077798204789,29.02239704667179,29.403726489783367,28.94010125236008,36.39468388924682,50.57713488806725,47.32994552366433,18.360582804936747,-14.696642884447243,-37.90144032797079,-51.295635370963474,-53.23225483688314,-50.175868536551874,-50.21306106608648,-46.80633238815132,-36.73908806584478,-26.23787411517797,-14.237522956863849,-2.3234739320011535,1.3904597287924503,1.575708170309543,3.565410304100306,-0.006046709245545401,-6.264435804918291,-5.502282330690711,-3.504550673230572,-5.2731116985100925,-7.121016968774017,-11.301747034401227,-15.195401474611458,-13.663654778159856,-16.227329087874427,-21.86456264962121,-16.956664979613542,-13.192798662296042,-20.5497587151154,-18.81224057643635,-5.936923047555563,4.915787363138155,26.16481442009931,49.42117344172518,38.923537516423465,11.811280997844715,7.8239771707065895,8.054250592842124,-12.956960720257467,-31.352965029561698,-28.509756613665402,-26.45707976926395,-40.26345904182109,-45.69918739105459,-35.15563755017054,-40.49716986468584,-62.02876472677402,-109.65416642514586,-194.55942645740754,-94.22586881526327,356.1358415556592,645.9757696121536,263.31186102826723,-266.5057849608339,-268.86093988927024,-51.57271375471103,-51.843440540504155,-81.1364011206118,-18.12249985614892,-19.269055992784956,-46.38565300468546,-13.3552345536144,1.1865520687596316,-16.38465339099158,-10.688145227928867,-1.9743052044245228,-6.133434737872518,-3.7735492478183232,-2.0674372151131095,-5.715608560455363,-4.029329847926241,-4.096368328502592,-12.683934523179989,-16.159777402810306,-5.590799943666367,7.533025045451134,12.953721319033486,16.692379439113807,21.400936876119037,19.90296662852738,16.03400066007226,19.60845735443268,29.023687147605443,39.302353092297025,46.06192861148948,42.253704304725254,28.97516737830235,13.55741667158205,-5.127069710791847,-30.183140469222685,-54.16958341490144,-65.28702865173257,-60.01316719820163,-46.333194154951755,-33.35504693030478,-22.73429714962344,-16.597932009221495,-17.624863356888763,-17.127856970753513,-7.750953068349995,1.9073079415506378,6.445019634457903,8.882507952666447,4.578059928563409,-3.6784083870824205,0.061083235647489076,10.886318524060156,7.36034706720724,-10.597985655141493,-26.901559966698652,-32.34091454461814,-29.34767557582284,-29.742246135318815,-34.57316340115247,-27.903883764887297,-11.170198732627405,-0.3472452480635031,12.305264886418012,34.13363567566226,42.05419097301527,27.317381045225016,12.079446129023324,0.931025703786041,-18.427693682798836,-36.11283198276594,-36.69968291097147,-32.53990527802765,-38.676373870703856,-41.66543286167692,-38.20173983707417,-48.790077791000215,-60.60334917220218,-85.22789293987381,-168.25560301501457,-123.58696208390994,282.42304255692517,646.6242941872858,366.6695560007755,-197.65187237278087,-288.6870163378043,-62.949386388857626,-32.579679437324344,-91.8425955626895,-43.650872655104294,-20.185130299188593,-42.73087386700102,-23.78303934837958,-12.768364300939147,-22.644196374464606,-4.738040456585988,4.241255192235132,-12.616330600273137,-9.791671461798858,3.116960203783341,-2.90529802288194,-11.609075430344138,-13.157414764595284,-15.20911796770838,-13.250966997327076,-4.35625362958338,4.02870403430109,8.592572358656744,12.780450109697206,16.566022208481677,17.013364074593362,22.012213792468966,36.644645319450376,42.98017461084265,36.37228846869173,41.23675036075396,54.16451247949669,46.43663587604222,23.272360266702634,1.3909898508225922,-25.66365749479469,-53.6813794202738,-66.699971280374,-66.7302469000368,-59.34911044921603,-45.934291498560555,-35.155235287802185,-30.070250408274383,-23.69340854588272,-12.356580835270197,0.4151758124484033,3.5427569145535607,-5.998512735255424,-10.76172525122097,-4.171826039647348,-1.56024838173769,-3.327503314994079,-0.048808734183399594,-1.8868753426223748,-14.225248656861805,-20.98670242063333,-18.01810888315024,-18.338546840344378,-22.052754470439886,-20.192648804455118,-16.473636614475414,-12.765755834890271,6.891817465012687,43.21809283544789,60.93364829435708,41.50205119412769,16.318948235156725,8.022476516713585,-4.735875403038399,-30.507186232160006,-40.355011227199995,-30.12269996931686,-34.076626529705834,-49.42229164284136,-43.42196666730727,-36.87978247970221,-50.45128709221956,-66.78396021801368,-136.40529693903886,-198.4418082900911,61.537916147326044,552.9220719218661,568.2239080269287,3.702991636685894,-327.3876283193676,-156.75580057202663,-29.398945913177226,-84.57323160357343,-60.377892172230936,-14.400528664410253,-43.638286479910406,-37.2328030997279,-4.996343475346029,-16.31125889136892,-17.569139526650023,3.939101926300543,5.192923822871961,-0.8791377259835986,-1.9968423401664186,-2.7872895119494547,4.172511658645767,3.9299134120082453,-10.324045057714326,-12.103277524117905,-2.102799402673279,-1.1590935335564145,-3.5374127515144664,0.06458796080560503,7.416499230431851,15.507700082192807,18.137972685018607,20.2405104479394,31.78869737616796,41.495530149638554,45.35304022198052,53.88564213981008,47.33856697411574,13.021474654711595,-12.440496889491609,-20.173989504253917,-42.94200750926099,-66.8028434727487,-61.309190050895864,-49.79811066919952,-48.73495930692307,-37.54932333032397,-19.877376984225577,-11.256767722361623,-4.412630656850034,-1.7131155756887075,-6.399698227155435,0.9794930629123062,13.130288167051301,1.6536623635340675,-14.494291780806762,-7.970594202051375,-2.649901525774716,-14.117795006226487,-19.03050746440451,-13.75157676107084,-14.128101711983373,-17.91706721874546,-21.46454829812489,-26.00045021825794,-21.59528349880086,-4.067751595136431,18.787851058469244,40.77996548215337,48.28735938971458,31.319750791610566,8.648736498275664,-0.528894502220794,-5.328156083127578,-19.20993152833659,-35.99456845686636,-38.52311427401878,-31.734910791291394,-38.567789943302174,-45.70272449986791,-34.17550647688803,-32.63657427706357,-57.82376966411011,-119.53995787576,-182.0806159763795,-5.64831917694859,460.500348655848,627.9935588193453,147.75874953180931,-317.418402506524,-239.08799265858497,-44.278331249397326,-68.00065324151957,-79.3093443916405,-24.516976306618247,-41.28907004504077,-53.66107134710755,-10.982071501785146,-4.841741692064897,-24.42397462124245,-10.846485727656049,4.254004701169886,-4.2265296591853385,-10.173284787637208,-6.236010934158709,-5.285900551281493,-4.325216579390665,1.3344924237042868,1.8550459987775878,-1.2588057650843347,5.288222402115672,15.436733098249837,20.86003644916368,28.95358206966275,34.93170407373513,31.038556850333393,28.888092823948618,30.575375169210684,28.643460733202282,33.35926460076636,44.735152205816284,39.75926326198576,16.544510568179888,-5.494302500286176,-24.46234912364023,-47.15275312754977,-64.39100437574021,-65.51637442803701,-56.62717914217053,-48.84686700706029,-41.63937610518663,-29.713562761679885,-18.183581559069594,-14.129674381108227,-10.67309825325066,-0.04301230335607187,9.625461609872428,9.175789851648258,2.733175018048364,-2.8206188319498615,-6.072675125316007,-8.365434503704577,-10.764798673755916,-13.039707927465347,-16.438182670782368,-19.950407911257653,-17.391657170130966,-11.47077074641618,-10.255648616053167,-8.576097371678582,-2.0346087419772587,7.67306144434332,26.341489745705296,39.94923998731733,22.19236902729083,-3.8102443663706076,-3.913492205126044,-2.809530602474986,-24.383774961635872,-42.83089612796387,-41.33357134169819,-38.83655213522006,-46.053619674250555,-43.266471724478244,-28.29597356256028,-35.08142925610113,-63.33255578829621,-110.61903475409,-179.83542670697233,-67.72325359927154,371.8067167768956,642.1203647965065,252.13977271628949,-275.3087985922075,-274.8167091602129,-50.07177643701246,-42.433963082504086,-81.61367766023923,-34.15440514024087,-26.600631888222033,-37.84579456136978,-8.747567084857215,2.3586956743604297,-10.734042680430534,-14.734594589731717,-15.753042386539704,-13.0699227763128,-10.987781813445414,-16.77619877359139,-12.446140493122966,-2.198053112937675,-4.8243412614368975,-6.55351699373694,0.6978842234380025,5.808896092619891,13.583986206484159,24.9512508835115,27.499761491708504,27.577605579920338,35.48791687888513,41.610398514192454,41.697041095329205,44.00965526625052,46.241453027564184,42.66452548348377,38.608911676528095,34.8804037331647,19.84560232060722,-11.216986591439474,-44.249809888053825,-61.75328388096959,-63.60698593908956,-60.333280217459894,-51.69294835453199,-35.84610840381133,-26.82075224647763,-29.885047383702435,-23.94342610520669,-2.5647775140294655,6.536866593497912,-7.668031472669782,-20.750367962760205,-20.436860772993825,-16.419273123524775,-10.807937316723645,-4.572028461319913,-2.545178646150024,-1.0487191789058912,-4.987615480755846,-21.191033113784965,-28.43109675065503,-17.025769174939448,-12.991293744190472,-15.500078296643125,3.0561209681926114,32.48973657608677,42.95180731287,31.005439572914995,11.085802006457616,0.4903179998064182,0.4065755584470274,-11.494901412764627,-33.61821869837969,-34.62549110559539,-24.908136537672476,-38.04496230409245,-50.67339792368729,-43.269067593451396,-49.6720142637422,-69.02297078673105,-111.55604207979569,-184.12762331536408,-40.527937499424795,452.1224056246023,697.2429697992629,213.8991155811329,-343.19866438601133,-298.1882644813945,-55.830754774629845,-60.86042815263486,-89.4394177692813,-26.862350664632167,-25.474741095735837,-42.37946052051251,-9.453948905183351,4.5134156188784935,-4.538893838156914,-4.1315783831698845,-7.977412282413419,-10.612785787308706,-8.42317233061339,-11.556812829407846,-8.422188876564313,-4.290499631277386,-12.747613525857753,-15.338341107635223,-4.429241786286362,8.40577250601421,22.880724282516994,30.29005935380129,27.68033779724815,36.43642533400553,50.679407504336446,51.28063108719176,59.136584504000176,76.69697867754962,70.27444166472306,52.44720484913019,47.059106007892346,26.770656482822265,-10.483645323845842,-32.39239342206323,-50.94937646486358,-77.96508852461982,-85.52510887850019,-72.92844618240169,-60.21948909497689,-46.11016802201465,-36.697369234437346,-36.94454533258688,-27.858930144166493,-8.092366244959493,3.7144469271124514,7.6159003389314535,9.623621619967478,5.993595662472682,-1.867781498736207,-6.494928880603421,-4.375457062394265,-0.23491904696366284,-1.8166501726774875,-8.888737078715213,-16.989597909638924,-24.282122420772314,-27.182620999587705,-22.968389360255898,-13.48719819423043,-0.4965070718660112,15.695236854093798,33.62848346363259,43.17726984643269,31.512309155222233,10.056266357726635,-2.0255367527171515,-19.17408816957367,-47.39990793237544,-49.5695748983034,-30.073514744351648,-39.41029702711747,-57.9181120169838,-49.96581620169079,-57.36547511492405,-86.26947838208635,-130.12004603069607,-214.93730182766149,-100.60161735773477,441.20333016458807,827.8457346616251,390.60768253905337,-282.8351199371043,-325.44155257450507,-64.58919316950583,-65.42995746918571,-115.79725097953434,-41.12728163431957,-36.48908600548117,-67.9527817800633,-18.399391637644495,8.157691428635253,-15.363814512404112,-7.111415928473399,-2.864794163964179,-35.645190110399355,-44.623651977701215,-22.7239682365986,-16.072472649588942,-21.255463013577177,-17.937109506236382,-13.016567848107817,-5.925960757102185,13.794466508958736,34.398797914388304,38.48683840548505,34.3354801141608,39.1381823665029,52.13030720289188,63.97187950343879,72.6036087364098,76.64197394534963,72.70246739266058,65.01036338688287,55.505344491460484,33.352726172825605,-1.6386555171693118,-33.158334040638046,-59.34919941923015,-84.8940258874289,-93.74200215851688,-78.553301270014,-61.2599220706197,-55.007242294132126,-51.24915432149227,-41.29894244917385,-22.263442181086077,-5.036227803393061,-4.468291106220416,-8.842243868095515,-4.330335039145602,-1.9916728192179534,-0.25802137210266096,10.010054239065573,10.014080421837441,-3.192668514551542,-4.44171885651582,-3.725765433124053,-22.298182834998144,-34.915811502084054,-21.497871350278565,-5.788657000340255,1.0036602888880841,16.874612055987797,39.22586423306051,41.304260592403054,19.983016205056053,0.6884878259342724,-9.934354498307567,-27.87854052694203,-46.574922689826224,-52.63862007566672,-59.997595680898236,-61.8311339094126,-43.239734904658675,-51.55995399040074,-101.18992839084528,-153.43320368175017,-236.0159616072468,-188.29648490438404,324.36988883321715,916.3431955913644,683.1451227002747,-131.84682696544456,-408.3471774251185,-130.64751898028652,-64.79281392966163,-172.12363613763873,-100.14234221547898,-29.914731264072614,-71.80777533977603,-53.17126974980715,-3.7605162299263277,-18.83437179362967,-31.16168327774294,-22.081125448398993,-31.910236752656356,-28.180911967904727,-0.0886349966784401,3.9280106003573962,-12.030819547786098,-7.632492769852635,1.1396821692206187,-10.30676813646452,-10.286847053060114,16.656062487800902,36.52051563378429,41.458288587862,49.49040282587222,56.98910262470071,61.200096050531386,69.00049682389657,75.26302080967007,77.03736224366872,77.4210850865307,65.01220332221142,26.692234816759253,-21.22275867597653,-49.24278150213458,-61.83655214760262,-76.09401082991377,-74.76509676780114,-57.421716068897766,-62.221815696661004,-74.93395807995257,-51.67034885045275,-25.012013300115726,-34.58450625762721,-40.06857441714295,-12.91568585114214,12.509628990499944,15.44113190751902,8.36190090212532,-1.4810998539305054,-9.27592379957667,-4.042465006814314,8.524568363648923,2.9428664709370587,-20.00939951206803,-24.23050458269275,-11.25620832558728,-21.86885231180768,-33.86527177136135,10.032031184617653,69.43617109807207,61.69107499647293,8.192753075985266,-21.343760602845173,-27.57438130895426,-40.93675259343814,-52.38980387599605,-44.246800236167665,-36.94417995762596,-58.36469709724672,-85.76006340271064,-89.05520988777255,-85.87708667104857,-99.24559484701669,-167.19774602467163,-230.9281331471669,49.068850904734035,705.3503821447196,916.2694942192816,240.04927526972972,-397.31987400399595,-292.61867044117685,-50.320321866217235,-119.60192148548259,-148.36244484794986,-47.3733749770929,-39.183525734136765,-60.473924227404204,-32.489972039773505,-31.845741874777048,-36.68782411022893,-16.19306974866454,-12.674525578219304,-9.577532497912632,3.548299271048048,-12.430142630462388,-35.66768659083046,-30.088705765822564,-17.087060500823583,-2.4222888487797514,23.504759111227404,33.495752860018165,22.292731121700484,29.73407063040045,58.84462280944668,69.77329900554321,56.114434573428,51.92828994223076,71.66610762842828,86.65348584679383,72.58535043943681,47.36542078353185,26.449585727549668,-3.4399890103397954,-35.64433947673673,-53.571246423744924,-70.39315999066221,-83.02076813835679,-71.79548954495112,-61.052411600572825,-68.09005452578802,-58.656008302396046,-27.49216488994681,-9.575563432263877,-7.021947289056964,-1.064714233142194,6.149307542493343,3.9472359633084864,-8.902026690187498,-19.07528010276319,-14.503657105395266,-6.303020259146791,-5.267288344967302,-4.25958402606074,-6.961633253803946,-20.651083596545163,-28.621404619272976,-23.03311603432835,-21.40110536282419,-20.494314269525944,0.4202208380061325,30.318906636238708,41.58210443176895,31.15939497431767,14.068453851387147,1.5968104800773375,-11.399911608466041,-32.538439451157664,-45.92167541574503,-45.89912928676401,-53.72099073501201,-62.93824355674736,-61.976969264691974,-68.19617253538367,-96.50232523526361,-188.45680339747253,-243.6336533638285,100.58109543329527,728.8949652159225,758.6827579820718,25.39693562891756,-418.7810700356386,-181.67779371646927,-7.65224184097587,-116.7382676834178,-103.08941314382102,-16.575267832059637,-45.10548346861668,-44.57108350356684,6.008116017311952,-14.929281979530252,-47.26954816472104,-26.939363814039247,-9.339449987315962,-12.035666438618305,-15.173562238601928,-17.50911896192706,-13.2543916161081,-6.1384869733567236,-8.347173157227914,-9.575233367731034,3.0050833139425404,17.185240926379056,18.056621773242963,16.305089361840395,26.817475120738667,40.51489364815976,47.472934584541555,52.77237796347219,58.389348291734386,65.91825488080629,73.31530030784604,62.38369071778061,28.939041181190397,-8.827712922080595,-42.054857399505146,-63.062969865456814,-66.527541043481,-70.93679383470023,-75.11212601415693,-52.408103877513696,-23.896283681039463,-24.995213907273733,-28.587913729703736,-9.015076497252767,7.399848664983612,8.210617867983135,6.64181531218204,2.4658592300156528,-1.3539062314890202,2.3151373738875023,-0.2752540243267809,-15.866308203713679,-24.34748862505591,-16.54267962798319,-9.515574886211713,-15.998215122261016,-27.117394500417156,-29.347779413889636,-25.691203458734424,-26.01861670654402,-24.291616290476878,-12.241066074055148,-1.6152281413456109,1.0186734682532617,13.72392537557782,37.78480552711717,41.122129948441795,18.129913982911354,5.566805475190995,7.438499622230722,-13.084330195951548,-44.0544963965026,-42.94170050411343,-36.419206151804275,-54.39320507444154,-53.04334431281287,-35.81615697911096,-50.98598866584804,-82.7828331801125,-163.80982448465357,-240.09899317604234,50.35671292157264,651.6577305336266,718.0847024874487,47.43131384086711,-386.52608830684983,-191.90311523533933,-28.87745580887853,-106.43325062238124,-83.49541222666501,-11.24955315121899,-47.045784646411065,-56.730437540538006,-11.176493771209302,-9.97770029152369,-17.37936605543205,2.5414096552101277,3.5255811242256048,-13.381216844884001,-18.653987481429272,-19.60666657724862,-24.216423549512488,-19.85691759169272,-3.697092411876965,3.144432055393575,-6.448874939831072,-7.088181810184822,8.379334016274065,20.634612244948677,31.330315671225087,42.861038926688295,37.37281053662953,29.678366954809306,49.55181754900931,70.65505703440486,62.01113812648788,49.7419047862093,47.10365807360187,25.829535046218204,-11.177235799508594,-34.05151547598625,-44.47309139766613,-57.483729531782174,-68.32631708974833,-66.06959001739544,-48.063400525071245,-24.173445471204467,-10.34199967092658,-9.245014183384775,-13.49942848432378,-19.03048100837644,-18.320255986375365,-7.2597753163457295,1.7084158828467721,1.3305064950314183,0.2819643096374769,-1.2393160133029326,-9.538140610140452,-17.38674320974588,-17.012414182341168,-13.151241808228562,-11.187595029132325,-12.705520531524684,-16.561072814409645,-17.234697691748398,-15.460757950027674,-17.4551991628308,-16.177116531256786,-1.0899254390127915,19.951069825335153,32.374636118514104,27.821120174659935,7.735001461579584,-5.748589794262013,-2.2576573296606526,-11.173192575946754,-33.05881532955576,-31.566453568403006,-29.406365787619894,-52.90180681036438,-53.40750327180416,-33.318523843247654,-45.62881579173266,-86.06533146532388,-174.67822053351398,-203.24906544005685,147.84625803521828,667.2728179202577,568.8565545070295,-89.30236754890461,-371.9541938573303,-147.92752503463555,-41.0320722254049,-97.55828669401839,-51.856237557655554,-14.40794408138359,-47.9812199056291,-27.064358738647645,8.678433533806235,-6.667298304186172,-20.23586264266148,-20.206243503183984,-19.567625964355287,-10.588591877677457,-12.132928793504474,-17.178168357210538,-5.353485242576904,-3.3564427717463756,-11.165297385600056,-0.13578302880951298,8.957288441506263,3.7084903361604002,10.917901802281738,24.121795372496386,25.762178781944506,27.159881931944447,28.534086015430578,28.842010666322082,42.55449000050877,57.82057078654201,57.30664691694584,55.55145949337772,53.92379348583479,33.44036571252851,2.3757821174929004,-21.28998646342631,-40.47668839056265,-56.01527573703477,-59.99472173492427,-54.129922946296055,-45.17925682026397,-36.2048473614894,-28.352273082179334,-20.18082920601248,-13.955273011784264,-16.402241711979123,-19.813492955564136,-10.106767453820261,1.1592862318369903,-2.8740193128030107,-9.909168814838758,-9.734366125227872,-11.358737970859574,-7.413860681926883,7.379174210557991,6.490639715779778,-12.739477151815947,-18.26733505216785,-15.707920684846318,-27.775691701224854,-34.537966101537776,-23.44886016958076,-13.633029093075441,-0.44226354133953905,24.011459619063327,36.46129887312354,30.75032597164133,20.33520166306844,1.1338515288862574,-22.265402516112907,-29.992557322556575,-24.060387109087504,-24.21522118969309,-39.089179045872584,-54.13411874566819,-56.99627647330648,-58.987242062931685,-71.20377658196296,-129.51888705362688,-215.10058757538576,-59.804878240026284,446.92425697282266,704.5431548042864,244.09366928351557,-301.97664313980295,-272.0660683373102,-47.74226275287265,-61.11034653773411,-89.9736791343008,-21.491924438058383,-25.300454606447055,-56.99917777840865,-20.903409220693344,2.578062428773112,-15.943133898410046,-22.982116018592787,-17.823347061191328,-10.697383529874752,0.18200197765429493,-1.1758067573316513,-10.689951062521082,-7.602381650333331,0.37939619237691324,-0.3344753314394815,-0.320852977613864,5.853460308412208,8.873373854252273,10.753314251876857,20.154472134840724,29.190926109607567,30.29714370054933,31.382170349835093,35.24823134447351,41.240562771584415,56.477748381907865,71.21701267484542,64.10139574606944,40.62377135856016,15.474419338598233,-11.969175266741244,-33.618771144858655,-41.22508741549955,-46.69213677672091,-52.397928868280445,-54.15219379526786,-62.41180559039666,-65.3800467662835,-41.65032102777124,-17.254971050123647,-15.19973931385151,-11.254837153312131,-1.8306584259020475,-5.181407252269807,-4.861124569941403,7.106385514112677,6.31492643546961,-4.560167852926014,-8.478930984204538,-15.827344223928357,-28.13321779522474,-28.95421895318847,-23.188616976245623,-22.346096013479936,-19.21876687619222,-11.47529966292312,-7.2701627159811615,2.4117270702143374,31.174456992146855,55.587945091733985,39.59090548893687,1.3482838818279603,-11.704228955339175,-7.695596544882012,-24.420723140393044,-42.52896454419135,-31.750471054501677,-29.15239525937777,-51.84583913286288,-49.667897016317305,-32.12915199618663,-49.25550714441584,-91.0491262366091,-167.8411848801145,-183.23673806225017,147.74541176664744,639.7966823765122,563.204502469205,-59.71548742581231,-346.96133623781066,-134.83682959470002,-29.26666941823043,-102.28811213618292,-68.45526166721545,-19.2700751576553,-46.04818390701736,-31.008269397488974,-0.7749737755793866,-17.9491958922902,-18.518324564184436,-1.859645388672483,-9.844183591714039,-14.549205035145565,-11.189964504451828,-18.82206600030178,-16.12199079876966,0.0920437869459596,8.16624036686597,11.522729880310022,12.530824514092076,4.772036006830225,1.3788130066658013,12.367603840701335,28.652124593585718,40.9594980373788,41.14058250199105,30.933932717023517,30.87972096756944,46.14647942683297,57.63843793303863,59.99774059739947,56.19253489588546,33.63772867574961,-8.181940023116967,-44.36683404796806,-59.76305744455105,-61.33751136360595,-59.64089744938194,-59.269373487481985,-56.01295495390154,-42.93217341462179,-26.282301588725453,-17.983222377286822,-13.62203020688342,-5.826305494383611,-4.164728185752956,-10.028866522764975,-7.326832856492736,-0.24580824083982478,-5.077855422729442,-11.922689490300936,-12.825284025250134,-19.480773980509923,-21.32115469972352,-5.266273786481754,1.1285007966126273,-15.655010501852118,-24.770105921161655,-16.83084354119177,-8.193684499429,8.774311262488006,36.362685224419224,45.84389042659545,28.53996462587994,7.476627648337402,-5.362440287557895,-16.333376919557587,-30.541517045801797,-38.93557110440091,-33.11873118504448,-31.554129636612686,-42.761334173230395,-46.76447911270213,-51.34203224781707,-65.86244673862319,-95.35623039980536,-175.7992635458371,-145.11814189831864,261.18673536354595,680.5095883292138,432.630598193996,-179.56435004456335,-312.22823954595043,-74.77506699917478,-35.56423832555737,-96.2982275985628,-37.31208443432182,-19.507914991617326,-64.27091612752616,-42.52987261225127,-14.708209344912348,-27.681644511448155,-17.84623466426354,-3.3432107842167404,-14.964516977536462,-12.671026056842337,0.3175077089738547,-9.16715882381393,-19.49795386582389,-9.419778519794782,-0.9590249045244668,-4.62220091131832,-2.4878298946459156,10.637618397305605,20.332162983466738,22.932418393535688,29.77169732012196,40.89521950916689,42.1913695513692,34.462357963859134,35.67749572760959,48.60686996059339,59.39745489017598,61.94425750500383,51.55473178014673,20.300320509334647,-19.745080355319132,-45.693601739084926,-56.36711474566296,-62.15528872018187,-62.49772466649827,-56.09408263943822,-50.24750330850611,-47.58745286911167,-38.28210892127093,-17.206206290344763,0.939450589186702,3.0436980966321734,-1.3230170576573173,-2.3333865957912856,-5.192801094228788,-9.38226689224786,-7.572071163572591,-3.9620966355039684,-6.407805698695366,-14.32027286267055,-24.585952992853134,-30.21710506976346,-21.88212853248782,-9.620594408424367,-14.033696618072348,-20.15026139362751,5.821746112716341,45.67622431599023,52.322274780946785,31.004604902637745,14.695304195052973,2.2795190178501734,-16.453747628156478,-31.725698612319192,-33.70042466577878,-28.82002487669904,-33.422773474219156,-44.87812876174304,-48.354755841545575,-52.42719299653976,-62.249585775935294,-99.2594633360096,-183.2691936742114,-106.27979018547896,331.61945860588213,667.6511181334093,322.6314606995122,-252.77376398921515,-299.38928830257476,-53.936699802915626,-38.889140382525284,-102.76453827376183,-45.230152544456026,-19.504065077135948,-48.22718759328289,-30.454909065645758,-11.245504953198246,-23.244374380626326,-21.29433037515593,-10.068326139077412,-5.6224097906716874,1.5113322038735184,1.592553736818676,-9.003855536794537,-13.554052394206321,-9.762674804970494,-3.227904907301388,5.687467773354739,11.59659866730528,12.317700581538244,14.805300839632086,20.009572520105674,23.05646527159666,25.28894305085359,30.87906547649615,40.45269600436091,51.87301895800322,60.64559836924106,62.23742076002969,54.083631062980245,35.67570788477982,11.128063158321963,-14.781641508845727,-41.491114298672734,-63.74319101192447,-70.69082968122065,-62.95661805772645,-54.54285553489005,-51.82553563613135,-44.871967423065,-28.613943040582186,-14.437984784206193,-6.393452672688248,2.1327271137070625,3.424439270428678,-7.138230838692973,-11.722902868560357,-5.433755774651036,-1.513080353135166,0.25087478600202573,0.7278075711821366,-7.272061403641139,-18.122880831650413,-25.31089141618705,-30.720294702940393,-28.910020026145027,-15.856961231802128,5.7973411706580436,31.34471455124402,41.072298391955414,25.607262754639017,12.510017162409028,11.020293801518008,-8.490981297235233,-44.00707700123615,-55.524986933320875,-38.67001751225847,-31.031347287322426,-42.18409401459552,-47.180149939771816,-50.88022993007536,-63.06875222036824,-74.74223690567665,-134.06911329601652,-175.4549317083949,96.44579642605997,574.2502911618366,562.0546255494795,-20.370367429445935,-343.6688736503566,-146.46885270237146,-8.129334603811062,-84.29954176788706,-78.06971792810543,-20.641682587427184,-36.09534623695512,-31.694911771130013,1.090599109297619,-8.252697912770774,-18.8917424135144,-4.643693927905285,-3.999758729985004,-14.256986870933693,-13.577240009587104,-8.718058437426766,-11.878993822885088,-19.604071619215304,-16.085368853472612,-1.9555756394056538,5.96693042460159,10.081143426047495,16.13806378439205,15.455742113697898,15.675586568677343,27.00257998397449,34.928159038401745,35.57795809343036,41.87383172858161,49.50479914359912,52.541620450826144,56.94949255322925,55.87290800364294,37.73820833773933,6.011233713558161,-29.739259956439707,-53.241008791342686,-50.51416845378529,-38.420519056177845,-40.96629390705548,-48.60083723141928,-44.66822209927528,-34.20123269172823,-26.22960009914698,-26.09709858694601,-30.553358933652063,-21.93528685834734,-3.2665634369147014,-1.9435868400462546,-14.317435907943647,-15.855986768799351,-11.166513973638004,-9.887375659901188,-6.111661397646895,-7.267684292569051,-21.62413242635659,-33.3966680047582,-29.654737280259077,-18.348726681900633,-7.858676199405091,5.410094331004856,23.67006391653791,35.328273802436314,32.34599014556484,25.11141599464274,19.178029728255936,4.456370632960267,-21.444133861077717,-42.427134434162724,-41.28074317230484,-30.056027152912847,-33.35942533900274,-36.63629871527845,-30.355886643747095,-42.45505533752292,-62.43672203514288,-106.11498333897654,-198.4524432942468,-88.71912371166789,391.0121977272121,664.3400932472696,229.7846755780582,-297.0453040040017,-259.6183169750742,-39.40137024020784,-49.20825811164686,-74.74884337811385,-23.983163183696036,-35.7767651825,-49.79906790980383,-12.84547200667004,-5.264638795081687,-18.93431070818491,-15.833284331120556,-14.97336419682002,-9.724532347296881,1.8183041318701516,0.18421318785863416,-3.4391749205126496,-4.132946780140241,-8.57476460776286,-1.3703726680434798,15.142516229225897,21.73178348213358,21.38224225575958,15.504969286183808,4.8734188388344855,9.768151526192263,26.487978781606532,27.323460550955176,21.635377830628112,34.209748272544765,51.11735203295964,52.51299274652611,46.1423690467144,36.128828849891605,14.995605554847662,-12.376474338238284,-38.29754673029846,-61.43245889854355,-70.67794105609978,-57.99862274036995,-38.726281557081755,-29.062722816183612,-27.726198855723094,-26.604001416326824,-18.8896198090508,-8.635275103043266,-6.700414839420528,-7.232166494785115,-2.4182541117598113,-3.375757515666205,-7.79891993320965,-0.628019830282593,4.13509031309613,-6.342186767852628,-10.244965693743346,-2.230461604006818,-5.417721364580075,-18.455982168593486,-23.60721634274114,-24.023290628252234,-26.497835346397796,-25.186248578371817,-17.645592727199173,-5.509893016197097,14.486035264748734,38.08663103762503,47.12640236439688,32.31702087599419,6.680574406141144,-12.307434996482666,-20.757128931417775,-26.487852143635003,-32.37267242246021,-33.490760797952134,-35.79066848908252,-42.46379499832227,-41.4645503667752,-41.07750786532978,-50.976866128464295,-77.30210959164427,-159.90066736118405,-168.97779213525956,179.4557925838893,633.5013525918713,492.38934093595094,-115.75635960642913,-331.6188699093751,-95.4219565263171,-9.941694215883103,-92.22837152319192,-62.81787890269009,-25.49127765218121,-57.73506292873722,-43.14571502508765,-13.152910183270766,-24.584178295915528,-18.54760570395828,-1.6610868038355608,-10.580085964440666,-13.436003355010536,-7.531930410594775,-13.683942267609707,-14.263015830312,-8.657919358410554,-10.826680437676295,-7.7061225558895945,-0.7757761799061051,-2.7249334536033434,4.602229679459619,27.28734039299475,38.26362005348896,31.979189252056408,25.387775974092847,24.316873302283035,33.82055914448435,55.51952763969068,71.88409953901649,69.54717575099977,52.300146029114416,25.782682541110802,-2.129988762308759,-23.173183910125573,-39.29854522334612,-53.46713886531859,-62.62564882057055,-64.04989464015857,-55.3958503025174,-38.644151019795544,-23.872158732101738,-18.12628873963636,-19.166961014713756,-19.74024136902599,-14.092939632629534,-5.748577645899974,-0.9091731932775353,0.6165725409047127,-1.6960081239503282,-5.331688603130665,-2.8363915492753655,-1.585913720406456,-10.581372781975283,-15.732319813518163,-10.414520604017003,-9.209333924465778,-13.339094336842644,-15.215282412156613,-16.42333827237959,-14.037543408788244,-9.725726118727199,-13.019147780088622,-15.100452142411381,-8.192246342333416,-1.0123768321830262,16.678383137235567,47.52049407878821,50.55988703734819,17.037510348289153,-5.510773055844606,-7.6458753734790985,-21.058003438541068,-43.32606405705701,-49.335793809115174,-38.109271389432784,-33.38194351305256,-44.57604930810278,-45.247285116847735,-34.005100886234096,-41.70834940982001,-65.6877999622476,-127.261350873378,-187.20444916688336,27.079163628188624,512.0875461101986,613.4687695282117,78.1562931291478,-339.8610325432393,-204.04910823691478,-17.9773572167872,-61.84547322890893,-74.8435636631713,-21.233451167589664,-30.465205086494883,-36.358386949261856,-7.860993247879929,-6.980385218660636,-10.834735892432175,-0.11169131444293345,-4.8194486876410725,-14.112153731091931,-16.60071514977227,-23.52999819374547,-21.87363462137349,-9.0190708275057,-4.82799344891931,-3.645263451257647,4.8944366029048245,7.437759184340035,3.255315739959051,10.161283697298076,26.703229633975532,35.46636050709445,34.04443063867032,32.510837264016224,34.716330025705204,40.47951624794241,50.91814207549394,60.52101132510951,57.1014341202788,36.20428030612415,6.3957650208077155,-23.527702622996998,-49.73804156246146,-63.575822910568846,-61.06957025323949,-55.932308644633935,-53.33362824988098,-40.53114953181837,-21.08748142133812,-8.416288694572966,-0.5735150580754222,-2.12469220325859,-17.910926361883007,-24.912423544884053,-13.578199510675052,-7.003521159620696,-7.315775371619452,-1.8058328049916668,-2.2299525557621642,-12.340170655713884,-14.747532683255997,-10.799829794314373,-10.709056232706942,-8.756079337883858,-4.888757016976573,-6.850552593388933,-10.86775953106439,-12.309926032446565,-11.477884846518865,-6.623261951304414,-4.7843594636487765,-15.206560209321871,-27.833039773849276,-28.167606826184212,-17.8220142650681,-7.014980575524595,-1.7376702919240676,8.13630282174526,33.74859339285124,52.76844412598817,40.93657137288477,18.763144473384955,6.2116745570750975,-11.206178593115562,-35.380185449358,-45.863818700128306,-40.45104106781764,-37.978957185641505,-43.498143515761726,-41.947228246181645,-39.39875172651385,-49.51479222147837,-66.15354067696501,-130.35094416911542,-194.2175741307865,36.13190129478173,530.9667980886252,609.3979580299698,58.132373175825954,-337.0696880726027,-182.7200875330063,-13.344501816685373,-73.87347939803155,-81.94498237428067,-23.87706384475463,-36.230057431302306,-39.704110557990965,-6.898149789673775,-11.232552815011758,-21.601697017562955,-5.120762773034707,-0.11424759752753477,-4.001579643266604,6.902568772203554,14.188746863274186,6.111649888214884,0.4384884851456361,1.1713184626842144,-4.404165039029264,-11.039350155920554,-5.3496413966729985,4.861211988905587,8.850642379744293,10.032798017825698,8.908878550566829,6.521020257883134,11.981271252256722,23.031862603009053,29.6028865570406,35.26367413833123,45.13478063370043,49.740327850026944,39.405471844715535,15.837086541335433,-14.745554171721524,-43.332343637480385,-59.58589753547403,-61.72870961075111,-52.644378996918704,-35.79898747434897,-26.56505726611804,-32.86076574534704,-32.45394872069488,-16.141872424270296,-8.055959340808165,-11.301957148950258,-7.754828612533938,-3.6570634004396823,-6.600768694996457,-5.071077844284996,0.6094381104018591,3.101929441122813,3.6742553739532333,-2.21152560110567,-11.84808685063016,-9.819617158468075,-2.5655257329641135,-6.13487175169851,-10.638147028945824,-6.113980024729177,-4.082601711853556,-10.115718285572497,-14.949617518646049,-12.821495579390962,-8.766526742937694,-10.378265624143395,-15.423995117285674,-18.425716029319616,-22.565281886712643,-24.720496534481068,-15.201101812945442,-1.3438206522543386,9.527717494697363,27.899124995388632,47.19590547075763,43.91280612049343,24.236817428909937,11.696165472271261,3.6963582394699372,-15.272167486471956,-36.885401241456506,-37.171561826470224,-23.74449811436387,-29.9169595715841,-49.39734984597287,-57.93527685335491,-64.97199261896836,-72.93498091704785,-109.10008204736528,-186.46563645815536,-72.08610021016317,384.6426803122156,657.6412279045148,260.7003904014438,-262.9164742408323,-258.84352794753045,-39.43393748118807,-39.38593332245024,-87.63411581079255,-43.064672478183496,-25.711608581809898,-29.770562305123015,-7.472443901271303,-8.278061043427229,-25.216760899652222,-19.40464137439853,-10.260000338815033,-13.64410336731355,-19.71746313328974,-17.400665450296103,-5.744106264090302,-4.997119352583143,-17.621412709887068,-17.444757108735065,-6.408067229394888,-3.287709656644875,0.5714887114383678,12.921019966635292,21.433618795197862,21.539239486484902,21.2608946110117,24.344980702683113,26.58718944977749,27.40519455580516,34.83513746216381,47.276761153733034,50.71224318828464,43.492398147341504,31.34998349063347,7.8457323555168275,-26.7488063180092,-53.718798358391155,-62.19091624678907,-58.470620962807146,-49.569428642724226,-39.62452927562747,-33.542122756669656,-31.65592584840266,-28.59528399468052,-20.58322209071102,-7.611391182124667,6.794668906519414,12.460635516855316,4.220092842052081,-3.393525691723033,1.3520407788339384,6.636051030956571,6.108061842992543,8.152397954023233,4.199835144991727,-14.223939977818358,-25.00195910422812,-16.213289064691793,-9.287712857772247,-13.485246220201239,-17.141984362831433,-18.482059873310334,-18.38839888998818,-11.653484989847833,-4.882619861714069,-8.336720241717275,-14.425807665245994,-12.364547464602092,-7.743192338866097,-8.240590501103128,-9.623354486391523,-9.409198544542257,-12.449941851701249,-11.537358161494131,10.18001086407773,43.76648742477067,56.023167256014645,39.81929287534502,18.155645976491666,-1.4557382745065333,-21.441739087811108,-29.431364935449867,-24.83807415710111,-24.184912251085233,-32.37050130217464,-44.78609413601173,-53.529035071465906,-51.886577419247544,-43.01377763464334,-48.54969122917465,-122.01567869337853,-192.9475873554319,29.896081962180972,510.83395910547665,598.9317077980863,74.27036032811779,-326.2369142213916,-200.84759459503277,-38.826949874257046,-86.92555797239977,-84.90986046754233,-21.163492953635696,-32.28396668305765,-38.473399222549645,-5.893916096715717,-7.355481599141768,-16.612878956057,-3.9128883713863534,-4.150624049815132,-9.343313041653468,-1.2385162449025433,-1.081355819930078,-11.25524906412517,-17.606432631886182,-21.116807574849446,-16.4104326113181,-0.7506820663934568,8.720111207094668,11.097638257002645,20.346545943005047,23.65497969493331,12.163713043534756,9.605929580852806,16.151155605716063,11.397983703097562,15.573621580503655,42.94425566992911,57.35245373975269,47.76345837967975,40.25460053109393,28.01465806786678,-3.890473603985601,-35.405748445955865,-51.352965086841266,-55.56078189243223,-49.75463517816743,-43.55885071364882,-45.327513776772264,-41.14687445342639,-23.108227190801067,-7.996016170558768,-5.415341686535264,-4.165058831497706,2.0283225052728007,3.5918276119372177,-4.214581283840573,-9.613863977327348,-4.101434190080614,1.481573666259159,-5.958548274780739,-18.58050434352029,-17.722170584366623,-5.550156558227162,-0.5180103060439549,-2.4096006711379623,-2.3798068054025645,-8.082570337042096,-16.5006158267391,-11.640153863817119,-4.1016333035829735,-7.3017252284817395,-8.861516753372147,-10.175671212830704,-21.662630190496674,-25.86113888668335,-13.9075143188682,-5.168596603398694,-6.71946766097966,-10.036226040730348,-2.5057690646101145,28.315805942759074,60.84418219676868,58.88531217911306,35.57073645599424,21.172095106091525,6.295717048545324,-22.768775548122747,-49.15974033388314,-49.20167282457465,-31.647444742269407,-36.70077634540786,-60.4549892925678,-56.471422305563735,-43.1345933627784,-56.355295464503754,-87.22030670181654,-158.73604181645467,-152.13918291320488,195.26191930078508,617.4603207533156,448.67921522334717,-137.0275793421348,-326.22542585707527,-114.33171329305814,-49.18962242199258,-102.79875904404622,-44.64684843626287,-5.257777275248436,-39.275021070141435,-25.57446469732169,0.3683276360405614,-19.257939308506344,-23.928764038487323,-1.5870484697708047,7.206736503261971,1.9837615710174674,-8.03971303982425,-16.11046880176555,-11.494249544210032,-4.346552035378101,-6.622686435954888,-9.513244998373064,-8.347869153364584,-7.084052629992486,1.2919963403332257,19.95119018224587,31.800592002445384,27.29162237662463,21.292966602914127,25.35832674943533,33.75333590284366,39.23822001392769,40.990332733358834,43.2477531567325,47.48154732066216,42.24231749959835,17.538492217623013,-15.844072477140855,-40.13190089659553,-50.819411936986235,-53.35481331024966,-52.042899280980684,-46.43251323117265,-36.709444073627694,-27.19099420276966,-17.943437308787413,-6.955307770317461,-3.1213119699285627,-9.43274928234732,-7.456340156818193,5.518213017216095,4.255388314577482,-9.051039715722533,-5.207105263745291,5.957849706013652,-3.9803151752065684,-15.886084117343099,-4.944481335133441,5.18628539091856,0.2718730931027675,2.7802138635025937,6.652637812421702,-11.696826717663281,-30.67003200289397,-25.9525349516763,-15.49398071520118,-12.0138062091767,-10.76556772070013,-13.690502417315226,-13.114699250133427,-5.037498806963388,-7.56827022364325,-16.591019438026237,-9.419168473850466,6.408946792307788,19.543589079780375,35.087065379968166,42.036371728985294,30.949722264479213,14.18444731771061,-4.843862516921423,-28.775072114826045,-46.22006731359069,-45.57706427250793,-32.393373396724414,-33.00720727345775,-55.13872706854842,-65.11862457039035,-54.544745051434546,-51.458380264947024,-83.16916885564609,-161.8301748010046,-122.9086391516756,254.7609482873453,633.6523932893426,401.80637934226917,-172.22034198713348,-310.32294969006693,-88.21115516811494,-39.12205602391545,-99.34690226012441,-50.56457036683756,-18.35359244812743,-39.41465929874272,-16.117445831097825,-1.0115224585337117,-27.008381566286733,-24.810888166666818,-2.1341426359144053,1.525557304473983,1.398946902337256,0.2125955152423984,-8.02074058984394,-5.991001319852286,1.5484950810422453,-5.744093759820539,-13.007414091064295,-0.2714032169174416,10.308267997628096,1.074739210595574,0.5447631305771115,20.619032633651255,30.61795015887603,27.187479951419874,32.40940395260033,39.86083821341236,43.28090749888683,51.23217014210688,50.82311929976466,35.973241150195065,24.991925790670216,10.425411570432736,-22.580806736768572,-50.213148964148964,-55.86615581606283,-55.9924125905718,-55.06198575252186,-46.65392884054729,-39.07048385540088,-34.633770489800085,-22.957992349839664,-5.633349725974497,5.094030476963447,4.304379014468942,-1.5492040476310542,-2.0686932776129687,3.107274904427646,5.218287955453887,2.6512764513033886,-2.911216736692566,-12.163019762130649,-15.944606453432,-8.821558388731503,-4.825872642602626,-8.854102852353257,-10.434003386881345,-11.182442490644021,-12.85795774784994,-8.915611137786247,-7.3368356137087165,-12.193191194718308,-10.018968393119554,-6.458395687450571,-11.723583836562213,-3.9231275510772043,25.573053547421875,47.754984569352295,48.35799783417556,33.69663727879127,6.297590314598942,-18.37687244570988,-29.02724744263349,-40.68425258738725,-46.7238251539368,-31.7082502505566,-29.35711423480229,-51.16175845298266,-55.38350753956957,-47.40446344698496,-55.09125569360742,-91.60021809811516,-166.0309137013313,-88.12701257154376,337.9681081110683,664.6332684017049,314.3317264114029,-267.9743440794691,-323.9935338089284,-82.30027232422918,-48.607099990280695,-81.92638338118982,-17.74497288918731,-7.489442616787713,-46.28493284914161,-35.243382171906944,-22.58418978153651,-25.82983093164934,-8.788517280156011,1.487262028881302,-7.2955287401484625,-10.118220673346784,-10.588817673896113,-15.290737099561566,-14.8197158790737,-8.045421413325665,0.579526545495306,5.74321790195221,4.461601416159616,3.911733881157547,10.498503891480237,21.715826416905657,32.79786801762339,37.469691710881555,31.234984860348913,22.22644797697825,25.096674847018438,39.88052237178692,52.31516356786858,55.15220488280099,48.47638333271235,27.618886698698482,-3.7469926448690254,-28.34896970743344,-42.08031689212254,-54.75736583154508,-61.81613897505973,-53.744326546979835,-41.639525188020905,-39.35788485063178,-39.43869276865553,-28.791928489271754,-11.06751227343933,-0.5009365009388311,-0.8477489227880746,-2.0211239668090215,1.1493976361788718,4.3775376045311285,7.930759668656938,11.55084751737619,7.352714595039669,-1.1139533927354304,-0.3941456429980441,3.020459427752881,-7.282109020936444,-22.185188816899974,-22.385842115448817,-16.787925659749742,-25.307904603254414,-37.08887931562499,-28.0700982953303,-4.234105453230915,15.719150247189738,32.24217536170515,43.64662324227424,38.52092868728145,25.53781275965386,20.664884047046463,13.782923776838281,-10.751458743432572,-39.30398436888299,-49.321443282381274,-49.52233441422993,-54.10002278284191,-50.45994558138479,-46.02605754739917,-61.88113582014044,-96.71553496194024,-174.36579484967626,-190.68002284492775,142.38549386993373,646.7303740481452,588.7790471446132,-46.950732318687386,-375.5907285071211,-171.21135021551714,-36.54103422227368,-102.87568258400995,-82.66681736034859,-27.061277092755148,-45.988244913394816,-41.59577537828217,-5.0196505055397935,2.3383907417755374,-4.197262082899876,-16.20954098866276,-27.514401383877612,-17.579826880968554,-9.791479370375814,-13.779131844783052,-6.008605600349334,-3.995970621873825,-20.56753416321379,-19.850981287121545,2.342446778084895,12.789310116466313,12.781186325484004,20.90016450862407,31.75159797126401,37.37255990714036,40.533434894361264,42.802840740525845,45.160909440498486,47.310004676999085,48.63935703205901,53.24134294314328,55.93746783929514,43.220469150734345,16.633230062390723,-17.89294114459334,-58.679696145645046,-84.30203672058053,-77.47188404376996,-60.92757297938826,-54.309013112176444,-46.96828741286232,-36.782365238033854,-30.169860153922798,-21.0829453308742,-10.14863024050587,-2.436650102917792,7.739879055409528,14.768290851527526,7.971190495501066,2.008709642558067,7.881981778329903,7.243448485535351,-8.044504871287163,-21.46589560379657,-25.76633776248519,-27.809571689282986,-28.985047052837302,-24.665470154073397,-15.86387094252433,-12.332194028343554,-15.554411102294718,-7.9718431294298595,18.28762528829144,42.40946750245293,47.02204241078711,36.27335205926785,14.837130905582574,-10.91643480995748,-26.635302171236535,-33.99057725153071,-41.1956236150544,-40.88165376217627,-41.61333354364502,-53.425401739587414,-51.48540167853937,-43.18802232327707,-60.67558871970253,-93.1433306534775,-155.38321580657794,-157.2369044525573,178.45562628388774,666.2422815435002,576.2317894493924,-64.85709680040567,-358.4528746071578,-139.80639602870053,-31.617884165584663,-106.75500054714081,-74.09196853758093,-31.618985539387765,-64.29430404592057,-39.79064642852869,0.9062729479220337,-22.58648765583962,-28.23283199251061,-2.124528130959815,-5.677505398445028,-15.972931548708612,-13.326481756250361,-22.21920282948999,-26.410096081579795,-10.473466104988292,-2.0182903231883724,-5.95891881742293,-1.015987489375181,9.27894044447042,15.229792824698704,23.30723523178894,29.994380695254215,29.103030455233487,33.837069326663766,45.84394287399661,47.98861639168445,47.73226325820189,63.161736293917194,77.1215462306023,61.783267292947656,18.459092997934846,-29.893115229111647,-57.946498902728806,-61.44748891150165,-63.12871650448167,-71.8246253601616,-69.74569312756807,-53.00695786766507,-36.32315435451634,-26.34841658689036,-20.19647492286701,-11.035146210797308,0.7418511544443227,0.5599952875260428,-9.7786203605617,-8.725323173368608,0.924566906720969,1.921006244553407,-1.5686988124970327,-4.491692511697863,-9.473194946734202,-8.667938129859063,-2.579075631939242,-4.319211169987245,-12.623059817095331,-19.724521694812612,-23.643569099402512,-21.729843011676714,-17.22932273839499,-6.969024650955849,22.76531447221424,50.17318339455434,39.199826617506616,15.04894588689815,14.037717068272137,12.020047944233735,-8.814477665584992,-27.385811925410607,-40.967602823854875,-52.20487755030909,-49.36710059841967,-40.249158502585914,-40.163506070506344,-51.897721651237774,-68.84528383885988,-97.76968874343494,-175.72623232609726,-177.1693564646897,182.92220300467466,678.7306049056972,580.0532603075816,-63.06176429546264,-357.8026590107039,-139.7622330594831,-27.030057155898543,-104.50622907124767,-70.04034479856978,-8.89993994535893,-40.37508205804909,-41.541869975757024,-6.05882298486617,-9.764075706690615,-11.083323834458248,7.301450941644661,4.067605810819387,-11.76312831226021,-21.834490865277342,-30.384910824792485,-29.117168045145007,-20.64331293247262,-22.315353340988295,-25.840828021402302,-14.38561538595053,2.727802973111265,12.582828888086988,20.399961959549522,28.740691297458188,31.24746895635497,31.161327473687248,36.57616850009978,49.03302515112699,66.01949710151693,73.0495445722075,55.65949089089966,30.12136307306011,12.951562966544369,-12.822009973912339,-48.15385084920502,-65.76034356033506,-68.2567186546159,-71.4107225251509,-63.93500532281735,-46.42352264231575,-36.43873300034666,-27.09594493754435,-11.837694646558688,-6.789298325397752,-12.00720248110715,-10.461015409266242,-2.191463094960749,4.163800917704354,7.851413903048739,6.091472524178849,-2.7023774657918445,-8.663570403376202,-7.358239532114814,-6.328494650356131,-4.081399623206067,0.6170243841152896,-6.659353697757172,-23.478229518901205,-28.152308582488363,-21.65484373193579,-15.162937415127885,-9.335421509315202,-13.383537194488806,-20.07254206005661,3.6796521026836397,45.091854106074635,53.81547579934284,31.33764826744434,11.668950415749142,-1.4870030773588194,-14.002220718835407,-24.41552462709484,-31.858320328565032,-30.700297493859182,-31.87427778327591,-45.76337425629985,-44.54468639275457,-33.46013756659916,-52.919995954198946,-90.90433901273721,-157.38017649761952,-195.92504471998365,76.28838963056874,587.9456808170896,625.286320171209,34.96004526938133,-339.2265961525677,-164.8880226660831,-22.122553360204677,-98.70385393127077,-92.03570167844347,-28.41169387452016,-43.397986065101094,-45.70549492947383,-19.628431232548294,-26.183452884730713,-23.844197517174685,-3.1618471294369543,-5.4747998620079485,-11.074983625322346,-4.484974982657203,-6.563074575486006,-10.02020846455197,-2.8407485925719334,3.16329301091659,3.9570639654619146,1.6096266292578576,-4.270607060756965,-0.11906361207928295,19.588344914319467,32.37329133795774,29.350579786040342,27.901991745371895,31.592356105175448,35.53185547478802,46.17691029535333,57.04192687880687,53.67845847438415,42.76439304824823,30.867593287833905,5.7368699552024225,-35.135338256330144,-69.29738831895371,-75.60962668294448,-63.518521601508525,-57.03304830004096,-54.56399032273801,-43.30964885328022,-32.10885306430945,-26.63401346643719,-17.758663159888727,-10.377930355523159,-9.309625885371855,-3.0473461176314878,5.389883557984728,3.8053892204579576,-0.27867919061555213,0.3391213409448497,2.1375750484940728,6.13002752224568,4.66332894602666,-7.869703364460728,-7.76214409851179,6.9256693523291375,-5.987815528741219,-39.33417422406497,-36.47439298188087,-10.85956149339841,-15.663612856743914,-30.554298000650647,-20.26778991321141,-8.267268091857108,-1.8416130202832859,23.979916086531922,49.566482913804336,42.91725360607059,21.99133069297998,5.54622588116314,-12.670755798886221,-26.293208944303874,-32.245789011818594,-37.62324413812517,-32.781997627027266,-26.577370440762316,-38.272618003175594,-43.38886007373334,-37.87072534274609,-51.14099640663874,-82.5060727993491,-152.44212587256357,-163.05702580737466,162.76170362314764,628.1282434352343,522.2822431632844,-98.07842515705791,-361.71543747554284,-139.82676958162608,-31.770630708287314,-95.0402524441933,-58.437384541376275,-11.368626691098655,-32.30202054543827,-16.899495887729984,4.145384467875779,-15.619114705161309,-13.859177362208099,3.325043130738692,-2.477377182451944,-8.533633892559127,-10.637530308194382,-17.024715142750797,-13.389557189885693,-8.083505742760716,-9.162356512829053,-2.500376563002716,1.5760608615173624,-7.770424242687355,-4.961529978412569,17.965629554608995,33.713164059500784,34.20268222036265,35.20650788684989,40.49670430234443,43.67229500517541,47.91241690891519,59.86273117508497,68.30268626628693,52.605785688712096,20.188469336921205,-2.6964458073495194,-21.461213546005524,-54.9131911159472,-81.3985975852444,-75.51480281668324,-59.50063938540895,-55.56424361450236,-48.54418469872263,-32.58759602317256,-25.52913250947352,-27.49027190748255,-21.717244720322995,-7.703029076155524,1.575228447814439,3.1048955481612204,4.0243579946021,4.865660626099883,1.3992060100982968,-1.1787053671537784,1.2023901130121502,0.18759329326151963,-5.574425308786905,-7.239034724984457,-7.708558215057122,-14.77781460504827,-24.353340872082793,-28.879759653854506,-24.562426884178397,-15.062734326895143,-11.710807936809076,-10.496869125382627,6.815105500564817,32.659822361313815,41.76798208115307,35.33242248911173,26.38968985356408,11.698418636695505,-7.153625809497928,-22.3229505205197,-36.44551239796348,-42.180944262299775,-36.578810116770136,-44.135701260243714,-58.81057013053924,-55.04906554778499,-56.04069010012543,-78.76040925914793,-136.76376214471264,-209.48572952199734,-30.383635683956214,513.8572276204276,770.581429999779,247.2974629525383,-334.62807222310784,-279.68101188229014,-51.60864449551889,-89.56405779576092,-112.7270828152422,-29.82425221463717,-35.36367649629205,-57.19979253399302,-11.169021319148808,4.572905855850941,-9.92212097174198,-0.70163569692129,3.4080569377708088,-4.806862430540265,-7.550374929962333,-10.276974112192999,-8.364948007675,-6.11351886167231,-15.700944725514594,-20.456252466776654,-12.978709608184083,-6.218808884837596,3.7514621517670497,16.5339301543058,20.534260257046,25.859473652832875,41.812823601165114,53.21293188816463,52.186237197492616,51.199405268076504,60.54073956664856,70.4084521522183,58.88505936526828,27.602113579436747,-0.34281980616334273,-27.106868840377125,-63.14854272324607,-83.31927506616641,-72.34429811484566,-60.38397048603649,-62.76401315330908,-58.67067750196763,-42.679006707370846,-27.78875731529901,-15.370897876860717,-4.844936203269096,-1.6675110458288138,-3.329165754306331,-2.0098977899344916,4.717108663125531,11.947365342144286,10.209238139814262,-0.9993206403258057,-10.504233495499502,-15.662901512853976,-20.432174647066496,-17.048288604485855,-2.9050815693939853,2.75738042198644,-12.129801148934657,-30.566476810840957,-32.77142240529417,-22.66129181469468,-8.814684834460529,15.997571075995632,43.35371714883904,41.1693386333926,16.09917536566577,8.051231304620844,9.179957683617884,-10.403767295109674,-31.129114172469293,-31.17785642825744,-34.3879531005783,-53.572013095845605,-60.13999191269574,-46.355916761032304,-44.43926032302001,-56.98589623370898,-94.74769163897211,-196.77178002163635,-161.28201546073078,297.1778071729469,763.018732914974,492.33820500908485,-192.19492749274258,-362.55569471904425,-105.27760339903742,-52.742453385777516,-128.5219832992356,-63.431058543627955,-14.438009394259709,-49.44723324684906,-39.7931467450654,-16.241273446455608,-27.914455398918772,-18.362000763973604,3.224933664292794,-1.0730778120229356,-5.518982974391928,-4.501046424465978,-16.903365147949,-20.740984042339715,-1.0300856390469746,10.48513365762144,-0.06272938384606319,-4.307822097142636,7.029664357521527,13.68836636130529,15.649596552927623,26.931424687383164,39.36593840717407,41.90994700814969,45.35761442177821,57.925552366086,67.022296351874,61.677726958586405,46.37999924710262,24.511392604430718,-4.347222880932473,-29.483606468535523,-41.91904687942328,-52.86245640232599,-69.35141280988267,-74.30134852888254,-59.35301722379957,-45.523886741709156,-44.33947809316649,-36.98416185925195,-17.4345207704367,-7.9543631995836925,-10.849228362358254,-5.697067747711955,1.4825064736932028,-3.8946327405159167,-4.553642328832211,7.8323136762869865,9.579972979040221,-1.4625024811116933,-3.22922973966633,1.5637689774999473,-1.2837344909411392,-5.426403009039621,-5.5525522514770955,-11.657586118499019,-23.599719258041407,-27.2956493815324,-21.420504812925323,-13.330424325119889,2.7590272264361744,24.900985473930124,31.382868428003913,20.051041216809956,8.859534882535407,-1.9713016365492173,-18.61776619453092,-34.59796663888649,-41.27572689899833,-37.04620444414519,-36.607663884630625,-46.394238657113654,-48.491123661919204,-51.531218179319154,-72.12385525071952,-109.90282927110378,-183.67079212657814,-144.67214681939404,264.8668000711607,716.3992646957086,502.9758196148831,-149.44482931495057,-353.353562229204,-115.82568484525437,-39.99738560193708,-104.51588929716696,-56.40064170525318,-21.68320572158727,-57.42237852965676,-37.473935027378076,4.823183575501597,-1.439310315814602,-13.248813195210138,-11.296253234888612,-10.170243063489348,-3.880661809292384,-0.8252423865165195,-9.01351891840932,-14.434591207591488,-12.020673332349334,-7.315191382958822,-1.2256883350743624,4.454788793337809,7.407266442387895,9.697190507936094,12.73174329461381,15.589326652695533,20.790769255224784,30.82145207619871,40.74661132565553,46.57220215837244,51.21663311291317,54.600063976006,52.73078305277785,42.99541163762814,22.756479200564222,-4.848558203928308,-31.473829409167017,-54.38474278907793,-66.91746669236821,-58.30681273519519,-42.09364258294104,-42.061300011417295,-49.91300101955024,-46.132401406138904,-35.81596853949979,-27.216251700240363,-17.842474784218936,-11.090162724534174,-8.570060572090373,-4.890133322613533,-3.5238476997028236,-5.414448450772063,-0.6488512718578079,5.687844151829282,0.7702359258770528,-7.328643053889909,-9.10797629534132,-11.291806118340563,-16.677245997040025,-21.42000135023431,-23.968134720585134,-22.301670109980293,-17.66068146797129,-6.53978480724858,20.887029913651237,47.121847998712624,43.798895413251785,26.02478933067453,14.674207203068004,-5.09677158623273,-28.45096195451024,-29.35543989837777,-18.782076898019024,-19.74130141884129,-33.6085783207717,-53.810350228317546,-67.0491587762815,-67.40779988593164,-66.33165508646239,-101.67785050570421,-193.71661838779545,-140.06930652288654,297.6622612313371,717.4967284761011,453.6202192368815,-176.01516321942898,-327.17442257932595,-92.29436144763264,-42.21613163564763,-106.08514885251554,-56.49028636285706,-27.120760189313366,-51.930857776745796,-29.14484039226849,-13.062526501588469,-30.94771382390357,-18.046180209154997,2.16759850141679,-1.5797201165773718,2.4625798334194897,6.771481953153996,-3.1857011491854994,-0.40315232073888096,8.87284624558111,1.1524308819250477,-2.682611390090438,6.45136255799852,4.219550942948214,-1.6748309075345267,8.527018912513787,17.80106393710574,18.827803535713514,27.62931678917628,34.37944789000033,31.06933596846698,41.05327248789569,61.395508563303096,61.162267452117085,40.553430973117656,13.18319516578796,-21.034226135348767,-49.607074958866285,-60.06283367366807,-61.78988962440654,-59.33207749314716,-53.31493295833034,-52.01470307535522,-45.20822601433125,-24.00260260446766,-11.454458185281439,-11.649316875049145,-1.7677381457423706,5.130152549411541,-7.88657661505005,-12.737459409917378,-1.378086818779373,-1.6278758833897342,-7.554560210255355,-1.7599959720119145,-1.7874834503643449,-13.443993726086209,-16.42285614708689,-10.512380933881158,-9.836061156559499,-15.552871325621314,-21.855332063814593,-22.90548082468755,-14.060035162086034,7.914236419369342,37.89231661056365,49.920495614311605,29.598574978660686,5.7752363833605544,-1.7594915191751817,-12.343407180641078,-29.39509721818675,-32.66761528255641,-26.488314723530873,-33.1411672358919,-48.631662094019745,-48.69910323574959,-40.21692438819832,-45.99285948661771,-69.20496873207185,-145.29758481709476,-212.6783132933062,28.689572923221476,557.0798293104143,678.6546320983092,124.41525877583487,-329.1274165338105,-211.49818973123178,-28.90592968018317,-82.6261155052353,-100.10455089603394,-33.15662626454642,-35.17223293598606,-50.75227306782233,-28.003108611778437,-24.38736912174915,-26.21020069551335,-9.375751694373376,-4.821016173497771,-9.51766986797886,-5.966260323072557,-8.035924956348255,-15.134589250516811,-9.900010369309346,-1.006029162674845,-6.500726098220375,-11.168999243791404,7.301695859841349,25.580219026620224,18.518232964735247,18.06101214029036,42.08449703846273,48.00951953032748,29.83567134125326,34.19790388275638,56.23258977751611,58.44235738482925,49.79696431097406,41.46207855759397,19.434525048593024,-5.944179597517893,-23.49326074717017,-48.00501103296728,-71.21110360165557,-73.61983123103485,-66.7353128944677,-58.034275263346245,-42.75428450258967,-33.197646248079266,-30.899106146899793,-19.880960425215363,-3.7071006359066807,6.586722594754455,9.015669643080683,0.5688546415585876,-8.188717452622885,-3.3828697177889033,0.1791079528864188,-9.293854633689552,-14.918395812093543,-10.960830082514288,-9.831128369254785,-11.19548846408526,-11.04014917338006,-15.652678941026181,-24.354305812720128,-27.220138649095162,-20.841145148797395,-1.9828628290064927,35.02742706158524,67.45618659043907,56.777078162504694,18.82143986881107,4.383605893233063,6.799873684363585,-13.916383165436368,-46.48349569324505,-54.517851423148585,-43.631662978580344,-44.2838161369505,-52.050265671561135,-45.333877705825344,-44.66343029054592,-62.72658049621806,-91.21250866555306,-166.03111202103395,-159.0551612362812,211.74712941779399,669.7739646638295,498.43229862295567,-142.10762493360596,-365.0179348867952,-121.81013516310381,-24.71920797206485,-91.993515355346,-50.50893703277063,-5.5189922105109375,-39.37670714063297,-34.70646829303182,-2.9335969763328595,-5.8413313850376305,-8.68544924335156,-3.099124791660315,-11.610956836822574,-23.399816536598074,-26.232356059722246,-16.465871325348232,-1.7820246605545274,-1.450755612275474,-10.216945375464658,-11.404339327199676,-5.8819453426256585,7.149309226978071,24.660947964263787,31.06848734115094,29.82749279553689,34.673538326723744,41.26208373014144,47.871690683191396,56.56499215673254,53.69389104447333,42.04582756528867,44.516633818846444,47.131716074341114,20.045818220941705,-17.44508624317572,-38.37731403124906,-55.93439095252165,-72.34895954056132,-69.14855283074573,-56.68490768811563,-48.73891975495342,-32.59074442594253,-12.788937610743318,-9.638969704291842,-14.128540285629565,-10.383406731110412,-4.11751156000501,0.6350017067970697,3.168895799672736,-3.8065872177987146,-14.275049114144835,-16.234304399129723,-15.425442830240705,-14.435001915619392,-6.100072943234494,-3.375828778601992,-19.204998457946616,-32.97969824953351,-27.229094565510536,-12.886944932392783,4.9107429767570006,27.519033690287344,38.50800514106418,29.841856671520617,18.411359480057158,9.955050670673653,-6.9747397309683485,-29.558543062866292,-40.211589757900065,-30.34778561837713,-19.64521973713533,-34.0390472384166,-50.68439296468871,-43.29511205979651,-47.26803787460937,-73.6145230772465,-121.13941499510067,-211.89915427893212,-121.19613272435772,386.7868551036837,778.4963654562878,377.27287164446074,-287.5743283905657,-339.43687757857083,-62.98416396825995,-44.66632522750633,-103.63556835464908,-40.96307080803704,-27.494344783749774,-52.85552901474286,-20.61924198817415,-9.698455418814731,-27.34124915476157,-10.655419714082148,-0.3178268100892172,-17.48463990348973,-18.906095112695134,-7.035739870614664,-4.158535495943159,-6.705592448946842,-10.855141119857795,-11.596645826205265,-2.6163199719251553,10.5761738153139,21.139309658035312,26.902246876978996,29.48455877465765,37.02732794099278,48.496026333162234,48.75826758085621,40.15894888700973,45.52537991631429,63.87787077450157,69.54605891125574,58.899292588286,42.30826607887582,9.189967395596206,-39.38782730611133,-70.88139490241431,-77.16608321210785,-79.35716557491551,-76.01636732843555,-61.423956188914715,-50.193713375458174,-42.67602567971655,-31.9554598048907,-25.69751830079668,-17.909866888422194,-1.6105353633407802,5.303201589002946,0.622036838017948,0.6890668016967822,1.6922213367588022,-1.8260868603274467,-5.6632568780200785,-10.689988928658625,-9.102588197309768,-1.1123216215002643,-8.945761474852137,-26.21762236036199,-24.93693579686863,-10.988839395514551,3.008638056332149,20.547584068607154,30.140099666110466,24.02992628231054,15.027799787578816,4.814789885823274,-8.10835654792938,-17.621555079972516,-29.73363959814625,-41.21272639534095,-39.96937931450688,-41.11873230766759,-51.73034395903828,-56.02884889878139,-56.85259766448257,-69.4816950260712,-137.86527406663464,-224.42429008788224,-29.16322858999081,515.5930954161197,733.705308902898,207.90618152812272,-327.41304224449755,-253.06372245852833,-36.12053564991098,-74.90790085574056,-101.1768999266441,-27.052324193245084,-28.23070128107625,-47.42546830971406,-12.614247516252764,-9.63652623912084,-32.33576760645697,-20.50871913324085,-4.117972178069159,-7.531232349458124,-12.868930851135122,-16.58566805391862,-15.78087796644931,-5.890981821365264,-0.05475660529982296,-4.216039079153819,-5.458087549481914,0.4929823203269086,5.942739626379531,11.929070059289607,20.55148900084947,24.802528821053887,28.282930571523785,40.169389443213944,50.43341977413611,50.76780405012339,53.032785636134406,60.475462300762885,60.59964817267126,47.09233191988876,20.42159527946518,-13.400464367117188,-40.74651211290437,-56.76355425220132,-66.37341908611906,-68.63529725380126,-64.4893350564732,-58.577259466721586,-45.178110145930056,-26.6509482921048,-21.71200308667467,-24.994368674157343,-13.037282484386598,3.177829389096072,1.2366551471527565,-4.778877077384923,-1.0829988039558422,-2.9922729024309866,-12.025805115284417,-12.773881552599299,-12.7568612992481,-22.02324228166497,-24.189674795027337,-13.469049355119502,-11.023095101126152,-18.282195249677546,-5.157583812756261,34.5881218797124,57.55600938387015,35.03867164352334,4.100009994323795,-0.014062708235941912,-1.4995478664051198,-18.096363589441346,-28.007460819248532,-29.205274657470977,-39.50082649447336,-50.23594389985869,-44.709410126979634,-38.998830578929855,-52.90277473765928,-70.10285640769905,-114.81963211720726,-206.850816801515,-101.8446370310474,389.8836205922706,731.2510132670695,337.9125900862538,-261.0208216606297,-294.69275175148357,-56.883084771775096,-63.452920877322626,-121.09141537306817,-47.51855040663608,-21.486194281374736,-51.193346675037695,-31.54388769347681,-16.483564110897916,-31.16422512850685,-24.114002730040013,-6.051475975507633,-2.996758509838827,-6.624313467736194,-9.615151719876277,-11.13103674642033,-11.77784982317187,-7.8454032526183815,0.2986924114651104,2.3217305667626333,7.345631498755761,22.211813691149814,22.144994443474936,10.178060283710483,15.310668477070367,24.30217080973663,22.406327860094116,29.696280060222964,45.85665958501839,56.992698791407946,65.37451336832505,62.02238240675912,41.419424927745595,17.70580428250117,-9.791767327529524,-38.81367690111779,-50.00969898192161,-53.86993072231639,-66.13854253510624,-65.49759159273627,-48.82437457270264,-39.38876950537799,-29.824728767766203,-12.499626885699755,-8.47319531333575,-14.811849214152865,-10.325130150955808,-3.015778684581754,-2.6644839784697147,1.23117300820304,6.421875210334754,-0.4779229759884487,-15.65101991411861,-24.80134782459355,-22.2917609824769,-16.37655381908996,-19.658530157838374,-29.43109644749231,-27.79341884087669,-3.3362473429602026,34.863252725779816,58.36593126030825,46.77626134035588,17.519076453840167,-0.9246932753582566,-6.949535110229721,-12.186051620502134,-24.6659434048904,-43.91907260511343,-56.47410688432657,-56.765398533046465,-52.08311263341087,-48.99424563091527,-54.501922809178936,-65.93668611551567,-110.77906097430414,-198.47624270794358,-95.07215142038388,375.2900485277929,696.553492965626,315.0403708292579,-256.4965856982019,-287.5433537332285,-59.70124410523915,-51.406921989292904,-90.52882970602963,-30.542789068424412,-24.36864435269397,-49.928977712517096,-22.265355692214783,-10.597836704995341,-24.168798179364096,-11.74748597779052,-2.057939224457675,-13.166002844561934,-17.47549248192675,-15.427912127700637,-14.77237517136682,-8.639891090615098,-3.408193055516592,-7.492095080883988,-9.776220649464804,1.2571390723919595,15.708776584232957,21.00311535236741,24.671699842893975,31.85855631721883,31.654873468584753,26.413823595472028,30.028422315847983,41.1079905410375,54.649504694726474,66.94989066655432,62.28289336400611,38.5293798471395,16.508129585889954,-0.4603789545428949,-24.88419663782364,-50.733073736353354,-64.0662986965958,-62.455813884749745,-51.57546736086459,-41.71804978126991,-36.2261684084566,-28.626743692235536,-21.565599343615915,-20.681032622879354,-17.294328541689204,-7.560909585688254,-2.4741419275904093,-2.7948634063154962,1.22317911255967,5.313634209937852,-2.031342013909512,-17.81914778328525,-29.8402900214516,-30.9471201824637,-23.00566000717304,-16.72253272098203,-19.366221248839985,-22.62043772407163,-13.421025447556428,12.236351577775348,41.597061945930776,48.629957552878416,30.62192341543106,14.780136802378351,5.553059496947904,-12.44540386496317,-28.54528884313042,-30.545818452440543,-33.32232363053535,-48.95615730047405,-63.785948767577096,-57.15584178144364,-43.38725178125252,-50.33368866576636,-78.87897248833553,-151.72322721695295,-188.3872613396034,90.95406183288384,580.5491174144573,585.189149073889,-0.002036462566991304,-341.3071931140516,-150.30815121942797,-12.334272921680313,-92.1165810827973,-80.25315876011494,-13.096594679901393,-32.38480752747795,-42.170448926363164,-17.7176790261655,-19.590574902515762,-15.371450524859018,2.2621976766433294,-2.60025989764487,-10.927223886614962,-6.953185400793224,-6.688507014190434,-6.928947979960009,-0.477124953211737,2.37137847013884,-5.6633455291527754,-14.583780619178494,-8.257231056003906,8.613195491497963,17.923423005705992,22.1463178375055,30.32876994227381,33.19463609262043,27.331633347589822,28.627525815591675,45.94193918012793,66.58825959764235,70.27353635979972,53.05049159092662,29.13222051858442,2.6923620329329836,-30.409579563893,-54.572026003020454,-58.5567962662185,-60.20938107051654,-63.47967278781564,-50.32978500163236,-29.277347270388695,-19.626585452615785,-13.716169621203644,-8.074950700888017,-13.484843956774,-18.748697781727508,-9.240000611201104,0.05552645972995762,-4.294079734691245,-11.873628532880147,-15.166628284892358,-17.845964113078445,-19.669244193290577,-18.971786782002958,-18.574703368048276,-20.073018494853706,-21.063563361585683,-18.06598730603762,-10.777234537468342,-0.10603018017895316,17.90193868271534,38.521645895305326,41.39201270146432,25.22606820487423,11.66473030843915,-1.5728560532065003,-28.141196469176,-46.34694394980906,-33.23509253897864,-14.565897871077222,-25.177605923135236,-45.08942057412713,-38.55552688219638,-30.108377788494995,-45.012695567074815,-75.4967386580521,-158.9355633406133,-191.04066618696945,126.16794947984033,602.1127737347244,524.9782031521372,-73.11259850887055,-344.6691670877929,-132.29882769375018,-15.208204330168194,-81.96630604125532,-60.11975147545115,-9.847522690527313,-31.162161172133118,-33.94199060933013,-11.901453156225118,-13.706344987644702,-14.428599042727456,-4.6030329745361245,2.6160323745784133,5.447224866171107,-4.809004484732119,-11.781484133305977,1.351004642213546,1.208748009899339,-21.418673502603113,-24.561740165001133,-7.063942895388763,-1.2314571910467165,1.547367984787563,18.083745117301426,30.639427730253672,29.191240174319372,28.900529248394655,34.69051276224282,38.50821765884088,42.21364382748609,52.520861867599706,61.22685504895426,52.780928569035396,30.245533012823103,6.844525588857727,-17.907531185660435,-41.40269283355587,-52.19189113098024,-56.844060202681824,-59.70663955761614,-44.96512185881502,-22.589497789563005,-19.087606963210334,-21.609180813815584,-12.528006043307023,-6.824159472578707,-8.739320963767437,-7.514599401454323,-6.829646434465211,-7.073489251754225,-4.987853933898563,-9.877202543875281,-19.654259950419217,-20.91429221614396,-15.851961000923716,-11.934316638892245,-13.324473485328234,-22.436561810694844,-26.352176812330125,-15.385501446282714,0.7307278015948224,22.593121472793626,48.20864359085401,48.226378992059665,20.33120727573736,1.4622991148389257,-3.0220853690530607,-17.45394962872558,-38.414186333183906,-44.659430414381006,-40.596894328890784,-45.9295482782001,-50.72611771318896,-40.11979974139862,-36.270948056646674,-49.970337229821475,-103.94708310123622,-213.9936621465771,-132.6184584396091,366.983813055497,755.2932699768763,380.0687449746564,-262.365135705984,-337.20058003486474,-87.61137168123761,-59.4616028299544,-101.01685955235186,-33.8806578740618,-22.22524468216556,-57.72635429341053,-30.524055721131866,-6.879699564164479,-17.122163048454603,-7.577177330270578,3.8812730269689775,-4.145380009868003,-9.014227792044148,-8.941064910614323,-7.509983516429284,-2.505741502894283,-4.5821019620114996,-11.63869667764619,-10.949856083591778,-2.558907955092743,9.92504497756013,19.332004897963436,21.53484024226008,28.37113641875301,37.27982484874101,32.78484392886148,29.739086234355337,43.256248821681936,54.03653739604612,53.54116817774902,51.44376138622708,40.09250693421729,15.547773769041079,-8.166078915794689,-29.29089158892052,-52.4742894931451,-64.5434931786958,-54.14286934911709,-36.92300722817118,-33.03176968676201,-32.63784538824401,-18.38956533101309,-5.178651686732749,-11.932603088226102,-22.93559923016776,-18.545192381188045,-8.42542973516694,-7.501391515767935,-9.48757482672314,-5.840181662673405,-6.661138381894347,-15.953323742505411,-19.40890764497202,-17.22227654899685,-17.977972003259826,-13.95591991099026,-11.605892813386369,-25.294024032158923,-28.63922928304912,3.8174070896426873,44.05321339473486,59.20717061532699,47.81815607415812,19.077275314545552,-9.632481054421252,-23.851834793536483,-34.82026417462113,-48.10663608367781,-45.634430968070184,-37.52127002390526,-48.75029263708039,-54.05567184129329,-37.97393976899336,-36.23288941464957,-59.4993222288049,-130.52618221881474,-212.62487161744735,-14.206558409514798,510.62298153682184,681.5890716941905,143.1046798973508,-343.1631375798312,-236.85617936824642,-40.48527626800176,-85.8301447890189,-86.90559414289474,-4.239889198761688,-19.843984607318795,-55.56892462726527,-29.96850573032075,-14.130948179154721,-13.017475883565437,-2.2835860045690595,-4.423373305484791,-13.882847702930777,-17.817557881259393,-20.178577966326475,-11.98487686102324,0.6345155720344087,0.4694979338494676,-3.901582694489279,-3.563966487545719,-1.2896292772455094,7.820164003169046,22.47680145686365,31.986276015336173,34.48004110777378,31.09848757184097,24.5830442811002,27.419690349028546,43.76893010303499,58.373159610827976,57.05110842803721,41.12246781143456,22.57532747707855,8.119309575502728,-12.03318469850219,-41.550424292198514,-61.00686234297129,-60.39582344668473,-51.11732343521483,-37.73353669499018,-24.624805128724233,-22.944916454371366,-23.66284956842571,-16.712735889437116,-15.171245081212497,-14.218070941177182,1.6167415970357766,8.247340673691735,-9.616091876458896,-18.038136648487683,-7.228854541295426,-7.303476702667673,-19.56621670915783,-24.565011016662766,-21.2380365589402,-13.016308082249292,-7.288938812498905,-14.817293057291781,-23.983566300050782,-24.24880461315273,-25.600743124335594,-13.637432356910093,27.562555977177823,52.72932150032634,30.647338942473255,8.988611792148824,10.189121000386697,-3.6271047121567825,-30.354373654931244,-36.7181342712787,-30.132763269132138,-33.60972373667399,-47.42996637395969,-51.64880202123522,-39.93563838563571,-39.99377041700902,-59.98423735302375,-114.37567505917355,-206.65305059970015,-94.32331202966084,399.6319094896362,717.4252062037158,293.57387752160105,-294.83854363417845,-298.12789853233954,-54.16962423730536,-51.203370811035896,-88.0212596790944,-26.387165467187415,-23.138271929450404,-42.38094586873993,-12.897403044451407,-9.38355150455731,-22.62879644705217,-10.415733361301657,-9.749201755855747,-15.05882626326017,-6.230474483989907,-12.895557673925769,-21.375558496522522,-2.6542296335704565,6.378253719301879,-11.875166626494549,-17.2088399259544,-1.3610012154229114,11.695510068737198,22.299013803469805,31.021173212551204,28.330117325261142,26.762060130019,34.74654774574868,38.314924912609584,40.82993541136673,50.745288620157844,53.313967499385264,46.902197466513584,41.61089747294836,24.590739907995655,-7.270460514332637,-33.73307522560337,-50.35966698496528,-57.83860036699967,-50.83367829666798,-44.837401265295,-48.90435866241123,-43.468371947439266,-30.41330686699346,-28.959919143881983,-25.900218376308473,-9.062534200766049,2.9572608672751137,5.818410995084026,6.784801660978371,-5.857567010486683,-23.697305063628313,-17.506716804868326,-2.4778224077045294,-10.648820860397716,-24.397637109716673,-19.885815879807534,-11.76322164419814,-13.768945391152506,-22.03175438138041,-28.450875042104414,-21.958195384865434,-9.55579902925254,-4.912205465677042,10.835592709612126,40.869213459531444,43.5179340739276,18.91762913733517,7.821623444735624,3.5818364545656394,-13.14664581088439,-27.85776248391434,-37.17833536065642,-47.116259037815794,-52.82145821220908,-54.097096071246135,-48.465967417796584,-42.54557317412828,-51.53171073943231,-88.78101035708093,-173.89127417484167,-160.13617948201272,211.89246439616335,657.8937050968477,490.58730016966297,-125.62540622016503,-337.36326177274054,-109.01169667030469,-28.177011094148884,-98.69010866382287,-59.95977587066918,-18.018025561535957,-42.74162217163916,-27.035235598212935,3.2900259423695797,-1.6721262337754155,-2.617195912898927,-5.520925147454355,-20.25028181824867,-12.805972307362888,3.024726937739853,-3.122973016781099,-12.241753936939375,-11.16988482003956,-16.845236397608886,-27.719441069007402,-18.704377755936118,10.921748448164145,26.391322589571754,15.91944113549555,12.558199480780779,29.58350945359655,40.975670050448144,37.90113305610647,36.22812770192188,42.3753813145986,53.14748018462724,59.25344363349217,48.075375052925935,25.082192453818962,4.015350416320927,-17.846002263875583,-42.92366430723139,-62.31477364042567,-70.3987898601653,-63.98737110033128,-47.802668514601656,-37.91981974321511,-33.42492479123749,-21.421727764282522,-9.484749977799353,-5.6382097249791485,-2.2933255029494575,-1.4693306910682153,-5.529825706767621,-3.609311289720967,2.305861860336222,0.7715620088745254,-7.50961584712622,-18.16384930863478,-22.604735650689726,-13.675188104793456,-7.690057546353827,-14.84791193403779,-17.121040509196824,-15.157652220723044,-24.157670885276694,-28.37989842176096,-18.237928103144263,-8.789798401438716,11.171592248552951,47.02795532659036,56.82148773223648,30.139296303995103,7.989640335900891,-1.2505096299412806,-14.024580437929261,-23.70774316239627,-26.808481163111068,-30.299315355805867,-32.946298535701246,-32.133142715843164,-29.92087477062143,-40.98578015992413,-65.6487379900652,-89.38604387674124,-155.1912055472315,-196.74310119158375,78.0366983569508,572.9219830330669,592.4611275347136,15.450620747129832,-346.7522608109044,-179.64468118325087,-26.936604767774583,-80.32046572318353,-71.81375132524687,-19.811595784900746,-40.393353958403246,-41.3615289572523,-7.596246060903194,-10.741462532334431,-20.78531922980352,-13.275013959161402,-11.523676370327486,-5.787495756924475,1.7443590464857035,-6.064960452222681,-9.717457870021395,-2.1514514077521203,-3.381251358481484,-6.799614786134684,0.41897804872264555,8.191266533695481,14.27209990479138,22.741707190439364,23.41056401165536,17.896720542643,26.667277485563975,47.16894073043909,51.300580470479474,37.75934370625459,38.07206159065435,53.098129090750284,46.02787330862795,17.637220703973018,2.2769745462379074,-9.044467364329366,-41.09852429922698,-72.47923436979752,-80.22245395023347,-71.52674942632098,-50.61534963196604,-27.78771120588185,-23.14441730195366,-27.707360367599094,-21.516498718236452,-11.302249173940321,-5.857600753309146,0.9890273533197771,8.84830866166849,7.534776567757998,-4.827161420460033,-13.72868579002942,-7.383435915902938,3.013295099594025,4.642196309696702,2.465609004099525,-2.3574557703711747,-14.059376286234553,-23.122132559415853,-21.944785320773526,-18.82100440168466,-22.870106850616168,-34.29759016101066,-40.54777077207433,-25.677181756274344,5.849321172628374,36.49329138562498,54.23821741880567,48.3404777694335,21.694829003425248,-2.4447070346592756,-14.530333526111976,-24.010296805549363,-29.7029366451138,-28.134425778789417,-31.62090661445107,-42.9077112849734,-46.47063657803944,-48.31673856550916,-60.92985662851613,-74.64348892462651,-127.51822990589298,-196.10033551751263,-6.116756311872621,486.2090254243613,655.5745390540908,163.68272417563276,-300.5925682544324,-217.30901204461026,-29.47225910451911,-66.65145899766017,-82.14689970378966,-23.528292016499734,-44.271248728053294,-64.23362308125814,-17.22795924402238,-3.9044987921310153,-27.73367074819504,-20.032361514035312,0.2651451489484957,0.5166736642360945,-5.742136859436467,-5.714709493529162,-3.461903241551628,-5.5796665720754826,-7.107594352844684,0.3347633291476928,7.491298922575409,6.091754326775833,8.336066288496323,19.787939303257247,27.21961314360492,25.751516331103048,27.01892454506517,36.17717098137301,41.17211504880381,34.563673031428706,31.963425050553777,45.488753262531645,54.91678337104574,39.66329257043738,12.968770850354872,-10.352646546015492,-37.33775485736197,-64.05146693615373,-72.09905290219945,-63.64542248829906,-54.426814948815085,-47.20722780933931,-39.74755041166169,-33.518625581767076,-26.597038517819254,-17.954072550203918,-10.854739734831515,-4.648344398982356,1.5286317505234024,2.2891085188320908,-1.6128606305551578,-0.6372265445725525,3.289415554552834,-1.3385602929677063,-10.252374816832265,-10.187787751863315,-6.110078837594466,-10.02449007700195,-15.403754142019318,-13.86206238535439,-16.843206744700495,-29.45744240198365,-31.01554651116653,-12.762688866038864,2.3788252302188813,5.796991548290801,19.157045561396725,42.44696565110135,47.49984855280853,31.314447279612303,12.481534268920512,-6.2790966072843535,-24.258436920290507,-33.63427100112766,-35.72949863554531,-34.25786319072377,-34.33719095620329,-39.77858122337882,-43.44230903680468,-48.70095409384308,-59.24242918626404,-87.68413563956014,-166.37982012182795,-140.41313610423242,237.95844628274915,640.0301615884122,420.32619780180084,-162.9878648227541,-303.63956902494516,-76.99562754738801,-35.686820486642716,-101.74681521047307,-43.97000625033809,-9.622564983608726,-43.686576327013775,-26.331502708569108,-0.7662196149409262,-19.17377801681681,-27.155355424806174,-12.775167300538449,6.325501836291704,20.147358661190225,4.295034479796914,-20.192451194894282,-13.664025610950361,0.3852868777621117,-1.1893052349465505,1.8202468527725193,9.34252851477525,8.13911946953285,11.504437289349777,22.365314346256586,19.830687151291464,6.097403757083848,5.09310456921391,15.705430419222878,20.432950751274984,26.52625549594037,45.49335234109319,58.70771497325383,49.455633423574305,27.16798537068965,-0.8130585496376774,-30.885247055723195,-48.498215077018244,-51.72401095127817,-55.52214746349187,-57.90756824960978,-44.392106334201884,-24.40840129286476,-20.37695235183959,-24.00625557823505,-11.499079251878648,4.144368489780536,-2.417969044836589,-14.870678200318597,-10.931385561029865,-3.0863391432870415,-1.5535310170149899,-2.252784784155267,-9.56515690804844,-16.795941020744564,-8.512891167648768,0.8570460510367717,-6.341041426954774,-13.168248097697184,-9.349388159102652,-12.662045249425438,-23.47932648804318,-23.23918592576809,-15.106474223154681,-10.11167211401115,1.705088999231564,23.93609032440513,35.43135951534876,27.98952800860482,18.964660102750805,13.69978222989558,1.4762793603395163,-16.167920501546295,-28.326365595565623,-29.582882091777716,-27.36957676613973,-35.71766251189365,-41.94694068051751,-29.360687318748322,-25.17355501939511,-49.64624973510105,-114.08675168113177,-204.03170919380366,-89.53045504617256,379.1522970017242,673.5906419596831,268.037943821272,-295.58021637626814,-303.66489354027783,-63.821418310462526,-50.15464821968307,-86.77084210281481,-31.591049075750476,-26.100090999425454,-44.36976956586374,-15.060335580273694,-1.5544596074415473,-3.8589342370167437,8.116601940008222,-1.912321775654278,-21.379452988168474,-9.289291108170449,10.510507813978826,8.804254006333537,-4.6349532645488605,-11.513303818473766,-6.409536614888056,-2.394201119386075,-1.4861865161182033,11.913919709112443,24.59477206921872,17.79383360822007,14.13509220668037,22.913372896766642,20.180215023278187,15.045651980276554,28.67635326742358,42.326909258338205,44.25695319986665,46.10657729405065,40.6956233732137,22.010638521679134,0.33835144055229094,-25.46574024018625,-50.06841510880458,-57.71506367301098,-57.06551928534958,-56.88239849946256,-49.386307084077046,-44.03382241006415,-43.21556027172346,-26.259089460038908,-4.467491848742128,-1.5609396342625779,0.04447886295782766,10.5644370968982,9.73351273477397,0.7111175350886327,-0.8176048576007737,-0.449029568641393,-0.7291854823100117,0.9557636933815772,-3.86924005045484,-14.469354893440782,-18.217628104469423,-12.782810095178707,-6.594890168366561,-11.571724800851136,-29.422480051848712,-37.038130204568844,-15.51574231635249,17.665382026677456,37.58883808637733,41.94808654898627,31.813497545149502,7.022228831080017,-13.38799170541666,-17.28541170502044,-25.37253188017201,-41.63639428464939,-43.553316220765936,-41.956250105431664,-50.49387703930067,-50.84547432879032,-52.7000373849537,-67.22645935991035,-101.86415745658385,-192.8061609608879,-149.9120956225673,312.9773222369435,772.122624726503,478.57349729653174,-207.4742982228629,-348.42717447138625,-79.85475270902876,-43.42012705432691,-131.31476854117628,-74.75626569427862,-31.50881972442464,-55.142595495495144,-31.559670138614962,-5.868691490373138,-17.072524463533355,-12.593620627215575,-3.450876949125636,-6.852170609296971,1.8160836997149747,9.926531248688931,-2.176157553994205,-17.65561491159194,-18.773094259617487,-2.454504189424435,15.306556905426998,13.122833331502697,4.205272840081285,9.586199267560122,16.591462287504754,21.03178758740527,36.62319099283653,42.957047604976474,24.407660277962666,21.407049749453705,50.75906703011633,68.74250304485327,62.163065364892354,54.15891527253154,31.894348616691442,-17.337556065758292,-57.85052600936009,-66.99909980537021,-65.80746696111643,-65.89853374841469,-60.89862212826806,-56.60343060205013,-55.207766752067826,-42.567440285946205,-19.172886326220414,-4.524886923900478,-4.792245241162423,-8.67905949355194,-7.725558738690026,-2.11600722392701,4.47232453151034,7.896767309452622,3.847398126990541,-7.23510921160976,-15.286160543892699,-14.211547091303004,-11.62747753009686,-12.30492701578314,-13.966060892657751,-19.345321081181083,-25.735871514154564,-17.249512640985927,11.011198921959117,38.16974095263618,43.71136923164673,34.40018900238574,24.517039189859446,10.364711902940735,-12.324554607603442,-34.982093801871656,-46.042635112305874,-43.27660899815916,-47.673871016730814,-65.07658823967628,-63.89855852361761,-57.0173861387281,-77.14855455643026,-110.17079207362465,-187.92384061220983,-208.49064260662527,174.40971571442964,760.6816897280264,686.7251575175626,-40.9551790696714,-387.979460789922,-150.91659923014066,-36.17516003008484,-126.97580542263447,-85.23700176561734,-22.93722468653508,-60.705775184432774,-56.964307110249244,-21.23235208997945,-26.677935470229013,-16.19146592820534,8.198360787634872,-2.9675199694974026,-15.46990609692176,-3.8341919541657825,4.858677210661742,1.9479504434209405,-1.0153110834465942,0.6075429100501506,1.9558782210913175,1.2341522640760996,11.108618281897101,29.49638041487659,30.19529268645853,15.422820591196132,14.644435795857987,23.39430703256808,20.259147567957545,20.049046823128293,38.079804758323874,52.10850964049382,47.565149100866115,34.62220777497333,12.160741720148776,-19.88748893513928,-41.48535199904889,-46.19435360402752,-48.89741426929838,-57.11770910382214,-66.17768335142121,-64.66059525303662,-46.52854149258968,-25.86666185577849,-13.553128995041991,-2.768320310300574,2.952618753751615,-3.762793113084541,-9.895835167551642,-6.874019820438452,-2.3995632820102024,0.3605113538922602,-1.6445685514697885,-10.219816961676052,-14.820352877833205,-15.413968512962619,-21.0307910383685,-20.26587018085244,-9.59256940333211,-12.54789570744915,-28.076093208508304,-27.714710882071525,-6.24279807481504,24.767796140902675,50.95573870244634,45.877925498870525,11.985107493742436,-6.932879918573763,-2.5968011923283054,-11.827672159503447,-34.75251092246583,-38.80625620981661,-33.54181770136131,-45.981462215654076,-54.871511839198824,-46.157813737835255,-51.43601785690407,-74.75659370735693,-136.60630381056174,-238.10047679293308,-98.24450468975691,460.60853612793466,809.397856755834,349.3556982401189,-282.62673927893684,-288.03330420783755,-40.24258391708956,-62.524984925717916,-115.14030803552455,-36.26763027720197,-32.71291954163615,-81.10986335119927,-53.40955589064329,-23.859841838948356,-32.64368894889628,-23.95045203329154,-8.053664784021738,-9.86096150838643,-12.08716227098541,-8.481382152838133,-6.930079280686462,-6.61456055898804,-0.7359096361681439,8.587456131514198,8.481027783297844,2.9304041166808608,8.041962839546855,19.33240247879227,29.45847870834168,42.21146928679776,46.6655987622229,35.73674893156107,31.373875685249004,42.82530810737336,49.732444682311495,43.94253983949594,34.10118230875361,20.69626009301137,-0.1400759613196758,-27.326185293648475,-51.99712353811179,-61.98933667786605,-62.71349681059283,-66.29242448602955,-61.37211778194755,-42.52348309804267,-31.931814531104028,-30.028908217088258,-15.629543148667423,-0.4235446323007892,-3.076530469342785,-6.665161295175718,0.5480296435235879,4.309398661815187,1.33341402137588,-1.4545723637021482,-6.852952095479896,-14.215899021216533,-16.34074266578497,-11.175892262052418,-2.503886880317328,-4.482095892739743,-23.95061197105745,-32.59427391788562,-13.921610919325577,-2.2783956116678787,-5.786978125957976,14.32085103780873,43.92107926212381,35.73910298689454,11.602971086340904,7.061242343450367,1.0162913977943013,-15.244342380890762,-20.507468222666567,-22.770420202206445,-40.44684816433299,-61.82435801026418,-62.283338199503525,-47.567929353911964,-52.68098642488701,-74.00391354820022,-112.2321025968401,-197.16893959667976,-126.12826448541887,341.8102364540455,742.5603881937697,409.7803783823264,-227.20522718779074,-320.780634337171,-72.89754110061736,-47.10006595144563,-103.582181033109,-42.947283766523896,-27.656382646910195,-58.63398535065716,-26.982198313686474,-2.983348306746681,-17.290041619446896,-13.512537682987153,-9.924133690681934,-21.06271568700132,-19.611279198283633,-11.440298136402792,-4.403393925299856,2.6062395316847287,-4.403489399742008,-14.335187494629508,-5.379083022097143,8.090355426878098,14.330703152490095,23.782341083609424,31.113985945740527,28.588422365626137,27.846999582394204,30.27902450883797,27.85890052563772,30.883566080913813,46.011814125393435,57.45327702208073,55.76279906330626,43.732898960380794,18.419631298210206,-14.868620053478844,-39.26908333642442,-55.778331963089045,-71.62732833622859,-70.0531408641204,-46.08508508701061,-32.13982791972579,-38.1062352547902,-33.71172696557781,-16.993487201017604,-13.702637959971035,-16.234555512937092,-5.116125806243243,7.366258340075708,6.419717757093597,-1.4769904387612485,-5.8882161767167105,-2.3535593500059377,1.9409998496615124,-6.4932036823467705,-23.705290236366352,-32.31080924535827,-28.22680358128737,-23.043333681660503,-25.351402755535094,-27.761975186270256,-21.628578371495642,-14.643013328479734,-5.201581538374989,22.5105311734993,49.89463788554933,45.54966101265698,28.59108814611143,22.18772662446937,6.826583271279649,-19.573541982145468,-31.77058625742701,-29.521208762649046,-27.714704031377117,-36.146067629837525,-50.90266482647076,-50.30200570736854,-43.95543219700652,-56.40345351187381,-86.33188376720187,-160.22231212289606,-174.5792605340818,152.7638869643325,626.833175201258,536.7211336536608,-75.39125948047186,-341.48063520229704,-118.41767269245744,-17.82404529622263,-107.01628691124668,-81.3916086324194,-21.634878172502702,-36.785612411393146,-19.352988168445293,9.240205301599682,-19.27338675063424,-31.530734538608534,-5.914545138855721,-3.1394452208231094,-12.151381886145701,-2.145651194847752,2.926973786727137,-7.903967667373547,-9.069137498892728,3.3065160654793813,6.410832540354212,-0.7141379250259758,-0.43747128704063254,7.253659531861874,15.183886393850742,22.93040836550707,27.278670473628097,31.364775144633143,37.68411694607257,34.02310839287882,30.23124276809387,53.33379885182627,79.9127989891428,65.31501864253595,22.59168295974854,-15.315721784580562,-47.829469519919336,-69.08468190349268,-65.59039930997955,-55.958331619432506,-56.3697475937725,-50.238771836690816,-37.192591418850036,-35.85525174797819,-33.18403312374828,-12.608550391592178,2.815249234151608,-2.627140685451753,-8.035116142738406,-2.3713124007940216,2.5416158801439597,4.398797149798291,8.011863482589323,5.569186290323158,-8.680562573229317,-19.929525451393264,-16.31449478505886,-12.346518384642325,-18.842148945052074,-22.753872442614497,-21.96052311864184,-26.809524501161228,-26.57846876368651,-14.992389913119915,-8.929721945044417,0.0006611851357982701,31.367126058663423,53.303188570918586,35.476734470824155,13.738400707456176,13.373980982802589,2.7584162072653946,-26.640920479750804,-40.49297740772691,-29.39206336216848,-22.54504643673235,-37.77138443887193,-48.98143047605008,-38.55780300426312,-39.226097925231095,-56.42773515786264,-90.03502245923448,-173.24744007446856,-119.5526229975679,306.99661740085804,676.5112697963502,362.0942235374481,-233.58812746071737,-318.1585777391199,-81.71526082530099,-50.634616425812055,-96.60979830374407,-32.79389250634523,-12.26571625293424,-44.53123438643111,-25.460664350708623,-9.120790387079502,-19.89353339289501,-3.5456372232829025,12.203376652295429,-5.501613332765556,-20.399110336288594,-17.56018711823052,-14.483937377761006,-11.921627819520662,-5.966350190141648,-0.2724374198145112,3.5040646957139,4.629862907530798,7.336437764744774,19.573008382071723,32.15406092390164,28.248249885543256,17.0942881333881,16.538577474703214,23.054248684900962,33.149367427271024,46.4568801673211,47.29934239428461,36.674766407422474,33.61886751752158,23.931336712326278,-7.814261744650548,-33.08314611875913,-41.11120242045515,-54.714018672851374,-65.22939954286947,-55.31912053075542,-40.59090243982308,-28.56765608910419,-16.743888296360964,-18.68046186215893,-27.652117870434363,-18.809276086754444,0.648841989102273,9.478667927232415,5.96088189204454,-4.136698803608024,-12.54627714450752,-12.41281336096836,-6.748862095858902,