ECG,433.21032242450906,467.52557924835855,465.555255452207,441.48032584604084,440.15556461400354,452.3865213878056,434.82256870155516,413.40060531884626,433.24863664636314,461.8488932063801,466.1955791313102,464.0899075692246,449.7902402821135,423.4605490958104,424.4662800941196,423.0258497797395,372.0174460783321,348.04946292257887,387.6158702575999,388.6116299712487,348.45097764059756,346.4363517410154,341.9005915579738,297.45430317864714,222.0320463180292,157.58049932069173,389.29468153288303,958.1881995402829,1105.926711657499,469.61826295660944,-43.33015272354248,129.92068932669838,349.15441703716726,272.39100384502285,258.12982395933636,322.6173744247765,285.6000571066545,276.47756595449914,330.4882233569434,325.6256792589404,307.69627526795546,318.2794910734516,301.5379081207776,289.69230159295466,306.86530342999185,299.5874387641953,285.4766747286204,293.73997082344545,285.8446082960588,281.0301612528067,313.7399400334044,324.18285935629194,299.73921734412716,308.2329787103189,332.09750820741533,324.7860276250291,320.10087482668087,327.77518706858706,322.6014183646856,323.3639358927933,325.9179492503808,304.92958058153164,287.6399867454225,270.45519704157323,212.7488814414179,159.3731696932208,161.26748992602063,171.04065998120058,160.7526760490344,166.57230310950138,189.22140293677273,201.0421354957366,200.60495032225708,200.3465332342044,210.95276432369616,223.6948096350518,217.19215939110097,206.92517517424045,215.64896618074852,214.61526184320053,190.81548134881518,186.52935515444818,200.0813902648364,187.96067204801784,171.08729284886113,176.11904729325022,157.83031778986805,114.64929045306741,114.6185993589994,159.97349550895194,205.4786229475792,234.0650719945076,215.8750474757901,154.20767185240686,126.10157298158833,138.87261492614806,127.31284843795532,110.809850824982,123.09235211416427,114.2428490714752,86.34765996081444,94.01421702332118,102.426894648965,86.3400594416305,67.10745396770824,-23.54621130366411,-71.31217845134188,288.8986865354853,822.7890025076556,712.8614175567022,40.339898406204696,-238.26505988175,-2.198089220065526,101.96458049948879,24.874301576592075,61.244407616900446,103.76876850376865,56.17577417926583,52.89786450403966,89.44394770350499,92.06963460070972,97.08192531306597,109.26830708780827,96.30808517030755,83.05278863634658,86.76716377183976,89.75446358468994,94.13528588343044,104.38028757602282,98.26401494583803,73.80665440132918,71.29053452599533,102.10515117233263,124.48636542134315,125.87619187978729,134.2205295565803,143.62945487978504,135.16999092051276,130.94054778235406,143.00334564932612,145.5648357646873,134.84661880249115,124.0352860828338,98.99031149428862,61.47692110564452,44.68649360431394,42.21263499500935,23.601465155788162,5.679924387635424,13.099884554607911,30.727513064415277,42.98217003945305,49.40754822916102,52.73275199087222,62.69561962909276,73.10772615009273,67.3987999315562,61.32761537131469,69.15691363377805,68.70108688049129,55.10902301840267,48.25597825361773,47.233330522321964,45.84200481273413,46.172275146832874,45.21508618150996,47.80505369249107,51.024333047978246,34.534179502295956,10.713289431460524,10.363599388821456,30.16151551847571,62.79892595684133,99.06484472946278,100.59952681534152,65.89190869529443,43.50627242884309,41.971241769977695,33.760816180856224,16.334254639161045,4.1649949634187635,2.605212183962152,-0.6724835372306615,-10.14707194173782,-7.907105422598605,-1.1245532751882905,-9.318207560023101,-49.019134256403824,-139.5922878587941,-99.15114649139821,317.46417296555717,721.7552561118844,455.1719178088752,-148.31520721489665,-267.11233436741264,-41.439078512526436,-19.901396905613822,-81.60517168111154,-17.635260419580643,6.928473811939169,-26.111431912862393,0.4349754160856989,24.47973807628734,10.93186514777156,22.973105779719354,37.85466447663268,22.80680378960907,14.599943863513246,19.424190744038086,16.436834756366636,16.12417926637862,21.024741157368368,14.117232024288413,7.389432303678369,23.266967985619488,46.65620792260846,59.37552200203994,70.54038260069946,76.51321658203287,69.2555892385067,70.01566127662784,83.74050283371588,91.02385014792203,99.29910750962756,105.34603718285334,74.3010492414239,22.431181438731244,-2.3889659000566397,-10.8778085342305,-24.01992439315349,-27.993248003650052,-32.865111207462746,-50.45303422218398,-48.24873161477978,-18.58990262128573,4.109537883700419,13.5827760881306,18.92813335650618,12.967329271681347,5.091789748720604,11.015472919384958,18.425699508588234,13.495417231279335,1.5709862233348986,-8.247588866909457,-9.18709315520532,-3.2515704362689917,-1.32572290386209,-3.6685116431924962,-3.128479753011198,-3.5227889232515803,-8.191823919188796,-8.33824637639515,-1.4687669818374172,5.698407793871244,21.68563749290077,54.60388258959473,75.9596261594985,62.165454208837374,40.293458897436636,29.374380073496575,7.479248283508131,-25.897804420843684,-40.803899707689624,-32.03298860055664,-25.221847608650855,-31.36953653238985,-28.51792255168367,-16.924802302257817,-25.808797355331485,-50.5896735772007,-104.17118985695456,-153.19131378104538,48.333739113965265,496.87639083856385,572.7909218863372,46.62739330051355,-337.7890823008363,-180.25346729897382,-3.643124597894648,-57.06864956335893,-57.10166225672744,3.7004940963150688,-18.019534841890266,-31.565850439435966,-0.25931158443967917,-0.2879816940289279,-5.976256215053159,6.87848388654929,0.7350887620237803,-9.93761196562891,-2.7045789740104027,0.48351833663454435,-3.0211004373698067,-1.1889397138819504,0.3367922819131479,4.837494984784936,16.722311441709913,25.198554003723828,37.47888368670092,59.55406770963286,58.32996731998201,30.248531608525383,25.864000162870937,49.0401210127602,61.324349798740656,67.04921773041985,71.80811635153717,54.159608547806734,27.57179670801018,11.36155254900804,-7.634529203192492,-22.208663118242754,-26.690155227683288,-50.57915537369291,-77.96801754049092,-60.924563283454766,-25.165847959997652,-17.306473340778226,-20.16071630618352,-14.116482970012546,-10.238116386698215,-6.572591642146556,1.0247333213309497,6.4810054643430535,13.218211744184744,13.878510143338513,-5.948740133592786,-25.449370197877684,-21.668867259737887,-11.242680282825086,-8.997975956364222,-12.91087109994168,-26.164946279284937,-35.340018702978,-23.42171208434001,-11.529586077332283,-11.061612184655335,6.943732770833758,39.127926821474645,46.217209233713355,30.10193339544144,18.424208518853032,11.139678986437364,-0.8343083577787045,-18.614990777490785,-37.199993831570836,-39.92570906813044,-31.933217272737235,-36.23644497902074,-37.31589515807504,-28.664639757476664,-39.476582362971,-63.78267074396366,-122.92576870893724,-189.37802029617046,19.70804886214394,519.3374674288751,624.3975948502357,61.16614024255837,-365.9589579521713,-206.93461410454404,-19.346505174007785,-74.70030449317552,-69.2856596191577,-1.8924598435926754,-28.222144420862392,-39.9604681629835,-1.0224944168500016,-3.738691572083553,-12.36136686109485,2.81442366541871,-5.023303146034973,-15.869268516797675,-7.057370411912918,-5.364121717798875,-3.2716445700249785,-0.965006332731706,-23.69081613482012,-38.12492791412466,-13.38661125653503,14.687214428363847,32.676097243984174,51.658012879352924,49.135513150229784,31.418501917176823,37.06756476510359,54.06814858797375,57.68379130007228,61.183460614512434,66.03426793586712,55.036540671230156,25.157456365106214,-16.719515555648933,-51.37122984622427,-62.44978754700021,-65.91856015977713,-75.11074177346107,-74.3641918976132,-59.74425876824305,-44.92548669641743,-29.134670764248018,-8.548711160895223,4.337146902805099,-0.009652547023765834,-10.045893012673108,-7.806597901852383,6.287480019488109,14.241072029764148,5.918123779370033,-8.02140190318546,-12.633652575770606,-8.90901865847377,-7.623834174622203,-9.976478074217823,-11.748055529351355,-16.483268365331313,-24.63766730479416,-28.117306694501554,-25.510265867912526,-16.93052391772865,4.582440167381937,31.595166980590886,42.67383441998581,33.19902889007526,15.935226027532806,3.4787244238209123,-4.445728244998875,-22.74562250156943,-42.408072772178876,-37.30210796348988,-31.076166520598534,-43.70773208068255,-38.31229479180635,-27.57728467051066,-52.459000760387106,-105.57301168162478,-197.04100144129248,-163.04935848081067,288.30055419398235,774.0389347588277,495.4757751442699,-238.77675642783956,-412.2987944304207,-108.41228605087224,-37.35668229152202,-122.3852723491579,-63.070538379620075,-23.655012290869195,-64.02887453726947,-42.421874036054184,-2.620572538158445,-5.702316911035304,-4.820645028124858,-5.840594626510175,-16.688096151776975,-6.559142860858444,4.0462056690804165,-10.26925688784641,-28.757905985614208,-37.48830956975955,-35.367156083237965,-18.792142927315304,2.907385668363336,20.843806782872086,39.517546062349474,54.97121823070886,55.143948863485235,46.023338617142606,44.57138440274868,51.957490268534386,58.445452378792524,58.80588889384281,50.10479508443024,33.45507383288628,13.900139935846283,-10.5451895341491,-40.10721422586836,-61.414054139086375,-66.93360287070496,-65.76762601271652,-62.92772558683811,-52.728916803713815,-36.456470935686816,-26.116756053320966,-25.986181070450975,-24.960046909612714,-17.173717539776717,-12.059000579628059,-10.734189609163774,-2.923046214449748,5.531665686050424,2.9981221238264553,-1.9822842785140011,-3.132526177183145,-8.304386684069701,-12.153371410259933,-8.257454075013516,-11.126672107475258,-23.65050138934594,-30.442170942956245,-32.05056176552746,-27.602093980807627,-0.005539460876960334,36.54739201567206,41.93286307828285,17.631551021284977,-0.3005727842938093,-0.6033945838914363,-3.0091554763343886,-22.438791004912005,-42.40468996595758,-42.52297362017406,-41.18426608639666,-48.41841284993049,-40.56971082835974,-33.371661293743664,-51.30610220885906,-95.44821520446656,-189.9338930543505,-168.15155452291518,255.99825984505793,725.3773624641154,491.9695600056233,-179.98798124916487,-360.36303098542555,-99.37397695361457,-34.89349407947036,-108.00923749135164,-50.17242683788005,-16.200335957311125,-61.90716842806554,-47.95076345508647,-16.73873213342477,-25.6705319310093,-16.186690819855215,-5.4526227685744075,-26.56145756559698,-30.679116007877447,-13.439668593156204,-14.155968517724205,-17.969635019124922,-9.683803664734459,-11.012839830366554,-16.073240841249078,-2.396780503089863,19.071790226507645,33.97304980705583,44.19372044743627,45.486176722853884,42.162743886392725,48.444725283792465,57.406949957177,60.5877512608367,64.78060635268386,61.96251554593204,43.428108889491156,22.305109973256307,-0.5436164837889326,-31.958529350011,-53.1982620327925,-53.877939998714915,-51.58753313002046,-51.66721238495709,-48.506915829129326,-48.146801512937195,-47.91273848850625,-37.25493891794738,-24.165856456498034,-19.14179700401977,-15.962489729327118,-9.469454196439926,-2.915228932728251,0.4368978232671026,-2.308250235164248,-7.86224090972776,-9.04881747544669,-11.0564467086894,-19.262770953258077,-22.635691040932123,-18.694328115272786,-20.59558514134192,-25.68592720213285,-22.394943199040455,-15.821306380200301,-10.967763730268373,0.4087464054403034,25.37383145219898,56.59387383518688,64.09693057370016,29.52475746260469,-8.255171849386384,-12.90759400965238,-16.082369136916146,-37.96074752502626,-41.966411725809124,-32.02011566458711,-48.20641402930955,-61.900786999109826,-44.21017644120758,-45.26490887556112,-72.22689874224614,-105.06899179279067,-177.61636577002344,-120.21336854542874,300.41145025635075,665.4172045024075,350.5671777570825,-242.85933157248212,-313.26146348151656,-56.70790114339404,-26.80429978412546,-95.88458940099805,-48.25881289144465,-25.31328350824586,-49.70627114936808,-27.57627122263747,-6.907451485359118,-12.907132806101252,-10.563603117500561,-16.100185495672147,-23.004296106853193,-9.8489376256491,-3.918509780466948,-8.936177400565057,-6.939785782403371,-11.20426113848761,-15.677523009664322,-2.308324140373548,7.390673500876547,6.548091134502734,17.81367920705858,30.13597186806571,28.288890551537765,33.23376880733187,48.41732362044719,54.625324862077065,56.68006091847442,60.74055636093594,55.12971102999502,40.172146710438895,21.699435411579756,-3.058719965114733,-28.517075142069565,-47.64257150600233,-60.95186510284641,-63.121736950272876,-54.509320110109634,-47.65217433220523,-42.990007706368644,-33.201836005895245,-21.38787698871212,-11.040696131628934,-1.4860709282169786,7.568269134636825,14.141965067652158,6.772855420343991,-15.119937816273438,-23.949428526185564,-11.305803140685256,-6.256897660108546,-17.054053473452946,-25.532029478120705,-31.43446668388343,-38.40281084465843,-36.701932280064405,-28.61617659491397,-23.163043357213112,-18.70277635354038,-16.95418127244305,-13.699508022160968,10.28847715391303,44.875274944279724,51.709455701515736,30.588477732604183,9.843769623693161,-7.5148681144112,-25.057440528033922,-33.89483337456414,-33.5605716789815,-30.23725048890617,-31.43972232004822,-38.83179972953394,-41.49065133022354,-41.73243108057577,-48.28968482619817,-80.92413453228727,-163.37843791776157,-128.7432620725358,249.25314783039613,623.6575784466953,381.34925341949975,-199.48906449735722,-335.2010275134313,-99.66133634630562,-37.87684146176532,-100.25271723494836,-54.723503417077204,-15.488843357422112,-36.28401671670551,-20.143793502806023,-1.771690003832763,-21.25923298366469,-23.375682394702363,-11.274284701610236,-17.4572522501524,-18.91591209191761,-10.374282375144562,-16.796648595464568,-29.5461838831474,-25.8743297006285,-11.498542468615103,-2.1651240101651075,4.105985385925306,15.158141315128137,26.53281608268705,35.83051754507943,48.97467974247188,60.342782165812125,64.3359321034425,70.78195825104885,76.19999013056797,67.40150897214446,53.59591430050614,39.26214937599086,10.911025718361294,-22.17687813894249,-44.193346333820415,-64.86869450797383,-82.5217647316394,-80.12339149353078,-66.32846084478153,-56.880802848392754,-48.58402340051599,-39.512948646857545,-30.52424360716202,-18.03949186879589,-7.636785712373296,-5.432665906463402,-5.497995687548148,-5.317160452630503,-6.794466067223002,-6.530274899300704,-5.507516284609707,-6.687585499746994,-6.858259911097079,-9.991847917208997,-20.916965246284096,-27.463695820669145,-21.870591428129167,-14.727746453458792,-14.326392759753961,-23.02912653884868,-34.07014077947114,-21.307399571901243,22.046005327053077,56.3238252686582,51.04695907864421,21.37229112411842,-7.136848799259049,-22.823962956405353,-29.7568717988771,-38.29906958764975,-38.8992911505985,-29.829342601188042,-41.62407051171913,-62.1809966571407,-53.07627086729432,-45.02939293526293,-60.47060620609049,-103.9264234031301,-205.06907938467157,-138.40509587372475,359.01435146462916,762.7752379173209,372.7141923788748,-285.1353931807498,-329.5046775433262,-65.05154646269534,-68.81057297188768,-119.385554865568,-29.227146439424814,-10.807491734261788,-46.870885684535665,-16.138356816542895,-0.25998563451160095,-12.103867848455138,6.534823782898631,2.434230404769796,-37.95736213370354,-50.420983549020015,-40.937083945753855,-42.33111376702373,-41.089393472199035,-30.124607263612845,-22.542321133757028,-18.225045625059725,-5.332330307646306,19.610819072488006,42.074456982997845,48.859234721251546,50.195695965940246,57.66062527180255,62.98248025738296,62.63141182568771,66.04106045085612,70.28034861363838,65.15276321389399,48.62912304534376,17.532218570511642,-21.480170046577996,-47.33062413923577,-61.12418150128437,-75.7822055588446,-78.09385279821025,-63.87204258979373,-55.06283344330978,-50.28131048523053,-34.785790698859614,-18.1322522540786,-8.586483000619442,-3.512112248629272,-7.287860439755683,-15.803642815374513,-17.94665718655763,-15.50258007099615,-9.41833439975094,0.3771556091999848,-0.85503184498873,-16.86369084324383,-26.85424474708235,-23.8823303492006,-22.01372456938301,-21.827505461578568,-18.78701818610812,-23.946714055507076,-28.63401164629595,-3.3121437173492954,36.536300971019756,47.91665108385417,34.544618515179465,17.928166774746163,-3.51875645055852,-24.072613292002558,-36.82811363448572,-41.80228303248258,-30.755257670484152,-25.429639176039608,-45.27202265123126,-48.66475967711591,-33.10245215792881,-42.18662490899851,-77.45908866817246,-164.08687072492845,-183.93845654949797,179.53081174438705,678.1184645213436,523.245282688858,-149.70282042913493,-374.5882620259913,-112.31321326395113,-39.211496544831505,-126.72236877311803,-63.47054611051256,-9.267901234134825,-50.778087088622534,-36.603425822392424,-5.789337577416418,-28.625919397086257,-28.66029943531541,-3.1175983197735375,-6.531922060001968,-19.11043508333767,-20.725766559496915,-20.19690773941021,-15.48204457274375,-8.462981770350302,-2.9171818295529897,2.1823051234264357,4.362092538972095,10.694292805140952,26.26314733956683,38.20216892119349,45.55942059501503,58.523385400124575,64.50127108536718,52.876169015420636,45.79883680973508,57.32206928103833,64.57688649701365,49.123951422439944,21.432861055128335,-8.30456967942893,-37.79180366804725,-56.04257019397903,-60.0176452979753,-62.90066769716097,-65.26953762367533,-59.81311049574796,-53.15119858045264,-45.49107876330099,-29.232003254314396,-13.868363406810907,-6.5935216793633415,-1.0150641777874512,-0.78552606406463,-4.923486143618593,-0.7245780476513346,3.7252079968188365,-1.4215167042513954,-3.6140728368879813,-4.779875188998801,-15.37705237108214,-21.211564249627603,-16.98455227569644,-16.238540107967896,-15.375112418145562,-10.825693285595332,-12.328308358389226,-11.349641837858954,5.45992701754235,26.2730876453083,34.044729663277394,24.210633129713422,2.766295849828669,-14.127116774732436,-21.654820561055942,-33.21719923297309,-42.11819402876286,-33.322849233704666,-31.498266038892176,-49.028781706096794,-52.29063964307751,-45.43333814614182,-53.01868620903463,-79.5662942379861,-158.7748224883801,-155.20960794882697,211.18639946368842,646.3838890383324,446.69612771980366,-172.92255510270004,-336.0967515535712,-80.74430193057735,-22.830537310261036,-101.82121740151527,-44.273009100077445,-2.8251315938495836,-40.604635824950506,-25.90295307273869,-5.86379862039778,-30.65531541725889,-26.845922569985724,-8.404630759044608,-15.979155981997675,-13.704992364567586,-5.9439467552690495,-18.675509544222383,-23.981487773666043,-13.647412865958236,-7.897729823959145,-0.8911078542701683,7.234359169049469,8.21780684578924,16.57603126659745,32.89670012803782,43.363597105818926,55.72294246251604,65.12877466889442,54.30303753302964,45.83958070890784,59.909578580996566,68.07836701332745,52.24946878882361,26.116854626885235,-5.522414623745012,-36.673031885221654,-51.7627694121671,-55.9839669883886,-60.40711743792831,-56.85814296693356,-46.6039190762942,-42.484347043846334,-33.4488109487224,-11.135185515782318,-3.8131066514924825,-22.536165937313385,-33.643568261049595,-23.62749875432399,-14.42375045656961,-11.666379720715867,-6.697261930858922,-3.456628658612562,-6.236436661817528,-12.313845093086204,-18.409017785538936,-20.268685566825095,-18.997586356639392,-20.087694812931147,-23.47109155254187,-27.416591035216474,-24.46073373318866,0.48388340876351776,37.317568123517525,50.681896742040905,34.615335136317114,13.967786747928756,-0.8996636027870597,-12.359647506029342,-23.508739958128736,-37.58339567712247,-40.451450920239026,-28.469728175476014,-29.639126041415658,-41.24407107683464,-40.67454351306502,-41.885996393665856,-57.41256474514989,-113.15275820016363,-173.7305192600199,12.891932453121399,459.95025817901615,559.6883906374931,58.36489211049186,-329.37142834281366,-188.72359176119483,-16.99872153560223,-69.70946015460751,-73.84099380980217,-13.986646246002664,-28.833849852269367,-35.44892361954074,-6.237327314829946,-16.87239257668425,-29.231393823290063,-12.04555457665783,-10.89722775288329,-17.14719537785621,-8.693055876593013,-13.864722055980863,-31.349595847912767,-28.464028690525907,-13.364009609163176,-7.262773405647965,2.7113322796499784,22.476880148145007,30.37934989734021,27.242520475346033,34.5660053590358,48.85072814336027,57.32482419833957,58.572353771270144,49.528549870398834,41.16754278644409,51.36461831599084,60.951191858921284,41.84549148795536,4.8866156885839125,-29.780574743938793,-56.83371279165404,-70.48134521823462,-68.9730847541554,-59.43841649181035,-51.621754894245925,-53.414321579164195,-54.38144802156543,-38.94445796391566,-20.068526932796377,-11.673328716198018,-4.751426068789577,-3.1648147400637043,-12.953308347451994,-13.297918013327273,-0.32262728566458065,4.123862728865632,0.33731312901575805,-3.8549267059852887,-15.464541916123189,-30.621264467946226,-39.399567482868726,-39.30597752259589,-29.116725276282047,-22.715079861938722,-26.123414260536038,-7.357601730563491,34.632001969180344,46.293918811138006,21.44390939112515,5.238500055848554,-1.368342426519348,-23.42778268247673,-46.83856335732981,-46.09976441428709,-32.56743980576262,-35.175925904667054,-47.8151039568795,-48.908077122598165,-48.683476839065314,-51.168825785951384,-82.92831456318544,-183.86919024231975,-133.4336501969748,322.2896323852056,712.379753472418,371.9041298357879,-258.5863894605816,-331.9253867579231,-63.21279656517257,-35.45873750125212,-111.31754420278212,-63.01016413944647,-40.52401192594884,-65.6780898945738,-33.84956161101535,-6.161929447630442,-22.22777534916606,-27.254765472980328,-29.038151660601255,-42.86645519190104,-41.69305185568095,-34.5933697289302,-38.412413112661284,-34.50479603018266,-21.95939236068513,-19.451515531862263,-17.72096288351366,-0.5021757028844447,21.798976885670534,35.52306544264432,41.710905913209366,44.49603857840698,49.16497314954805,56.407693026290076,57.97185300362273,57.917692528841535,65.3894820516475,64.70967774335347,43.176288931760254,17.662731341233243,-4.109080981259606,-32.00135832934974,-58.544678383256255,-71.2101800924259,-74.11755313811436,-69.36091685200515,-55.622827471607856,-44.26340335505259,-43.32456461993006,-41.70587309589969,-30.316573535570704,-18.362173526256285,-12.948100183924353,-6.4137813104036105,0.9046066859029054,-3.152860819931149,-14.477834562404524,-18.273588115689204,-15.887395189841023,-14.813258557805131,-16.72600895145905,-25.020676596178667,-34.929307614885474,-33.6483375299163,-21.078272570217504,-0.4227815118771847,27.492444324756917,43.664252596724154,32.54896229980922,10.799736144820343,-1.152061157955524,-3.4632630702926903,-8.875658478406391,-23.216413568094524,-32.19620938539415,-33.67538059611484,-41.069558144977265,-39.28393472084191,-26.587009712384365,-37.039739722591065,-88.76235549971133,-192.2609117520759,-203.58755381138036,172.37277496397047,687.3168190246769,558.9474560486301,-138.6846831310612,-432.8610651734858,-172.0817349448772,-38.60214484877192,-113.417105781192,-78.29901720076123,-26.915267328245037,-58.169597319991524,-42.27873705405503,-6.09253625875893,-21.568340481130114,-20.4237184172653,-1.1493719325209657,-14.430407160548645,-23.686200039830062,-11.426686928111993,-12.204078765050474,-17.464018477642753,-10.176070848921473,-6.147603345502432,-2.5550241541869356,13.533308614159093,25.20374164662446,24.49374283115213,31.605364347112065,45.360394868359506,46.97570731158006,44.19417026413202,49.582298260911266,55.219400885795096,57.85761189514694,57.21659985114107,42.83722221561509,18.440297987060124,-3.077954087701874,-25.81283668114893,-48.215296197057505,-55.62392164713795,-53.53862950624756,-53.588122168297986,-46.386069415449455,-29.46547721266075,-18.037604870920433,-14.55083331644602,-8.743094790518509,-0.580498327351286,0.24066700004419772,-7.277396554312617,-8.662638390492923,0.7741540090558026,2.512629617015161,-7.1025938758402205,-8.546476060299383,-7.3614898516959855,-23.57947754796954,-40.49782942720912,-36.519500209654275,-28.352243859494145,-26.127228333586896,-9.538281885693792,22.38928448238293,46.50263913117224,55.24753515738365,45.62526181608871,11.029223059257749,-25.62782439537146,-37.79973628771397,-38.6615586690922,-38.9966416613575,-34.575943574680196,-39.93114842813769,-47.66873807215575,-37.516542418546635,-31.529290672115163,-37.3711899298358,-80.9275407003497,-187.26865236348493,-99.89161191594191,375.68393182509084,666.0763296229519,232.78559621160647,-304.8769069635393,-258.2109192957214,-34.361694867136904,-67.4286755353642,-97.86268862540956,-22.64128805263214,-25.625271172011466,-49.94919919160783,-21.739008442590464,-24.736230198765252,-38.39425274658571,-14.949806003313213,-4.214316540931204,-11.810899019594654,-14.750344727643492,-25.506196636075515,-25.817320271642778,-6.455546466776783,-1.1312129396002133,-4.226556261503313,5.320519943101965,10.22508114050283,11.389979898220751,26.708145405952685,41.772660027568534,44.47263677333432,43.337735319229694,39.820609684790696,40.274915901454484,52.4498928716808,60.81842907088602,55.03616973312287,42.672695544312674,17.899736904881664,-19.6373932741776,-42.998418133340785,-46.06011108396744,-52.522657195472306,-59.99898523414033,-51.390223760017676,-40.38756667845021,-35.94680101234121,-18.360939891181047,7.79704239260888,15.65237439560236,9.97535646620021,8.717533592300994,10.39785718950911,9.870282089001954,1.019748184953258,-15.54897662020499,-22.971082997928484,-27.551933098275434,-47.28267189847442,-55.879371454353034,-36.46212810087684,-23.46629278914616,-23.751541304262553,-15.809924837013838,-8.134809157306314,1.9703512301072443,27.200922788246185,35.016620068099726,9.787427035221011,-9.295374015139696,-11.577452518458486,-21.142365417069772,-33.0568746331794,-31.780473380899657,-30.973072672676388,-44.414967404778416,-52.959705554370785,-46.05215755867619,-45.319173292873515,-58.706824859359934,-111.08965416368576,-186.806358859655,-43.453440354807725,406.78718412590854,602.9862344558549,156.0587552633533,-310.22834916811576,-232.42532994436363,-20.042379225485128,-47.48441158476474,-79.53869162750622,-24.906045109707392,-31.265700183272457,-45.031479801763545,-8.296135071339162,-2.312252048452237,-20.86094428473588,-17.64773908573447,-15.799916587661752,-14.873913094358725,-1.6516218287779125,1.1939664015344515,-9.103109690866063,-15.487750827839335,-14.211973926344616,-5.001872262610032,4.320350973426267,6.300390160356407,10.79232156924196,20.94663003173686,29.440655847229095,37.27116217771932,43.06727049101938,44.83310397090908,49.75545556737971,56.054876212124675,55.85137668195682,52.647470949843765,46.310313510341004,24.6475987599434,-16.83120795770314,-60.33227249180628,-78.2981161037945,-69.43330630186968,-56.40498758998423,-40.97520547117023,-18.66252852032236,-10.289598135931794,-15.169043004083168,-5.2041359314138536,11.911896708376954,17.716257879846953,24.509337730862235,23.323140879887134,-6.566401408743353,-31.94161262645708,-24.023582837935592,-16.42018299659332,-28.184189835951614,-38.00875756193804,-46.42838887001129,-56.98720484490847,-47.7274934914075,-24.86725238333429,-14.471548894242083,-2.5986198820577684,24.329561011060164,39.44595417712988,32.219561080806585,21.71527862786496,13.390843591938163,3.555349913997077,-14.77772126512432,-46.33017740483072,-60.683462745995556,-42.443883673027564,-37.567646533178475,-53.358746387312095,-47.955118920482114,-37.12569424693281,-48.69057473092987,-96.7672231039169,-179.37330708085062,-81.77623534561985,350.93082483508414,618.6095526364661,227.75370341055378,-289.178127206467,-266.91383883916103,-30.607182769631947,-33.53371019035411,-86.58050992531975,-40.39844070862762,-31.81015039923964,-47.14133863587563,-23.294236629188482,-15.920841734748176,-20.818797092846502,-7.024838094863272,-7.535968515131453,-16.891312022856187,-10.314937930980184,-9.808705196273397,-14.640928584711297,-2.7435605726349452,5.269443574977396,-11.29474874477933,-27.49022172180426,-15.426870309028747,14.953497680612303,34.86512795527689,39.00174595487508,43.608080031941014,48.018266278319324,42.797339844362206,40.43922078562641,50.098757777791775,56.26758239874819,50.226672402217424,37.65980819383442,18.04211642327479,-7.84944095267258,-34.209258145270915,-59.995403217185256,-75.52724400292107,-66.16937475236944,-42.18888019874969,-23.63279936567617,-9.369555511851999,1.2579815918392505,-5.719055470938777,-24.58799650287637,-25.951804815209137,-1.19939096172698,23.199421782408866,20.586987854713215,-5.732833855542019,-31.112543318433634,-41.18347875628945,-42.6303841738787,-42.292168978871864,-38.27946461519946,-34.527135377424386,-37.74649172048787,-41.64919906090014,-34.86866081339929,-13.703505291543028,18.3557070496545,44.522376110204554,42.860786573547315,19.078746074795827,2.303846438626735,1.7001833225821095,-2.659353182479663,-24.076257223647822,-46.25552774821793,-55.00238443601091,-62.39986612075718,-64.49561294511983,-50.14911785145375,-47.30118496980071,-67.66686891146698,-123.0514531005013,-218.16258603122068,-104.19610760159512,413.0048296183365,756.5226177138064,316.8939345764443,-306.96402545544913,-306.0386750222633,-37.9768453828896,-44.20033721759847,-104.66275548495655,-48.741303980548466,-48.04432099405888,-70.10520109801307,-31.138617694759155,-20.831792087425974,-36.62647035601752,-18.000991388528902,-9.301492788343092,-23.89559845826369,-23.170827829929024,-18.069024071568283,-19.12334101456213,-14.25696122710385,-12.833068671211755,-17.129264507071355,-11.346083059269409,4.224610572033866,20.213550676182248,34.47063586522755,46.97058653482641,57.211529143286526,63.75456192561002,67.59103993363063,70.92587221335492,71.18476992849679,69.01826269434459,61.95954443849283,34.44999961407346,-9.076693134508634,-41.37176577188761,-58.949407680469434,-68.49151376881653,-64.38142782888931,-62.86422123543406,-76.59367996699558,-74.59741447376786,-46.33576529903477,-24.16935898923886,-15.52200528643592,-7.845924408538565,-3.8772586352516,0.9484698177253605,10.33077452285216,9.057227372926082,-1.5698079962620568,-5.988465072812382,-10.21805857722677,-20.767330973102588,-27.205868835620862,-28.097058082875108,-29.1838604847848,-29.283476713541454,-31.38432185752957,-36.3322085928337,-29.54235129972964,-2.249852311567288,30.889753052058765,47.70180540630859,38.101261905839,12.179735151047767,-7.685249864099518,-15.916599397242518,-25.84959911425955,-31.111374788465696,-23.67798412141689,-33.896936952658095,-63.53250874740625,-68.38409028446469,-58.63572737332051,-65.53310830058189,-103.43759483510912,-198.80087990829622,-155.39096557965763,300.347531975692,733.2977188045516,425.3321097460403,-227.62702706784316,-328.17323242027805,-67.162826702906,-50.338953748268885,-122.94407496815417,-52.155807471577035,-24.57008075885701,-61.20612521530328,-34.848248096105735,-10.50388128070334,-27.445774878138746,-22.076675038181396,-6.1766118122725775,-5.622016407534176,-5.073453253489085,-8.902535985646766,-15.441262245826822,-10.61704508516042,-0.3128632227518877,9.789970070842301,13.272888605049442,3.0219388190487617,0.7200576278770079,21.832882374369312,44.51147237826552,57.4658393336813,64.10992377336599,51.50478980699888,27.90171364987969,27.473394856628424,44.498583658648016,46.38306324153456,31.862039321149197,9.323250921344624,-24.23291526138071,-55.705422103037286,-69.12686682876175,-70.58405917753859,-65.39788131034314,-51.76526657166368,-38.05059769333378,-28.778327656383894,-17.554994651080577,-7.50484928194863,-3.312535600825065,3.6091880361494066,11.637758881785745,6.965878244989257,-2.0773348710049717,1.320994838173343,6.116145994665892,-0.6789019757087935,-6.663209943289949,-4.630812948810288,-6.594034743464199,-19.161924521052377,-36.21262058443367,-46.96972869143818,-45.199235054121885,-38.53339549880223,-33.52655680489033,-19.544676470659518,8.673744679188651,34.70637200790444,43.68005671142406,35.17688075642166,13.431300885480313,-10.455762647729902,-24.280532880376413,-32.10767076663609,-37.8914824113191,-37.538874180108934,-41.903482293013866,-51.37181145620977,-48.85358932057271,-49.4719931726859,-63.42933050841964,-94.91634456872677,-174.91162547836876,-133.3689970450286,280.65271839901504,683.3500574538901,411.03991893241255,-203.13616823397783,-322.69623577641573,-79.24001018491418,-42.71208783415891,-108.84740276260098,-50.81765020816721,-19.189859725952793,-43.64659333242612,-17.34882875542821,0.5604140301028977,-17.903844445848925,-3.5599482414753822,23.292089901579555,20.313799010456187,1.2421348298821293,-26.194759939419853,-44.81270239502376,-36.19837506405018,-22.985634993226924,-16.844639392966418,-9.036353023492431,-10.699581449403375,-15.000753274770233,2.790901801595256,28.12456832190288,37.803173356020615,39.18745658968152,38.710001653207904,38.51526295869607,47.86938091460664,60.8464544828421,62.538075465603804,50.37414177249548,25.614673417541574,-5.509800709625955,-27.63414244203385,-37.457527300577226,-46.351499976537184,-56.770002420720445,-60.35217984818783,-55.29694042009845,-46.97892657350286,-34.349767359629595,-13.89572946924963,4.180278742851613,7.3291577786544835,1.9611046181668712,-2.259022926069104,-9.381244387815858,-17.105390530512285,-13.861789914201125,-6.495483544976221,-11.386835146370625,-23.016265825010365,-26.450626207004575,-22.642737886581372,-18.78176403035244,-17.746485380708137,-22.750772879131716,-30.236676459389425,-29.236500630413722,-22.607781460889107,-21.567706205048296,-14.296038709471357,15.042484031090009,43.340695021155824,42.068358095524125,25.883856291011366,14.780213561615923,2.3261767000785536,-13.380101977127099,-27.637023736150052,-37.340420572469654,-32.29457518534747,-24.92804676358087,-34.122802530284616,-37.18924102718868,-29.583838474935934,-38.89992671432657,-72.94857299224569,-151.07796080915335,-159.39611143321616,161.84602034633954,588.1656799129833,453.1724720744302,-131.31648734042068,-339.60574555976035,-110.13901623106008,-19.46012868714922,-82.8373290732354,-45.175829912126574,-13.03017276347893,-45.12572115177086,-25.091390055748636,7.886603938328253,-0.41753597605950077,-1.9835121906169348,-11.560851511301312,-38.270909980396304,-31.678632707861638,-11.182450993100877,-12.660649588238133,-13.701131594510887,-16.39351169748036,-29.112798629763173,-21.411861937177257,3.4443811632291785,18.254325598981616,30.803133310775664,40.26618683121431,33.14956212248866,26.985071152384656,29.680685960987173,27.0551012657517,31.10657554897096,49.30703691377657,55.02043056924039,40.1916808388439,20.551556231327197,-0.7890035916952627,-19.945206409758807,-32.06021394443303,-47.36189559207257,-61.224061903651716,-54.05116222796674,-36.065564676134585,-28.495281544544966,-24.859901191547735,-20.82699433485679,-26.24228605311199,-29.601454617434108,-17.18226058756826,-5.831248019479851,-5.169356339086686,-3.0103240192382437,-3.4413781603850175,-11.877873598483319,-11.321669110631124,-0.8215910805462663,0.2673996503045366,-7.853343231444718,-14.173259447042081,-17.11933496584656,-17.625160414779778,-21.130437295508752,-29.18407892256427,-31.50449658913977,-30.700501459997398,-34.823988300606416,-26.4583727791832,5.9261242947094,37.694794353960546,44.83902872652838,29.060702193339473,6.1806655268492445,-5.069018526038558,-6.265100035554596,-15.999105105689996,-22.95009900126988,-12.118209897755431,-19.61874281932233,-53.57960614199697,-59.81303598709994,-42.63046236390224,-44.11899180248011,-72.56652325177647,-155.38343154168686,-155.88533630271968,200.65994092004217,617.3604969880412,406.33334373655975,-204.65268994228347,-360.8795063463462,-111.13088100249256,-43.56319788131377,-100.57510114162416,-45.645458296549506,-22.643668649786065,-62.990735789697695,-40.90766766930995,-13.91498467407851,-29.37375867287841,-22.884738387543827,-9.635660096177418,-19.063552264616046,-17.721268471817087,-11.470488790254322,-22.579919823425982,-30.745580019748104,-25.60914999893242,-17.79870440520302,-10.030910957604528,-2.4892868941068285,8.327957625691722,24.27817969289567,35.75306056821148,42.41150959142446,51.61184462257669,56.50477099201203,55.69458740157119,60.89879738799624,67.40427072489436,64.01923515754768,53.8667485680927,34.59932720618494,2.2750433211601635,-29.006802700895424,-51.45264803275313,-71.19642193399488,-81.83309549017221,-77.06704674818137,-68.63136440395027,-63.628994366996764,-56.29462308658677,-42.84185001398308,-26.027249764237304,-14.136086603912126,-10.650192155428353,-8.7362994633631,-6.912016779636989,-6.725659487952925,-1.942017327825507,4.076984482862461,0.5899488682301843,-7.228200075387726,-11.796709900946993,-15.664030218550302,-16.418560097663594,-12.318404984354842,-11.631706517361877,-18.52632460320074,-27.58285759234233,-29.730860743079678,-19.81461896610983,-2.8828734857807454,15.52742706835808,30.821592639480272,30.455517506424393,13.806312467986556,-1.5227230136774708,-13.40727590788702,-32.35142875664021,-48.38417229248343,-49.470856050425745,-51.12076065088331,-60.011839032601245,-54.780266970286135,-42.6335194526129,-47.208732876218114,-73.54646399730078,-163.86616133601945,-223.10172065819057,93.024338864083,671.7993888017556,694.3955731179188,10.106372377222954,-418.2519960198333,-215.47519448848493,-39.572311170271625,-109.71350671477721,-88.02855182587223,-16.018065706102504,-53.5030621421732,-71.81486103637972,-34.28282670964237,-29.92144626205109,-27.143902952560502,-6.007190277396123,-11.611269274087356,-26.48930728499634,-22.336294337462043,-16.194860360076515,-18.300785941118995,-25.285843933568074,-30.425693462002968,-25.014554796671735,-13.772657006362042,-0.4424044592748668,21.90490992035555,47.320345678702964,61.74102394844804,65.90030728530364,68.02152194586466,68.44582163165917,64.63991156584575,63.15884339329743,67.63026851371373,59.47079818334969,26.18585363456195,-9.574937153617155,-32.02037936819117,-55.93579092261089,-80.12322878653808,-86.98456614643358,-82.1516965437227,-71.82585098347137,-49.07778854729722,-26.937094698463447,-16.754112324806677,-5.165376267460452,2.873455217706102,-4.212207596485875,-3.540838052560108,12.056825133315336,15.929904009422378,7.538241373569942,-2.8519398763260355,-23.296842359883872,-38.93574958584358,-30.644332119502582,-17.019070595655958,-11.815221031333465,-12.9350964202353,-29.104425691761143,-49.20594855889442,-51.19082510025608,-44.35568835823224,-29.166973982193113,9.887718328167512,43.90227334949493,38.85807695869119,17.383383794579743,5.462709864816235,-4.529433095373474,-18.303916983900137,-30.075168317662293,-35.188692558635566,-39.02619780186594,-48.253675022192006,-49.015904564071015,-41.80418528612283,-46.644791857850095,-60.246135651127084,-124.39856998396446,-209.1046127744372,6.955427172203741,558.1340471209415,704.248201535135,109.87594476606387,-377.7456596577017,-230.28753517351268,-26.212567601958106,-91.76923506296019,-101.36492420409758,-21.843725002172064,-35.93404994296036,-54.617428138959845,-17.772436440978865,-11.093454200511843,-18.5217097726028,-5.431235698771729,-7.100421669679127,-17.46903684340831,-13.957132530982298,-11.749932720433979,-14.969430545315687,-15.106160056682238,-14.567195934016084,-11.3895867047464,-0.1391373731850205,17.232379855451086,37.18083408869777,55.91043171597674,67.2678887746659,69.28474996845955,64.8400709864225,56.29177130111316,51.783013369947206,58.35141472532825,58.139000742888804,34.14414820235349,8.443743850571678,-4.317875172868321,-27.858381917154073,-58.06849921244911,-63.99820091304756,-65.0628302664849,-86.29566901990145,-89.87539721277216,-58.80553934798749,-35.85073542789514,-28.197864106333675,-13.88199836087378,-9.251183494949075,-15.72659447332697,-5.739411057270694,6.82125029420936,5.255475015171761,7.363515286604056,0.7992685576089613,-25.285870949608174,-31.003590636670637,-17.008817675326245,-22.524600041270613,-26.59492208447364,-12.532869777790108,-18.82131005224352,-36.85496330127528,-27.535081845327348,-12.266342068333877,-10.755724161894296,0.32858292304355174,20.864440211510995,32.58283777801491,32.29056972343796,15.73627071649846,-6.183351942231207,-12.815256819434353,-19.150340102378003,-35.91398952158413,-39.259614555173904,-36.66436778736151,-47.15320289960569,-46.97789416408804,-39.114387827222956,-49.72567303288052,-79.14648680938163,-158.31266092412932,-180.86478354745614,144.00873649315173,618.6439566862083,527.9360178037218,-82.62794161089738,-345.2558466211269,-118.19639065343469,-10.422147917422043,-89.04059022996172,-54.753684571581005,1.028594202925163,-33.099947692723845,-27.896205061522217,10.825870255903085,-9.37281590012627,-39.67794969554879,-37.86459059425287,-35.78930143085206,-35.07375023160404,-28.86249375877121,-27.99763126162553,-25.815640691609005,-18.498181013598476,-16.921787189822798,-15.320500888297408,0.061274665189618105,24.189295188652906,42.855998890827045,50.54872623442427,52.15722980142879,53.42859414294167,53.294743357324684,56.29996554010355,71.0621065219209,78.51862347507654,54.84751227935634,23.558983811106955,8.190352802010654,-14.21582408551312,-46.5551841612155,-62.27911387428715,-71.84565776674444,-84.70330503384423,-74.36995232822213,-47.94759135070731,-35.19771188898778,-27.648931237882287,-20.175422730050116,-22.50623887267995,-16.850902591358278,0.514150984692467,5.760623090378406,6.0726024107805685,10.183969453497152,-3.9972796510911976,-27.02911281723408,-26.615826774133733,-14.529256219471954,-14.85552258744039,-20.428232661442543,-23.52282076128954,-28.952611057675767,-32.58254529150747,-25.537441792752904,-11.744490287304359,1.4593151261394457,19.927785479572478,41.98004186511723,44.36467655233159,24.222807989918472,10.009042090512699,7.778752164918346,-5.461555635210754,-29.976049605320547,-37.32997380519841,-24.99259114863316,-24.375191324642643,-32.818126921673866,-27.49650441114241,-33.85325639092465,-60.349483190563774,-95.8580829340755,-165.68738861121744,-112.75426095123485,273.1130390742148,599.051327538779,295.239666038495,-245.4442821994774,-290.71404626151326,-51.42046140048538,-27.410444390479242,-80.91447455276275,-31.06069935297458,-14.493796251743397,-36.602062581000155,-18.37693508495358,-8.285449546310584,-10.8836831052248,2.8171891561936153,-0.34514393989561043,-10.694782167031544,-3.5202838880891143,-4.358802480136577,-5.818201981189972,1.9190428448922958,-16.056724189548188,-41.09800898212584,-27.91077173637957,-2.7795933966106823,10.020647636118385,28.97780568111414,45.2533638922609,48.59027745948692,58.03898850883729,67.16829975680955,63.770876685201046,67.22584408539811,72.60359796733728,52.67121150160747,20.590462479553427,-2.0030334591384644,-25.55940808872211,-52.80392535560642,-70.3435776616603,-78.90908782348154,-81.57110886719643,-72.41392366884031,-54.86656687346944,-40.32690277308596,-32.46020041794968,-28.242986901412976,-23.776988853004376,-15.6729064894411,-4.609407292638554,4.152862974874093,7.750089205441704,6.5870506014978325,-0.5780204497332839,-8.244624906749486,-4.9200513295255135,2.4491089343049453,-1.3658433794354643,-7.895333957317643,-10.643848140120959,-26.976776094498966,-52.448626230322326,-51.29156485751084,-12.50322810885216,30.671947156237103,39.71315939611843,16.6743562985514,-1.4817414242242144,-2.072517467455487,-7.221720144367939,-24.11871251828055,-36.538004665564614,-36.0481625734123,-36.132243437985295,-45.521919213744454,-43.40950996206543,-31.368854073491512,-41.346281805715535,-76.39984631848465,-157.1823238553593,-212.18090511984838,57.95016255625748,583.8320015568509,628.5777019319651,14.990442722587318,-383.0795052189492,-191.0994222024728,-14.608526775318474,-82.2286261060681,-77.63026313293966,-8.971742857425497,-25.08825831927318,-36.247110272947765,-11.887670363613207,-13.50482942882893,-7.863784182748045,8.600066153719442,-12.620565483193523,-39.569651993310174,-32.91117100610663,-23.52713141144458,-25.255926736416328,-17.213935959433158,-12.937413074410669,-29.166404468149505,-33.02939868467523,-6.44420245767598,18.881446199977137,31.203658821304188,42.845975824448544,46.713610776859156,44.76182134328285,51.15156830111608,57.219039361316874,59.55393805017954,67.93598299869457,66.18249820844939,38.84879705623266,3.07916532904785,-26.182604595173295,-46.282904363252094,-52.74044157244379,-52.91746050192741,-56.18031607708228,-56.6516887656353,-56.379545553835236,-62.5624364742185,-60.51501681641567,-40.81274560498417,-23.426550695121826,-21.3666937128625,-23.55978723612145,-19.585397329218843,-9.557066263586428,-3.1916949613040373,-11.463295904570309,-23.532853214579017,-21.026806248614108,-14.794983022854076,-20.48462511456893,-25.65474938020313,-24.647526086110275,-29.3995502878387,-25.505795120351628,7.4875230782196915,43.66287031481623,48.18470648885649,28.076558436368792,5.773331446267356,-10.57944411885017,-24.130179393130074,-37.172971494876116,-38.10786755884679,-28.65619071148872,-34.05819011835553,-45.42506486214069,-45.66429857353108,-57.95217110353173,-76.68146614348503,-118.90984631993979,-210.59905796596928,-90.009686214512,429.55487963552355,731.4056717053779,253.61956428144543,-332.0190170426848,-283.1469563585128,-36.10987419884443,-65.93726348505025,-96.96803811073993,-14.463240399356856,-15.345210139661958,-37.005979519185075,-7.852094119742848,-27.81119885642002,-54.894721393748895,-22.548376881510315,-9.489789510208784,-26.06647472977198,-19.851826696462794,-19.96902579345587,-36.34896058185406,-29.973723029357465,-11.23158863981588,-2.560692403789557,6.299792227929368,16.394012783816695,23.02891494467742,32.6890203136418,44.00289288419984,51.60228814655339,54.24345167412624,47.843740135311606,38.1028516918784,40.592511006152456,52.10142111415989,55.11292379910174,45.025860192493795,21.101608352072255,-19.297433359510567,-57.569828124915915,-72.44036335195456,-73.1610945204116,-69.05262375875193,-55.13844116807728,-44.24929566375218,-42.97253081542687,-33.175283220465026,-21.788107626209175,-24.39928469760998,-21.279046062011755,-8.825829686891879,-7.102170023836006,-3.491048257154638,8.138567192354582,2.444689885642454,-11.487537223111588,-9.868742728196228,-10.083048144748933,-21.978233301236536,-27.58853575963996,-29.910054381544427,-35.77469395099351,-25.17561875328014,7.446819451656312,34.9757912502691,39.84530037865907,28.224967991595868,8.769788638306697,-10.26485113608912,-22.88786964092603,-31.954173897099256,-35.479793059755956,-35.564648078420646,-45.801911388514846,-50.20823036669029,-35.38437305669918,-36.75421125342656,-57.57247171037866,-102.65205538554453,-192.54366463530596,-90.05894521785817,402.8892502333666,724.2713543909138,291.09267512832423,-301.63477919643486,-287.6284565823068,-30.77159805861629,-38.87112204408241,-90.69836912931365,-35.59818534462834,-43.33967435858225,-74.37120944253928,-39.71648748369688,-20.524001562982335,-23.383659706854296,-7.5737301342776355,-16.16036887410848,-44.51038060990156,-42.987509318413196,-28.683787936359078,-26.584158431576153,-25.463077624516107,-23.633280997701654,-22.216335556853185,-11.501096160800584,6.059992567168265,20.430755529779127,30.847197694282933,38.262421275218045,40.94519044343695,41.80679919795365,46.49826103946732,55.74484109136049,63.25338918058287,61.24948622121157,50.122411301548546,35.04222222986648,15.186433345707535,-8.598602382402557,-29.105308814468586,-44.74455887085947,-53.369041112507745,-48.628971163496516,-40.3967782443591,-40.1627606944767,-34.85907167771139,-19.910433668122813,-13.641619529232408,-14.367727212865915,-7.900574864980928,-3.579731593073536,-8.201010968890209,-11.645833138767628,-16.04272674404227,-23.1768850310159,-19.633361862437987,-10.547556852110258,-13.956839137389323,-23.165225663713354,-27.08847524380973,-31.46423427888297,-33.85666429508586,-24.78473939275313,-5.0521092507127605,22.033041178365334,44.185317464107946,43.672395967106084,30.800329753821906,25.34121745003163,18.849985779119965,3.0211302456710065,-12.257522277839547,-24.934037664205903,-38.6570924468693,-48.184086699667304,-46.91156645054281,-41.29935203275526,-43.180003662402996,-52.9754327634954,-106.17840367100658,-206.12780544655135,-111.96554422450728,332.92896367569887,620.5764067653972,243.5415670719558,-290.0097144260231,-294.13342222164954,-57.36303271024498,-50.76348489607853,-98.46319143448157,-34.485350146569736,-16.461195061078712,-45.219012778683464,-22.334710155123357,-4.9403135462073,-20.555504321548245,-16.939275654944637,-7.152669425933908,-12.889682726816016,-13.118087165324708,-11.783207904461964,-19.608003879234495,-17.33220592846525,-1.7422524742127017,4.144585049011994,0.608190971126159,9.271445479833826,24.642158332674946,25.211130894180474,22.392365722840708,35.131533442453346,44.091037277242634,34.14180766147895,30.29600417008516,45.31271005739971,57.30038815212677,54.393121283064175,41.06352541998119,15.67784293128981,-17.39709145958779,-42.34745575365316,-51.9947402449471,-50.70568366178613,-46.394066175328895,-44.62870278496729,-38.33433630974882,-20.905371311364696,-6.870808159400706,-6.541942079881602,-5.383754832576789,2.321571674092553,3.125598598344407,-2.491427684241156,-2.2480366917413157,2.311581846167318,1.797379762732005,-3.6946730518931457,-5.124389766013971,-0.4471389863353892,0.5225929085157794,-4.180324729823834,-11.64204574761576,-30.356827567877197,-50.55945397533842,-43.523744861463534,-15.312971066641136,13.490782488708362,42.311651534363406,45.030070211842094,1.1683250627103376,-35.25813727523952,-27.469977795666715,-21.53416663853006,-40.850275695405216,-52.776001751051226,-49.43174222918998,-51.724075627566066,-55.73369897902437,-43.399178585419264,-33.41422463691352,-46.43215904191395,-70.51876581959395,-139.0960863799196,-190.63852711858647,68.07854302031234,557.3174778376505,574.8825564327851,-8.137038914544007,-358.36859873411294,-167.00323590947175,-9.734076860188022,-72.00657260155559,-70.55530228744993,-26.786298512971513,-46.51895107128458,-39.04567508768528,-10.200268317999893,-20.771723784445662,-21.98081282256908,-7.165542683554374,-16.258229065076282,-25.350312118840808,-17.5081221534668,-14.809540615199762,-18.99428700838182,-18.824957359173702,-13.13169076127138,-7.112531087189902,-3.298762994477707,7.356527703152278,26.420051805050395,39.3517983150295,43.04972543568489,44.29378329839305,43.27577527319344,45.206153682795616,55.03949351612799,63.177388535970046,62.12510227473351,52.513293929244604,32.76132091288542,7.400548868190211,-17.149096849750975,-45.70144546019711,-71.9936407052737,-75.31535450728984,-61.29845498741246,-51.20867272756408,-37.638565425522046,-13.74812356826542,-2.2434461383139848,-3.4069248153801546,9.691331799382827,24.45152137587266,11.337692692913853,-7.981599097635122,-4.64501889919697,0.09979719004414989,-15.45513062412547,-34.40477752934538,-39.28726827071496,-33.8295704347122,-26.6721545318457,-23.16987693478813,-27.335297974903227,-41.9978491847332,-58.868928704465205,-54.09477949675778,-18.650526095464972,21.639209093941183,40.73343305407136,35.6656245691413,11.797717234225374,-12.129841550518723,-12.969909199956483,-7.851297918086537,-26.185393755696513,-51.33508327960611,-64.00822453882124,-67.91279194132147,-54.68033400288025,-42.63990931249053,-58.007353922330154,-86.06994460830055,-167.14614885216275,-226.30524091268262,89.17965749618999,666.2404227304714,666.4362524101,-21.799218090296364,-404.5428199084,-173.08113005494337,-21.61473203806355,-111.77901178709354,-84.02835887401451,-9.16375919054363,-46.9954508485929,-60.66378462807059,-20.562391081268466,-17.371730475616175,-21.574611867078232,-7.861588413772744,-6.668662465387925,-12.21833393260101,-17.437058602366303,-24.34383927453372,-18.237903882660056,-5.368024428666187,-7.604573741748492,-20.034667321204147,-20.608989890508205,-0.8166694934971854,26.31842449025568,45.53960119799062,56.10239099452736,59.99174794076238,57.853472428783974,58.82712043226139,66.48392219329713,67.51929642114483,53.39891166126485,31.522895486341042,7.1605433483241985,-20.274580670415233,-44.420221671309946,-60.50909605727071,-73.48521470105024,-80.45742483414506,-72.04534037208272,-52.66021850229586,-33.03057233509412,-20.18946166100602,-17.859872628973754,-14.004090858742877,2.1503549250825635,13.881898701827382,12.781601750127628,13.522087764149866,13.482307709369183,6.708924562525375,0.4119704101106265,-17.97793545811726,-48.38932546429612,-54.66552367119105,-40.714013034512796,-41.24159273926533,-43.27421895795086,-33.10486582556706,-34.091255015115166,-36.23902902730174,-7.357786284639419,35.11508311514913,53.20580228779405,39.590358288251366,8.536950138346349,-17.699758708145584,-27.315864172536077,-32.32020980945645,-35.99324420965589,-32.77967167747767,-41.19680834128128,-58.121520573674985,-53.65502644866587,-48.30794132548894,-60.6886633175862,-93.17153998761565,-188.2599864409483,-166.897179017896,270.49918146808847,722.5833677519331,441.6389626222692,-223.58899449492122,-348.365581702724,-77.73329190001675,-42.71992087700528,-120.0961216174521,-52.454423228077204,-12.797903180793156,-46.16867539754431,-29.55542850117401,-10.073727464502586,-22.846560713391355,-10.405251668733385,8.515243694533584,0.5041275783158774,-16.806989038955216,-35.5710266624919,-46.20614078384941,-37.49228108753315,-24.07466415977867,-13.983983418246027,-6.07776899731922,-6.23103393616657,-1.4523795713696535,21.534554113739368,43.27731984184533,51.77868805830161,57.25041663397292,55.38906160507302,46.77960889018675,51.98606087370669,64.24856530020128,61.77828139992305,51.318601974183494,31.356235105728672,-11.277999387976582,-49.17542279276044,-56.058471622600486,-50.223282608390434,-39.778175446506594,-24.740487264483505,-32.589472317095726,-56.807956580130735,-50.569748118527976,-18.404057249539544,1.0909004614292854,6.849094758272351,2.931371534544901,-18.8706097518157,-36.67994242601643,-28.766775057328864,-14.76136235852642,-12.901361182616984,-18.326331081305767,-26.209850540793788,-27.33380034232879,-18.993376311206244,-19.775476342367217,-28.37808507995218,-24.472047254621152,-20.146439347851704,-28.156795234165273,-26.63827893851588,-10.507432418165223,7.793226079387244,34.048155159793126,52.61300005335701,33.70595058883847,2.423921831216589,-5.0988059820127205,-10.193238895026163,-32.11426029447535,-42.9075207121697,-32.38055091422236,-30.323686124157085,-38.58349403478796,-34.364103725020335,-31.668358286083542,-39.958391040140135,-65.88903349302274,-164.08545200281011,-197.70873501387055,146.30894084427598,617.1978592512326,491.34346092272125,-114.8212690348693,-341.95361504900876,-117.23848767425466,-24.984586461311757,-90.92201159999296,-54.82951303159153,-13.901294465405002,-41.20861823387777,-31.12912354756296,-7.330878619349537,-18.151909957689952,-16.06581370023011,-3.1059024677733493,-6.38237128268797,-10.74768927074494,-15.710307423284064,-22.672147164877693,-18.872360043881002,-11.619502835441715,-5.879626025150301,2.2791602456740114,4.389589315183479,7.2198097969928785,27.419859082907266,52.10127333281605,60.60869558159442,51.7564668164088,35.88206448012624,31.440266126838864,45.66308344107476,61.881316394797686,67.02080239915817,55.78851617598515,23.23188059200578,-13.49544025210391,-34.9025454735074,-50.67328337654999,-63.522858592351795,-61.759165939196976,-57.02321200001174,-56.469163560063016,-42.7596039130842,-22.108976938934966,-15.684830258597685,-15.797294096657371,-13.347514055164197,-16.064850042750322,-18.499626106663985,-11.055380785934958,-1.9733110351159944,-0.3766775372194999,-6.47538169475505,-15.519473821864644,-17.3211011019499,-9.67936890961202,-3.301456538069271,-5.036597820425314,-12.73945363416707,-17.796621319097763,-14.488438915588976,-16.89547565684674,-34.42111373439742,-41.963355802620725,-19.621360497563305,14.10598762939847,34.32781696449253,34.180839821066385,21.124242015880355,7.785843400579914,-4.543676932354476,-22.322316046623676,-38.56336956104666,-38.98597250403772,-29.47259755705845,-29.81944261996503,-34.01271115757652,-27.757802499852694,-27.94763348518855,-46.60662935222798,-101.55201609818083,-180.25180067631214,-60.01686431507444,373.9359274847386,600.5353196379775,184.2272629914848,-303.2113578681142,-250.87239047615185,-26.013347792973192,-39.76460167795149,-77.1370432007565,-22.403478221792156,-21.981578324060024,-40.39255064039389,-13.53575607447115,-5.78440448814947,-15.376683701683191,-9.81364655533263,-11.810221906685921,-18.430920914777285,-16.932306378886963,-14.928519484683068,-7.6049179605039825,-4.698732578426024,-17.38056855904853,-19.167435895393716,-2.2816364692248907,10.909609419727849,22.81370396737003,36.10769188247917,36.00974886494218,31.00981803352898,34.942939943566195,40.6540964818115,47.066648002649416,55.75650546087489,60.07940163937224,61.38996932911802,52.69821969641126,22.81553889764414,-7.124853960220067,-21.541310703391765,-39.96460887404058,-59.6341964129543,-58.472314751032144,-48.018496015611554,-44.50242581208293,-43.101694037896245,-44.78775651435473,-47.34363802326629,-38.94290733201045,-25.422933249922327,-16.092958516553978,-3.5231361427848498,7.5421103670954075,-1.8182045100699753,-23.306277510652496,-28.01170329341303,-15.177393782708041,-8.697794904003828,-13.249981172328095,-16.979440812425487,-20.541374367022147,-28.72039871817802,-36.548642080702734,-38.66810091582808,-34.01520371732053,-24.99233816057535,-11.699806383607072,13.25314179031464,40.72818342075357,42.60864795658855,21.52491447934409,5.689567683675303,-8.30559772269244,-33.83963392156566,-48.04106329460288,-37.13331586766593,-31.944285290688896,-42.23226183297427,-38.50760758409264,-32.97288539877298,-50.40645007191369,-67.7117480895623,-120.42248808419616,-186.11167129220723,32.539698633026674,540.4458695837639,640.1561215184644,70.21600425065697,-359.8532992275956,-203.78675570965746,-18.816336439167664,-88.01515614233861,-108.51654093226131,-49.07601976977873,-59.0369741719132,-60.929633965339505,-25.139391893445428,-27.415658872642794,-33.030842765480045,-14.124287673061023,-13.541930252552145,-20.275322980862462,-13.787822951537354,-15.940956632783287,-25.336770431210176,-25.205579062490365,-17.701665427761014,-6.149763651317963,5.655436884103821,14.98344702104719,25.965550851486867,32.87798099585919,32.39215291788513,38.548695222280045,50.72804271037445,52.17092123156563,48.080531724131625,54.889480720102284,65.93646335105637,61.69813420505554,40.076131652396164,16.237649211642466,-5.852485784712133,-34.48148489637879,-60.84159227581078,-71.76383447562483,-76.66362546641824,-79.68067296067682,-68.86220894690118,-50.0561076462805,-37.53638903925125,-29.78658687755089,-24.081753726680304,-16.701806578888696,-2.4063508976482346,5.1577624599988425,-2.4604308990288217,-6.320128488068896,-1.5593960907281925,-2.500780160213335,-5.780530648283644,-7.461012941819476,-15.298208381358506,-22.420646347672662,-23.423483298983754,-29.428387854616652,-36.99609949708239,-33.65571407579468,-21.937494770584966,-1.5944524581678365,28.384958798831704,49.34873349073513,46.89793425711434,30.421257715072,12.969302634930411,-3.885327711003775,-24.512109690956688,-42.571030509741725,-47.664096715814914,-49.297655811907774,-51.13342479689345,-45.81120387407834,-52.977168037663496,-70.6030563606612,-96.27712225077516,-182.43206137075902,-161.3287388966529,268.98667015729745,731.7419552235142,473.00047338339164,-204.04526276053548,-357.12375291448427,-72.85000328909346,-15.219795717454073,-112.20457868981234,-61.16420579494281,-10.824337126628677,-53.04829042849168,-55.050124446674644,-26.21262834875268,-31.080502821410832,-29.744875672244838,-10.732726092072681,-6.799524568281125,-11.376751203478886,-9.991501115883501,-12.463715919642269,-21.587691246768966,-22.315855655239126,-13.219056154446212,-9.828731573890675,-7.358437779328051,7.230516704373323,21.489144607481045,29.776297723547362,45.26217493542556,59.268711488583385,60.207591009156644,62.03132049492422,65.52219231884754,59.1790425219078,54.45110531465595,52.67114549103492,32.17108714199604,-2.7480775516478086,-34.296662779807264,-63.580386547145565,-80.27237060836612,-73.00546803549557,-65.0339232577274,-66.15950703983022,-54.605392307629074,-37.105452609477446,-32.547255587520475,-26.138679011012517,-10.6411173546737,-0.5186872679397609,5.204728317539836,7.150154706858672,0.30268877869021793,-1.1119596011229937,2.8131716455917655,-8.454001186443758,-21.08980408743112,-15.854065140118035,-15.46172510406058,-28.75065150705239,-32.74471525145665,-29.16390190550724,-29.805894140582026,-22.247480838709436,-0.15264876472065936,25.83909526606189,44.33039620966133,42.71652511918788,24.793492711582918,12.403697755166078,2.4258930858707046,-22.767452651315086,-42.42337663570392,-32.647409994109864,-21.489628123314787,-30.40895541829397,-40.879837070523806,-57.70449189112469,-80.59236704590077,-99.79896056895666,-179.2309975395866,-213.28512666018932,141.2147102424226,675.1491353781189,586.9373742925794,-78.95869941633086,-369.25808791118067,-132.8293024130457,-25.735472461307978,-111.34930288518227,-79.54857728042859,-29.76586307334418,-59.602289676062334,-42.45277519569098,-3.893271273261,-16.417209918649,-22.260998972894008,-13.025816947767371,-19.810612096070443,-16.515557205143587,-4.740842825430484,-9.074336071187666,-16.37074670726868,-19.95266351866671,-23.937010584430492,-15.380763038894521,4.5897995405386895,19.376737580328893,27.240763850513893,32.97301970076343,38.5572833379114,46.866258648267944,55.98834045144423,65.0658328609157,75.31110449177756,75.33767594033692,59.15665840119418,44.582396735547086,36.92608420276444,15.165862274633044,-24.140941498682125,-59.320850370581155,-79.42319248783633,-88.26268321717986,-84.8867868644979,-65.58649064197539,-41.71319742067922,-32.6969171321587,-33.80620194868479,-24.98975218741122,-10.072924499332043,-0.9458747173588051,6.902372240467113,8.309503781294769,-3.8195712899907655,-9.038937874363107,0.7114024505584879,0.8218395650474513,-10.242099142882328,-8.28453335099686,0.8791983348879455,-8.940579965882652,-33.11808448872954,-42.042711959370955,-28.795785938119046,-16.363620868588143,-12.786963366153493,2.4759151363022545,33.886610253993766,54.30514794628469,44.3446176766989,15.202805603439563,-10.452559729386024,-27.538984424368874,-43.229160559986894,-46.74188568282697,-34.853504279423476,-36.172616205638406,-45.68653328403746,-36.50766555458665,-36.934330261935564,-55.368397254771246,-84.81142041151247,-173.14980615341932,-152.04815850110327,255.3887186871035,661.919466175646,393.6187208236985,-203.8894870969562,-306.7266837906839,-66.33033517410522,-34.98732697793441,-99.22472627540418,-44.23083488484508,-16.735976182900707,-45.54903807239133,-26.320124081374086,-3.8894987226017683,-14.74877204128595,-14.933886033955666,-8.310652887192619,-7.594688189609695,-3.5652604186040158,-7.921096211569806,-20.151707217973716,-22.874268702979833,-20.5355319459363,-20.132195349252775,-14.40978503184287,-0.9623991164038959,13.976145152956956,24.279644213772407,29.70985566583485,35.011438999625625,41.71947795240704,48.20318433238159,54.11798232859773,59.07566508242158,62.91488604760825,62.898728202755834,51.31738329345345,28.718414005534477,7.480084443539555,-10.629024330072273,-34.27663787979061,-54.13516730634883,-55.48761608590824,-51.9119290965629,-57.911658051575245,-57.57262384455443,-42.893849315981186,-31.219975369369564,-25.33391087986815,-14.061764322138558,-1.3444304135168323,3.158717133318188,-3.831999752840101,-17.893357887736265,-23.915305308891334,-17.4118077341131,-11.555743220434156,-9.262768754467547,-9.537941703775033,-20.27044172159073,-30.897604534815763,-25.938325429881484,-19.18406352612017,-19.182447622871965,-15.339070241914701,-13.97944918437122,-11.115550033118254,19.268504329561488,54.5591095829388,48.76160516331559,21.14813083402768,5.136998630269826,-13.021506765267642,-35.32136075918212,-38.391586271238936,-25.792327128879386,-21.416355660060447,-31.628118715455884,-39.951944475492496,-39.61542636501093,-40.68405856211754,-49.27560308538233,-104.46766444187665,-170.79989420643741,10.118968655540385,447.7083856441864,545.1098718816592,55.165793462210615,-330.2601900171703,-198.99842683476635,-24.458391136360234,-70.10867423167888,-79.90886946140134,-21.6333820106492,-28.406987740777453,-33.487428046116754,-3.092302131642608,-8.048722714771198,-24.128435640765964,-11.42999022641217,-6.002348381070011,-17.601275863022558,-17.47083155737232,-10.152704916270626,-14.53389359646655,-18.23726866494357,-8.441145124297314,-0.2779611673599738,3.0727752098963887,10.948656023674683,11.188287406523578,8.304241225112769,24.885280002222643,41.61695409595066,41.32971943127324,48.03524381001838,55.844865048485985,46.2601594372407,46.42233557921435,57.24030792561581,40.02636409737483,5.335273459743052,-17.823315509700734,-39.20448166541123,-58.427142230282044,-61.566664146015164,-59.05292368455855,-56.822073015898184,-49.476766336219164,-44.499988513401064,-40.737489334792585,-29.385557570464833,-19.186621866788393,-13.107043107761726,-3.566025620128066,-0.4898616469822592,-10.219462415180349,-16.97509107353527,-13.638513848984125,-8.272318980607853,-5.545689955271982,-7.593428634669415,-13.862513393901928,-19.321932480638104,-22.88178045582739,-25.716458196163554,-26.626349431864192,-27.37142201426519,-28.47682359669225,-19.243591608689023,8.104693155578722,36.44532953399801,42.64517927610275,30.04832170194008,13.357413619248117,-5.581258860027603,-27.385081961601067,-43.17805679266629,-38.913365585083255,-23.409061155772417,-31.710530583889835,-57.290018004595126,-61.43792789146541,-55.80513791383186,-67.74776582704258,-125.43606439750786,-207.48626345357386,-47.545358789488716,468.982294934626,712.0611762574974,207.00090483090665,-341.1002994733957,-259.1950389472224,-18.32800643165737,-66.70759062799037,-119.6407111367802,-50.33968092632051,-38.97797311661167,-50.733104106671064,-23.416549697193062,-27.47704858458731,-41.213806711756284,-22.072964750444466,-11.30384920642813,-14.471458239782056,-13.555115943467804,-21.280012516520273,-29.367790705605383,-23.62079793884844,-14.391291675311987,-4.465467951583494,6.27680387443514,9.594649107208403,11.222560672252877,21.95904088271402,38.19365327648907,51.778255866017695,58.45982111652003,57.44870455086381,51.65321143393594,48.12844203353473,55.30363264069705,65.56324049698517,55.74504825128589,22.078050971907675,-18.01573402442864,-51.86785178191013,-67.81248742750128,-64.91605990086545,-63.63144112941382,-65.19916373701489,-55.343044266867366,-47.987560046546264,-48.31658771582097,-35.06653618278674,-17.28485675969811,-12.90412517560393,-9.037665944765898,-5.798099138072065,-10.106461574683216,-5.949587765984376,0.08175347867546634,-8.33389497638412,-11.152783003225387,-6.240396518221605,-17.60203530801092,-29.820530204237905,-24.710105752960885,-22.108082800537602,-25.19501939026549,-19.12583979093892,-6.069288788458326,15.83442274216791,41.67003287951276,42.777149438146935,21.20367954536134,9.6003067210304,3.167815877562923,-17.946819720465577,-34.02329683272592,-34.461331888883876,-48.37386812224719,-66.60385669160917,-52.19139608242827,-42.72786201129766,-70.01192338098411,-94.20343294734607,-156.49552924148207,-209.6953508802875,78.51529396733281,614.9021024151051,617.7507270628474,-22.347592169376057,-381.297263604148,-162.39748803918047,-8.942695082558565,-92.89223289880432,-86.62893068475759,-24.088198951831004,-40.83451999926206,-40.01298104242318,-8.187911263453675,-12.877095368245136,-25.011295174796295,-24.794501903896926,-21.13101341563097,-5.238014756198957,1.0353005043531294,-13.411875400523728,-20.779039237756393,-20.450800632702027,-20.729388384406377,-8.514913819491154,10.796406711161625,23.456885013694386,32.74296375139892,39.12081518316278,42.02475900164412,46.3358712288306,51.68661959996777,58.78516721404495,63.05289763641587,51.18232086530962,34.08984337512882,33.830911985652435,36.014291921162034,17.49187186295382,-14.546438862824777,-47.280449733712786,-71.05612968151513,-71.6091371368223,-55.136417661669384,-43.50741793063371,-41.18747318577596,-43.555519421347846,-46.05779614159175,-36.19713857357277,-15.981280576843076,-4.772638818471968,-2.3919548526697447,2.271584911833326,3.6851917938881513,2.087208252094694,9.535792451547174,18.09587754408914,9.27860073118833,-13.385218501782184,-31.778853415125266,-37.54358545187533,-38.599015835841854,-43.85538975042894,-45.03301775787048,-35.69291263031072,-30.979225711913593,-27.866729148597695,2.5080002362068825,43.969667477792285,48.02000845189791,24.4140109647047,10.62650357296987,-0.8305727082050147,-20.473801695699642,-33.83171253933175,-38.38993890474177,-40.60957043156769,-43.82592443530491,-46.79438322850845,-43.151589590959205,-43.272889649416996,-54.907962666199815,-92.81944202116308,-176.7253673278453,-118.63497710982836,302.27138437254496,666.3500342459566,355.2162456270103,-234.838636007164,-303.167869818748,-47.85322511117149,-25.93233093942669,-100.32898510668252,-50.352099984086266,-26.912551673487272,-51.94136439747781,-25.496270821355836,-7.61115664921261,-26.333604127556786,-23.146265362249,-13.65529661114607,-17.695270407098977,-10.439773679992403,-4.953106746329485,-18.68003266736055,-28.14966870853351,-22.095572014724407,-13.743489661175728,-5.960572378892124,4.112718956810203,10.71507858933548,14.15287093141455,25.52690772779211,43.26163312945083,52.42496242975303,51.65953103294866,50.080182454332444,50.039150997709164,54.98344031546222,65.0291504253902,64.25128324535244,43.88832136388089,15.015330641973243,-16.272038513171694,-49.638682325325775,-73.35405532619771,-76.72754438503245,-65.26180963466732,-54.72470271195145,-55.615853492225654,-57.569254002727035,-43.75598035285499,-21.837043828163733,-9.527842002206693,-5.735617177565111,-4.992489146317364,-8.560743455240939,-10.93883207457381,-7.751309598983255,-5.321217921561278,-6.39152606307951,-9.548473391098863,-16.544963480696936,-22.593229666614096,-20.932393954263667,-17.62766670965143,-19.531811090516168,-22.678174289232274,-24.13981457214163,-24.908296583261016,-18.3776832506636,6.760643031527531,42.94323529838048,57.83522823935472,37.97662524209872,13.039570991376978,3.1095353805735346,-9.467215898239317,-31.44199863174841,-42.98591276088224,-39.916076929607556,-41.643594169996405,-48.79251699073125,-39.83293292708592,-27.978302807647715,-38.74796908736434,-58.22930927363037,-115.0141283095189,-183.3908436240226,7.542071049125795,473.2643753780716,582.3777067943076,72.48694814787974,-332.39390497226697,-202.5141969222235,-25.316169366501782,-68.06624626774311,-72.08415762422128,-15.806137806263465,-32.82626493492039,-42.40427493064733,-8.798693148516838,-6.780714681867263,-13.1197213700077,3.6964103713037986,6.853034892802485,-4.069597770606681,-4.0366412111500605,-1.049603245497643,-12.522749164194797,-35.23106091119202,-44.12304156599366,-30.870990228576343,-19.756469156885277,-13.753177952756916,5.812427628127603,28.54231036706607,39.86709323739258,46.673395837575725,47.45635600733931,42.56526359187586,47.991854273212184,62.4688460646552,71.01835143768032,68.10286613038795,48.10807290516248,14.728414436813786,-14.546900105425816,-37.726117052664875,-56.236047063060326,-59.48343067832832,-59.84892106295763,-72.62421003935744,-71.95104040720955,-46.8700952600679,-30.19243397828429,-25.81475010322376,-11.788283776215316,-0.9536338813214513,-5.278139036571485,-5.303252039440288,0.020515430319630212,-5.635713174729492,-15.037268195544478,-16.90213232380617,-15.761226617260704,-14.162248271757441,-12.987656237999726,-14.580680222801284,-14.223954704021846,-13.497661548270507,-22.656097700392905,-34.51822612038043,-32.42667397516402,-20.34278989354336,-8.350535682985956,10.1857998330197,36.46896906581315,50.101857077684926,38.83289203926343,20.823405351995596,18.846622332040113,21.08979357428904,-5.769834576308504,-49.93720136006317,-61.59363264063096,-47.33485917254235,-43.860685621534415,-34.21663885945007,-24.82851479298921,-53.48256026008275,-95.39595615011021,-159.83911260851858,-193.71383562568207,96.92641774969451,613.883263855191,597.274179658915,-55.43291147933904,-415.8455616467366,-189.1548172724033,-29.926557930213107,-106.27265188367508,-87.73081908650191,-23.592278722572956,-47.273668730276164,-43.169631669266806,-4.364119060358327,-10.37852936536514,-18.696302005875573,-8.730133702883792,-11.666251094302922,-13.168789857901556,-10.34661566177562,-18.46733577795002,-24.435387994027195,-24.852990079047924,-23.476604345857563,-7.6119605940942145,12.826841791031095,17.920049686621518,21.62662916694452,36.593856641515366,50.37583783356654,59.00750951763674,63.87428345759563,58.96320884602309,53.01433854630925,55.91538383777261,54.707792178909074,44.28258498368739,34.035112212848674,15.357729112860664,-19.74150614654387,-54.05336825078725,-73.89533606875413,-81.12566941162082,-79.40243155894399,-74.31988767238349,-64.21429998826856,-43.98526500397048,-28.70225987030397,-27.031796586720183,-19.10228278691772,-4.307843743250455,-1.1043902162554282,1.592193989468889,10.65624572751923,6.4138610805108165,-1.0705264978135283,6.127696459676162,6.016394267900534,-1.825950254193483,6.835154889964967,5.487753623369095,-24.424341870178026,-36.77929048867881,-21.402728976900203,-18.552238532456666,-24.065862673220046,-17.571867470987662,-8.615639548546095,4.339587000933726,17.439298086457065,7.0486966339165775,-12.860651985104745,-17.986223972053338,-27.824772824407475,-49.92295367508064,-56.22276453718368,-45.30901929525839,-44.82154134079367,-54.709449842264895,-56.14050327080321,-61.10557671490868,-72.94649631165183,-87.54014020861449,-167.6197397744977,-199.3791557763968,174.3064265674557,735.0143033177907,627.2358616603001,-105.57277069022308,-419.17178201843956,-142.5375117371358,-16.220184242620704,-118.08625435733707,-83.58920129631693,-18.266268385056307,-48.11433875067608,-35.687268951048054,-4.162032775701867,-30.782138047619085,-37.39062968151815,-13.285956760425389,-18.382287373514544,-27.038528131614648,-15.784062271501991,-15.711676354251745,-31.083683882228293,-37.7334928351188,-27.828852853421182,-10.989470957957426,5.879489291338279,24.506227177868016,41.45823443850815,51.04750468352778,56.73233679122542,59.220440477119155,58.27164696981105,64.40797978298144,75.68695576860381,72.70715555210582,59.05359197066318,53.82024245167576,42.31467871534791,2.42664322020398,-42.22077733355266,-63.366288374413585,-71.64055581288159,-73.88669122017218,-61.41942454793601,-47.21721380563757,-45.901571840170924,-48.91602371890811,-47.115831400306014,-33.8047086491998,-10.425084872156582,-1.824015082991906,-13.814030494022816,-20.16903964778946,-21.773027958520515,-32.3828837890355,-32.71251396592452,-18.4598256918063,-16.5614131379941,-25.54611482926836,-26.895760688397708,-26.570171159663282,-30.369648678603617,-30.889102715317378,-28.18026945056559,-23.589267811777788,-9.467739752622414,16.90921407198707,41.014991825350265,42.30786910651702,21.277110972248998,1.4063887902884318,-6.382595610771759,-16.79899426810797,-32.35763445909035,-35.46061287615328,-34.31468550760721,-45.044527793174254,-50.39954577577413,-54.68691710460325,-74.70378044308055,-100.53574147190334,-179.03521708958547,-218.70844456533837,139.10708027288482,725.9602996738624,665.2302754762202,-77.83076809592735,-437.4044429453281,-165.6208304032575,-16.479275478078726,-113.44940012149274,-81.5721238465286,-16.27227921851322,-54.00923051409276,-44.7615926188392,1.1348616633579844,-10.326760623802947,-17.540530919237955,-3.092115390071342,-12.931417600353692,-21.815667196422858,-13.798607093909016,-13.162263726968359,-17.23182819495712,-16.00747852109721,-13.129597049327948,-8.358589435939718,3.7979530701034836,26.977166426268468,45.84019037522693,40.649448662507446,32.88846369368352,51.836742683455,75.2430245428138,79.40485576933209,82.24384513545594,83.14230197354347,61.25424390639493,36.19145722233577,26.48209515368685,7.982425601294201,-24.836698671254823,-55.88768648570129,-88.71247610490704,-107.69942899972011,-88.05520540613664,-57.85959581145599,-45.5500567226665,-36.35853372749111,-32.98078042622028,-44.70430196184708,-42.03896001248166,-14.338038930442487,4.334820962431117,0.012050987605487506,-7.124746857645825,-4.941995180380051,-1.4278743641279696,-2.657643276407157,-0.4588846148866814,2.7840406936440942,-11.10092165246903,-32.67350353503403,-35.16272940442983,-28.348259457523824,-31.388753727918324,-29.887572429505546,-11.417709880992184,13.956395261257253,38.101320547156575,50.058269706564076,35.20846702146567,7.240109838358652,-6.434720843457878,-14.137062409149685,-32.3498273017195,-39.36472840741794,-32.37826681637489,-43.94289297324391,-55.16572054295392,-42.35910880315453,-45.229456594461354,-68.69058333770968,-125.0611898891157,-220.55320096996832,-68.27461817714583,484.5717236367761,759.629913871254,236.4613007048008,-338.14732586825136,-262.12509185891196,-24.988756513486063,-70.15645631754634,-106.53188711578642,-33.19960884036204,-35.81479868208863,-53.592072996848955,-15.430161945159032,-5.3825413797207915,-13.008015504748847,3.3320649138375744,4.5481378474510645,-15.168549787215857,-27.30122153843267,-29.420143619884545,-27.616411979743425,-29.9110725340758,-32.00204743690802,-19.524996791148148,-3.553648439532265,5.873098151144254,22.987777921292704,44.034858839655904,51.83977064781341,53.26854446401161,58.17385902749149,62.45790268697355,69.70861053133936,79.56028521670244,70.44925252591554,40.758881099373205,21.32573501364152,14.196791941594167,-7.857495009330808,-38.97721451718901,-59.18222427496319,-74.02988603123535,-80.48941982643879,-65.83804954037788,-43.35886197171379,-28.1990712242034,-21.66975367975604,-28.991426142214344,-39.14113394197928,-30.387262975821976,-12.835734896707816,-5.385139752921962,-4.820385749968885,-8.893452083006643,-14.36425629294289,-11.346081746355832,-7.762194480344089,-9.879283554457086,-6.165605220573742,-5.110995641658949,-19.259645262187792,-26.992351171623152,-18.81092317124581,-16.727208826286887,-21.201891712453314,-19.815529720135704,-18.29211493767194,-7.251378865499197,27.776001110413553,55.64350057997811,45.072630646067026,20.745995361762766,7.479864320094729,-10.07000268778772,-34.8980552715355,-40.41528508575901,-25.81360023629595,-25.27238568448329,-41.232502599910575,-40.35981443604177,-29.880221106202047,-34.652415829261294,-61.478201579027036,-153.25315176695074,-207.84451776034888,87.85470058571244,583.444723403351,552.4971908172942,-44.07111380260467,-349.42773244212805,-140.18533338580056,-14.459191309551919,-95.80959656544059,-75.9371933999701,-11.767144984425876,-38.064402042131235,-44.277972395092775,-10.697763967043189,-16.461810190792455,-24.744897437665553,-6.079587580236863,-3.149820514008505,-10.560381095162994,-1.9119885795603322,2.0491153506046453,-9.327372180172581,-13.252233735783776,-6.773952468149226,-0.30176273874629356,12.368317636700489,23.087231804771044,16.54522074583882,15.11561476048461,34.820156876085804,50.43096831472106,53.40425307691701,55.6878515251299,50.69327814994863,39.176574461702714,34.77689668460878,33.97129208600468,28.64775786821616,12.389191178657331,-21.57704211136933,-55.68947230240284,-69.23268541295467,-73.42760151506299,-76.12053657215881,-65.0977504331088,-46.13026035338327,-36.94615932768428,-33.8828016923464,-24.100792957268887,-10.178734491662723,-0.710938605987927,6.197271120560401,9.401537882234152,-1.2293551049888194,-15.161162648985375,-11.754967619670413,-3.594790890299464,-8.19046249491345,-13.252325364689867,-13.826313046021195,-17.599728268495163,-17.187454130486564,-11.083893058334269,-7.697586785038897,-6.804822876535578,-16.380849208487778,-37.89651332625808,-41.993422982306264,-14.451925133175873,21.897796548850472,41.97224289187438,32.916650560890275,8.013559845902558,-2.7036410243447158,-4.155508947568922,-18.145910816582187,-32.15914253619336,-33.41435137402196,-37.11275816282448,-44.907622212588606,-39.06078595738054,-27.683894692794247,-30.934240077385137,-44.106309549262846,-96.60642053308567,-181.52375582652024,-52.31009125972675,402.1698982213911,631.5984531888876,196.22488984353475,-316.5561328197649,-277.3607796065994,-46.35360379630376,-52.03618651871989,-86.30212603549586,-26.827315646087406,-36.54964279690966,-75.67406877412608,-42.51158046347917,-14.355193976479349,-25.08396493999465,-23.013712486468883,-17.198268108525276,-24.8716694894782,-25.93833356168402,-19.39163657840128,-15.361772575239272,-11.621062240794327,-10.447830718358173,-15.640950368003395,-17.53888119552104,-4.2939248004139365,17.30000372448802,31.435740542388643,39.36664718196311,48.02243787915346,49.899081926874565,44.01837567991228,44.03789302106504,49.73084462193501,48.33450076607954,41.30602798769641,37.42486933953714,29.27933474060928,2.124405579797351,-36.597140583879835,-61.70988698366791,-67.2016015469169,-65.51557474055066,-57.143488630891305,-43.46018052889268,-41.29603098726521,-48.728829192813656,-45.408936613960165,-34.34632013864886,-27.93138056966341,-20.05358250370203,-10.136030896284709,-7.359637684242671,-7.4931294521666985,-5.619856845637301,-5.931699847239514,-6.522858869844871,-5.27406013364897,-6.753483605561687,-10.39046020260188,-12.640394412950833,-15.02605434513886,-21.043855869492294,-31.08225155037641,-37.279088132065255,-33.001730476423816,-27.362499524379427,-27.520460077720756,-20.146223411363373,5.638945830753148,34.79625559226998,43.246739775225585,29.05907573393489,11.338623411606736,-0.7733022441248067,-15.20325557329475,-29.95999225503866,-29.15169515139564,-17.799311291783372,-23.07915988803917,-44.830975662128,-61.10613543256422,-68.95323301572795,-69.69615173944143,-100.56597920319696,-180.44912585564288,-78.69342192590943,372.29190696639427,655.1492367884492,247.55974175345392,-307.34808358962243,-299.4207262721118,-53.83366957795708,-54.624597890375,-101.79106129999984,-39.41300961414204,-32.65309887704316,-57.14894812348816,-22.974454714569994,-12.83614437764674,-36.23466543760743,-25.246014420252145,-10.475623597153799,-17.257997932798467,-15.2490379248867,-12.075092221873497,-18.63575907938179,-16.88970119327904,-11.139366095838659,-6.741105480574914,6.098160825159098,9.310648125171896,-4.586209138791899,1.6336584913343142,30.96091830272385,46.81258311950673,52.284635759641404,60.035008962358894,53.94833186904722,45.775273102613184,59.344034798007286,69.87867154532606,52.50261580487989,22.048300669632766,-12.549488640019288,-50.36512801532077,-72.80855218070687,-74.71978726848556,-75.30178712176142,-77.9858407970649,-70.81412170444696,-58.17096168252269,-48.18033220587652,-33.05486446799708,-13.107195103497553,-5.343994222404945,-10.403469338601191,-10.125013918348113,-0.8771335972380001,5.5423114172073085,4.420128555231987,-0.41570388169868266,-4.855150627154913,-8.037704715622993,-11.78706691799821,-14.671255563469167,-15.34377281730973,-18.71915208389205,-25.59803307959204,-29.601981090343596,-28.358321166746517,-23.878354681423666,-18.547050708696236,-6.786414712918802,24.585637203666046,57.96784306914475,51.57518030845422,18.211027309830747,5.503324659933494,0.9487437861257533,-26.078318306628596,-46.28358440453114,-37.944352470978174,-37.155219912474934,-54.3586639646533,-53.39040362142332,-43.024788910196506,-52.636014612279084,-65.57157150680115,-127.07029767772997,-232.70428526398237,-49.62969418421403,521.7745377769917,747.8156914375807,190.14622522364488,-345.6484671643522,-242.10440366744962,-37.83615437887768,-104.64889652558436,-116.36496258330615,-22.64759218045451,-34.037262995316716,-66.52166500775019,-35.50332130644428,-26.43344607102962,-30.35473788836514,-10.726901392245463,-6.055566732176596,-13.54189838343849,-10.533748696041894,-11.639939354815432,-18.923780594053557,-22.059087941209746,-20.57295180836562,-15.962383094825647,-11.170463595237448,0.0632743029401528,23.115128876459725,42.54919559854911,50.64963516098153,55.339243158668545,54.99511971458307,52.818873717600674,57.698238720135095,60.35937733691891,54.83873370164578,46.524945581385296,26.80537886112861,-6.658813224173029,-36.20584503763324,-55.41390022505419,-65.18111220286346,-62.97670936627492,-61.42590965880759,-64.80571128716765,-52.200691969542014,-26.358130755042502,-10.675289273806804,0.7669179298273008,11.621098455401157,1.0241115190144576,-15.113516312529928,-3.1258972545043697,11.383606798315554,-0.4670334059448429,-8.699421079469381,-6.230225531132135,-26.09277106792519,-47.93447846587825,-34.297914131649335,-16.004391152635563,-21.958229796074285,-27.600352579243214,-26.247879617373872,-30.661914414238147,-28.621495623997227,-19.25434216238502,-11.551078275419366,14.543982586382976,53.44486008306754,60.58693891931709,37.79394950876075,16.1851054112871,-7.5045127511180745,-32.36872651797468,-43.26287126278743,-45.540855641345885,-44.3049990603253,-43.92136687641034,-50.525403918389785,-48.54592744601746,-41.048228333277024,-52.55186772293884,-99.55982358767935,-185.62154251744568,-127.68124247705961,302.1255927818047,704.7550076829469,416.7959881735992,-215.71516476208478,-333.4042155868889,-73.18578488629865,-33.23152584131117,-107.88293207910962,-51.71527565152583,-20.819170144279106,-54.71709328649996,-34.89815425174623,-10.350056484171649,-21.64012956322373,-15.160845872496166,-4.853842645388393,-12.510586427020153,-13.31492387986027,-10.40387813346347,-10.5438015827423,-4.900430663640547,-4.634703329407414,-10.508268252385928,-4.076159233085998,11.630400764770279,25.788997038928393,39.2818247580602,47.63082635038964,49.3473221457956,54.447695245234854,60.137667761701536,55.09830858961767,46.09695716763318,42.69455679283216,37.88854284759053,26.236265618828234,8.161897762464296,-18.35967058387803,-42.33864258237223,-51.468516058334686,-59.25675609123891,-69.82026492014543,-61.39630145924576,-39.19421226329587,-23.5976768759639,-6.549227864293872,4.3704971361020775,-11.671734410884014,-22.772322356415913,-2.7010633182697443,13.15647064445368,12.97497102754396,12.437140353541736,-10.672898506049243,-48.32154799656907,-46.76547585031088,-21.013289112761427,-20.932772763897127,-28.23205151687271,-19.74090634679654,-17.363877437800454,-22.83238869504576,-18.842091791122918,-13.840159397036729,-19.454695380402924,-25.157737921943955,-10.654315652500273,25.37070940872292,49.64732878305207,40.08781968882774,19.56686829145925,5.7806744955134555,-10.445364942468629,-29.518479492294965,-41.65232904144118,-40.15568413380676,-31.109001664465165,-33.7135719067944,-43.828531599546814,-45.862678448275716,-46.9487037466667,-59.50722190643657,-122.99251525094142,-183.4758912301604,40.30621076445095,520.4328814279554,592.0133758111887,45.01719970520862,-337.75066134139735,-173.70051315995258,-9.73970399183025,-75.88811493217989,-75.39413670939504,-11.312902901562062,-27.168601548488937,-33.40875069301118,-7.60935109862068,-22.694443936403218,-34.18982774231195,-13.823644493409995,-9.327716664203507,-17.1662897967215,-15.216408531279,-15.384493291343686,-19.690673837984356,-17.4258515533297,-7.467805563114407,0.9508533002402082,4.195508655824337,18.171664334498203,42.76537557317929,50.30867031204235,44.42813962030831,52.55348651846947,66.45073778376909,69.30798560360513,67.64723548523736,55.86776295133582,24.580935416234915,-3.1969033085270513,-7.906321038036443,-9.256513767222259,-28.743457538025922,-54.59255768363303,-64.81434897999776,-60.47555639309898,-54.70123333371372,-45.226772334975976,-30.63516630952755,-29.949515224304562,-45.946638887828954,-49.62770511729207,-32.58950145858127,-19.02466233433355,-15.655733835271377,-9.366025116119697,-2.877586340299402,-4.755624061469643,-9.020113176862445,-9.729991963355335,-8.353985536101792,-6.83214380737051,-10.721506863632733,-20.543437085891053,-24.00783991624595,-19.395634064401122,-18.854376380927985,-21.31950706972057,-19.922495301711116,-13.947164126493288,6.805858910473186,40.45501407605536,55.00210109597767,40.09538967645687,19.84230412480634,2.8291597700279354,-13.800360937013195,-22.73938946445039,-22.680528317442324,-19.004224928991967,-24.49600668560287,-46.82105622320436,-58.10863983773643,-47.75694330917544,-47.03843251974988,-66.67802038766648,-129.57674305270473,-176.66933802266914,56.07047168205601,508.2393559949289,534.5129083295666,-5.297430204465883,-337.85820439008165,-159.07795329875296,-13.362526314583228,-75.61740723744853,-58.70808401148975,3.0861245647704507,-22.265933146531687,-29.346268985951667,2.552059849247259,-1.1939955996638432,-4.276432809097626,6.723164295038434,-6.565150801816891,-15.938729503254232,-11.942038571684563,-30.056135758419707,-46.086716711596665,-31.11534678444447,-12.789029858105664,-0.14908712385992295,10.75502100802791,-0.4852904265009643,-13.035002899972934,11.323992113602799,37.39485538883461,32.59711259071206,35.264615982824395,53.15061947211673,50.585379508426804,42.53659379149241,51.10176531922995,46.21649597388081,17.874882243214742,-9.01459784343402,-34.40365366286571,-59.911555791082,-68.92777404537455,-67.55491918030056,-67.22678930183994,-58.24201571991453,-45.771023418710236,-41.307960263162414,-30.852315699829028,-12.603919812329359,-5.860282061578413,-5.880390355547849,0.24700805717825602,3.3215722119106417,-0.45305220732171136,-1.4705069687146235,1.0642078358788574,1.8804309556160774,-4.737500461991413,-19.87423974585294,-28.526902328712957,-22.654987380427787,-19.564092201368666,-25.784360884262195,-28.046673030248648,-27.284950924879773,-23.4844990845529,0.8718769170552925,35.561355542097154,46.109954656105174,33.77275517052577,19.89723236192973,4.157587678424623,-14.442019812927207,-29.728525744782132,-39.191198449666274,-36.29689783085982,-31.327331040057672,-40.31616338718316,-43.043233803833665,-34.48226417809291,-38.87569480898237,-65.93122703116825,-155.64705599194068,-212.83720138714347,88.39718031837356,613.1458324688662,592.8800096745342,-37.883591102932556,-367.772785007123,-150.2196951748294,-24.216512765958356,-111.47772507012317,-81.2748395090068,-8.05261541347457,-28.96805953917338,-27.532436851653095,-7.924875343516838,-38.322346104207384,-45.9249013236128,-17.12139008791272,-14.47020064881005,-22.428904082295038,-21.99154781159848,-30.30651869288362,-32.75785744748137,-20.054623688695592,-10.395706538253666,-5.815657781792176,-1.898082318568921,3.2021663196857864,19.495648458702927,40.30316526645811,50.19405067389907,57.90106136704719,66.24998049722119,59.28090241756108,49.6348893381485,60.28739245763634,71.31485932968951,59.083017801217956,34.879071742567746,2.81451874385246,-42.370854846138265,-76.56999679746565,-79.56508450875903,-70.19981582487223,-66.02100092652393,-63.56494716250135,-62.12419517007938,-58.227092610890026,-42.68888871179621,-23.097320472476355,-11.71527839794113,-5.463941734409872,-3.7410743063776835,-7.110067273386022,-2.414524055989844,8.178789251016184,3.6976387118393426,-9.013658751946075,-10.537986754130138,-11.404028799806024,-18.20768465259933,-17.367735274537672,-14.946345982104159,-19.467140219586437,-20.563525144790315,-23.2667129824611,-26.303652935654313,-0.9957734975068213,37.52370545504589,40.390988436270455,17.9929931630927,6.137451010105179,-2.2376601990125273,-20.98473721972715,-41.7108455536372,-48.01045317581898,-38.22869782912616,-37.091672832723155,-45.023493085775215,-40.664384289907005,-42.718997954422846,-58.44369569382031,-99.45844781311013,-185.66431588664187,-82.06593054247182,406.07070237758415,711.4250459291972,261.0497358350006,-319.2943676165547,-276.6688717155043,-32.30347958316453,-82.95740755751976,-138.2673665685699,-47.79368974113796,-32.675249044075855,-59.138898044406226,-24.72469367202592,-18.654316783823766,-38.28025077032536,-18.311005892470725,-7.03279430114511,-19.72795753206374,-10.257774868915448,1.784376659368128,-12.923202709536419,-27.191611297530784,-22.532308711423624,-13.416783533904955,-6.389948878094682,5.044283857281119,17.62649645601533,23.685679468691447,30.20199073855023,45.27718027166378,57.843545398011834,56.1202120543669,49.85554190438553,52.461836174979666,57.5586903107438,54.22151628009172,44.58348914893424,25.239952773599732,-12.525413327847891,-51.777676940643985,-68.5073053798746,-68.27008709706132,-63.70837684366418,-55.94455038433487,-47.634090089395244,-36.116389916831764,-21.071502335069773,-18.09485535290449,-24.278517750751234,-17.97829591051202,-6.864188889131242,-10.442255157607406,-20.943186278775578,-23.880250277065738,-17.131477061788104,-8.411295678089814,-10.922833119454818,-22.604453946842554,-27.58189116330783,-24.315881016897894,-21.610997120297483,-21.848632322105914,-23.5785890490815,-24.17724271975942,-19.771507327080396,-1.7276877656772545,34.34828724505177,64.63420532118504,60.654150168462834,31.06279118299906,-0.3477533720621011,-22.622724442075366,-33.8940766682954,-39.26772576516334,-36.807271070777674,-31.833009269298564,-50.68863788077063,-76.04530092761745,-68.02318861250703,-54.127549484186495,-67.4449673107989,-123.34500240041316,-195.60234401617708,-37.965313041717934,441.047083208688,645.0710283160139,165.01668518198713,-323.5455612869964,-237.8812340074901,-30.648141748480015,-71.14576736034897,-93.23957714567788,-27.21625674114567,-37.11790586143507,-52.327031068458695,-17.515817769985524,-18.33713386904536,-31.62439426649336,-15.102292563010836,-12.424063701432111,-19.105285150597595,-9.421760372007242,-7.414201428048109,-15.712310772975382,-16.40476320676369,-14.946018229817987,-11.933259441605388,-1.0711332800527984,12.775358809069262,25.65687348091119,35.76307374105229,44.98827976974126,56.929070179168086,59.28597517679304,47.66516441370614,43.63875960328676,48.91999030735677,43.97040332062765,33.21624298296582,24.422004890424585,7.3054142545211,-16.723286087320744,-40.20375103622189,-63.4799318420024,-74.41889545323592,-65.1198232118047,-54.60935581695149,-54.15388323524111,-50.752457323463325,-37.08871481409087,-20.788243493608803,-9.92383721557168,-5.365719739787387,-3.790445746148034,-4.94465103325966,-7.858874045714728,-6.934204249312934,-2.1874545685551112,0.46261763052405414,-3.225892600887189,-14.354988345767733,-23.23087972314239,-19.976906640555505,-15.626765401418858,-17.56879874559486,-15.060861359806083,-10.888950740383057,-6.423879158315312,16.606720728953928,45.891390897557514,50.532047232382894,39.09455069540047,19.48377782708975,-16.625901317982674,-41.23954464110454,-36.91984734485139,-31.26794455716534,-28.648350309489242,-29.302559919968452,-53.17183249106565,-72.04060998192776,-60.792121293805764,-53.4785451633657,-75.49377292073406,-147.15775116277126,-171.4728706799404,111.79952510388242,545.8990280083843,479.98314423239634,-75.93007992622319,-328.8924588421522,-122.75487354216341,-12.33371370247226,-76.9503093002528,-48.48633075002309,3.0013639766899445,-19.981480200186496,-16.855580811652406,7.551004134419536,-9.019218615747025,-28.518821176897553,-31.36735492028719,-34.85842837632423,-31.60248209654536,-28.184476794101812,-33.020939047810124,-30.73254058470811,-21.15491021430296,-14.23928920398837,-7.431586329930966,-1.3490943790118597,5.708789575689425,20.922893830668635,34.783092932697926,37.591156625462155,40.736148640135305,47.28611034587084,46.82860555199913,47.784497873219784,59.85867532629888,67.66447310376707,61.683328771902005,46.39732480628996,16.541301989684364,-19.610017219416356,-37.743414376343964,-45.70682571929219,-60.55089140426598,-64.00271514605006,-49.674971765995856,-41.329509775550235,-38.740851623576695,-30.164462532158062,-26.23360684784674,-25.81977570684026,-14.58571616030762,-1.9787610381744187,-0.7485784057942482,-3.8488743346141945,-3.207474626741245,4.53970151457116,12.275362747222207,-1.726883104517281,-33.03010602725509,-43.98833420001733,-28.888944088263848,-19.156194117928685,-21.60616223367682,-24.786788683889796,-31.381455579992846,-29.10171038326321,3.265865370491033,42.073305544145555,48.85371366521126,28.5760426680889,2.5810036737873965,-19.639351105930764,-31.589304111444555,-36.59220818220036,-35.203579603710764,-24.36431638137646,-25.676864219322322,-39.66281864969918,-35.88679467772672,-33.938173543339246,-59.693158027864506,-115.44089786594157,-206.19248073033086,-133.75247900101516,311.54955807104125,665.8120568781612,322.44040717466055,-257.65453127101114,-298.09040913563973,-59.698977291634,-56.128992768047034,-103.12264335032756,-30.74943320581501,-15.462008378687642,-42.907874696244185,-14.829430908368796,-7.8451117701701065,-29.619324631963046,-16.4756196587798,-3.0085577769129763,-11.32047075556613,-13.332595819311328,-16.3392527144196,-22.865575609636764,-18.5796808334091,-13.874516651887276,-12.487467925119422,-4.741367687149,4.109236528718089,13.839419270389342,33.3202885685798,53.108446998656596,57.54931450753695,50.51511007093433,44.9795557389681,44.49812575461672,47.97068597771947,55.33820866003731,59.80274028128263,52.60940642686653,32.39336515195334,0.4763389220853007,-31.67885456520252,-44.755548096853545,-43.24420459966362,-44.1448332234847,-45.177389438634464,-48.58705692248005,-60.59499629457457,-60.158770332812416,-39.31566371798999,-21.824223472547757,-11.034974291939847,-4.481280422697758,-15.65382944777501,-27.495576848189863,-19.491875477814368,-12.76374599125419,-12.82132409153127,-5.3912746456168925,-5.463463836709387,-15.125843725839616,-13.246668305161222,-9.64533076667675,-17.53975670331323,-27.870765101215774,-36.76269673992036,-27.529891492935317,10.048074029204443,32.46914511424474,16.4325295726515,1.1452070860323609,-1.7761381436962047,-15.826949040898562,-33.36184369806365,-37.145198707631735,-37.26652211648168,-47.901280314626284,-54.95229009240395,-44.13385676176814,-45.86801732053874,-68.95132036040488,-102.24648887557001,-192.18837555601112,-181.42869895918997,252.6344384430476,753.7200082293575,514.5803779901883,-196.31578537738176,-379.1538901032201,-90.12614863786023,-23.747426288137916,-112.55005154541224,-54.43905130358143,-11.06452008687937,-51.68440967185205,-34.53946701253588,-1.7430732459815061,-18.9529226735618,-25.93345399435245,-16.330720681093453,-20.457313382004365,-22.207267764398235,-17.151424732950375,-17.428816774828867,-20.92503520804351,-21.438732332668536,-14.51351546068902,-2.5167815028995246,10.483621791216905,25.22150916846162,35.33974228118427,39.96920753459324,50.86715227595797,64.23904983156086,69.5310774341811,70.40206829415281,65.44031454466085,53.54343300992748,46.66209594426071,41.578026171185634,25.569835432836513,2.9547203232334027,-24.58639056330788,-56.53033342584146,-71.859883307358,-60.518543649782856,-40.97724805988284,-28.654026886218393,-25.430792868006108,-26.25284898492533,-26.687541896714073,-31.714905551083884,-34.08850843625646,-15.826230895217552,3.779845510778383,-8.60808303250051,-34.082711883843125,-35.144323622596126,-19.026484433692605,-13.242636917059095,-21.08525657835252,-28.343949608034777,-28.22551240490222,-25.480412836239566,-24.3753664681666,-25.04463039657902,-22.438895028451462,-3.7751615217004044,28.55471533180844,46.193905604543154,36.2754108455613,17.17126689765464,3.1674067000585833,-6.973699031261603,-19.409760059175518,-33.066269752458666,-34.653750263113125,-30.636390326449778,-38.43213234794918,-43.344030504703795,-44.523006381310715,-60.616946351138864,-91.03412661975055,-172.35658798340606,-206.59603589166232,124.42633948354575,647.706508547479,586.0134466468232,-63.95752252550474,-367.36804611474315,-135.27963107411364,-18.774013776907296,-100.83912021450045,-64.98511821735494,-9.46306889431277,-46.75956816605481,-44.436430636006975,-11.206585731834949,-18.6754029012926,-16.316524137607985,-2.6271936295826848,-13.533530709518242,-18.83586802407363,-11.15669889713225,-11.316362490652061,-9.119411132942682,-3.132632060608742,-0.8781190156463858,6.8116143305629,18.10457529751265,29.26070595919569,46.356017216885306,52.74133648180912,35.071203981439474,22.696315930523596,34.69844827074442,47.30432324467099,47.32384516906979,45.714276121866604,40.26182696595334,23.80274901331127,4.497439966989461,-11.740416259364137,-27.200424261126052,-41.15619264568901,-55.10131779833154,-69.33806485050651,-71.22808311595833,-52.22238275245638,-25.38105541366293,-10.054849168354437,-11.638935453355437,-18.372582392425873,-17.34237658123799,-12.688498061701225,-10.145030495154973,-2.151700259737275,5.016642832621471,-5.819873718106379,-21.45841711319668,-19.62531895952799,-9.102266150160759,-3.3036524257092843,-4.586084286551568,-19.10241226676,-37.44113891647056,-38.97947174102728,-30.80441279295392,-27.732072464282297,-23.226339534218727,-12.685933759485138,4.618743824347462,31.215692771451288,47.21291189241826,35.306363197333766,16.415558842941234,5.276745690529669,-12.41505529367274,-33.600630709647746,-36.87134899008377,-27.047814172934395,-29.68215647622189,-42.87495510215239,-45.06603430474437,-46.57502185141007,-55.501349124618535,-69.59089624966576,-137.64343129180799,-159.52037897883002,151.14374261365504,594.836060245709,487.8107101156734,-97.76823488034215,-330.9631590402674,-108.29241124460617,-12.166111374512916,-90.69929081349854,-64.13234120168298,-12.417114407318678,-34.53041648265495,-30.562303090533888,0.20212013114863225,-1.6508086991040898,-12.398144254318417,-15.166281532024858,-16.95903270540148,-11.065396089786725,-2.4360650304101945,-5.433696836301959,-22.655242125729494,-33.43114797093586,-19.028903311271126,-2.7360004745254467,0.20355602621657065,12.848632307370016,24.841313646216367,13.902822037341812,10.521276482363808,27.312249805217075,33.5548040077287,33.762431227574595,45.04810592493686,50.79500689694969,47.69627972113582,46.78056364042451,37.59058022298398,17.184803135529833,-4.88451747309206,-34.11818667614696,-64.0000549455558,-69.82169164830452,-54.94157714537993,-41.88141663736582,-33.417709315373095,-26.03118119900949,-24.0116075459375,-24.7359430450984,-22.015037708217392,-15.965598898809638,-7.424348147939249,-0.19557486816626835,-2.5088751645137606,-12.63245196882788,-18.644262798487347,-15.956590857881775,-10.362187329913173,-9.241018373790464,-15.992465678553863,-24.474819537366727,-25.401990314598585,-21.490063774147117,-18.937988191423152,-15.91301281655402,-14.363685641838607,-10.280988587868384,14.72833787145975,46.277090127083625,43.38022981017018,19.27411070687714,11.785704789780876,2.281847003080099,-27.20856168995189,-43.78110138699002,-33.857678055849235,-25.197498270634075,-32.15622098790277,-38.258301005028486,-31.974086822226614,-30.579482192761045,-48.287732815426345,-106.56810314784092,-200.68868312057714,-110.2229300101188,332.29236340394414,641.5119764599817,276.73354760480845,-274.84121316364235,-290.8181949008833,-50.92582536804372,-47.49954348651557,-98.43547558129706,-34.16489418569836,-20.21317134857457,-47.14989513532615,-17.859341754427213,-6.662865974438887,-30.80835052115652,-20.157567527231265,-1.0899100556196029,-10.899610534129888,-15.068548962820374,-4.9211786535980835,-8.786960504741389,-21.5728789619385,-18.402087963304915,-2.169272064233827,8.961715649020345,10.978427896978205,8.077944422124922,7.625753873484543,19.888002884606394,38.02787933762151,44.790842596058624,41.86538777709613,40.51030219785297,45.053633159384525,54.32825123458275,54.64343933116262,37.00259197001414,17.47963147924606,0.12315097233422456,-31.520913903488896,-62.690420134745665,-65.85286059632237,-56.39656739752622,-56.66974623198237,-54.42273363994978,-41.457363628235534,-31.9994664263385,-29.502309969035508,-23.883880410019852,-13.486867163623621,-2.700479865455854,3.802874825692715,-1.3153998102237878,-13.474017738136066,-14.853139873319016,-7.346616227617449,-9.527524651689191,-16.28273879802016,-12.74357969875797,-10.166136962469078,-20.122707844932876,-27.53325754891538,-21.329778574721338,-17.48485095624971,-28.493281759316115,-32.37318559035736,-4.692184239466508,32.15141251797983,38.98691879831341,18.36475354390039,-2.1162714827880436,-11.195320791219082,-17.552483675308007,-32.37119423785837,-43.78633228314392,-37.3877688720946,-34.62357429619343,-44.378394488669066,-46.94121389340921,-49.39691585520405,-57.19400001645616,-97.88946391909475,-188.9022879873055,-68.60559913508415,453.21043489485504,761.4297337222707,267.1240722803492,-352.58807515484284,-305.26900081456336,-40.255192262792406,-86.94994880303166,-144.59542642000335,-52.18509762086036,-37.64964274307036,-62.168085504542745,-18.515993377386504,-12.196434075130277,-47.18228670357263,-37.12611904288928,-17.807446182123055,-21.61622370658168,-18.50869485714925,-16.617805821889505,-26.7245541546204,-27.183227675785773,-16.661388131973496,-8.609441638313307,-1.4388629547562788,8.48591624350902,20.207195875199556,33.90772433285861,48.350364772461525,59.88917567223947,65.25960076670233,66.0916186427961,66.29606385673439,62.76838411210875,54.78148428914764,50.47468106489856,43.66634730789839,18.771781709193025,-15.428101892228018,-42.35464582252522,-62.71279282556347,-70.2793519211242,-56.67389935450802,-42.57255780952224,-44.01001034891251,-41.55222563081804,-28.245838294002436,-26.984720152443927,-36.96825318091586,-33.27873614568968,-19.86866715079158,-17.080048694078943,-17.650379288315314,-8.333146082647389,0.5070188063448313,-1.0397694963420143,-7.278927329374778,-12.235874923429673,-13.836295203560375,-14.105657047048972,-17.499287339363118,-19.011254891893852,-14.299847901067078,-9.09454551786056,5.411442309485185,38.33921487337202,58.64006064333074,42.46501042102287,20.589397997546893,10.665339870446203,-13.950819723272666,-49.76853973601434,-57.10124367911624,-36.62166436871435,-28.082540109669075,-38.141183654790574,-45.725628467465555,-59.14012722398291,-78.10718706038888,-96.26405242883507,-174.31961938611443,-209.53537568748382,129.92902679954705,655.4033290671716,584.5622385038015,-73.82352137871126,-379.6852768032026,-138.73878254902857,-12.079083517816258,-101.33004803948509,-74.14019831613852,-12.870988685892968,-47.77703089108766,-44.57580585945108,2.8635867857531316,1.7067821652760742,-8.169181072071899,-1.8784267929309202,-15.225067353955087,-28.59353251720855,-20.18516773432472,-13.258561935541637,-17.813420139284542,-22.416611835015775,-20.69969183648549,-12.370071902755473,2.240477465720126,20.85665701366141,35.003084307139176,41.6054724996454,50.458094262415344,62.67564968508411,67.37425636050814,62.479916335218206,53.408615592089774,47.134059008556044,48.59687424164447,45.738356700021825,26.512709703913234,3.1590713296394397,-18.61737656831136,-47.73785583259843,-67.49395062820027,-60.91560390818731,-50.43700187283401,-47.80135791457688,-36.599609109822836,-25.47062858200293,-27.933058454176077,-25.364869605852324,-13.331069621320854,-8.305859650112478,-5.141933803970911,-1.241142103805693,-7.599802824269332,-10.379662007741175,1.6925080055867667,9.767636161312838,9.05006943343771,4.491391882837025,-14.247717930339249,-33.20112870474439,-29.3957238164857,-20.976141493303338,-20.060498803258852,-14.853121643880673,-18.793093587818873,-27.016550416602932,2.0229837817793257,46.78282446639477,45.232651659089456,11.41775019822296,-7.5429011417813285,-15.649734298181578,-30.459752156257945,-42.968747210379945,-39.526993973284604,-31.82246123121463,-39.54038509750177,-45.2560237747047,-36.205849850750816,-39.62151670092459,-64.81986879713249,-133.1957077560907,-199.96645673795524,11.04346487374228,505.4108684512689,617.237576117669,75.51203202411146,-342.93100193749217,-191.45980950104516,-10.839325848157763,-75.65999987983966,-81.08122343719064,-9.28273132083114,-25.139218342005165,-37.733889994903365,0.352506782321667,-3.275464460255712,-27.586335693730696,-21.917938881665968,-18.06080841361112,-22.98801911829716,-18.457650298183307,-17.610045426612682,-23.08913298908031,-19.75374048264011,-12.354476609080926,-8.05072115550877,2.688470226346717,17.960691490663127,24.373815025053027,29.460411801364632,42.66716067571138,47.5371808522684,39.01207984397769,38.92199388263586,49.39063787645904,52.19220507606626,50.249266485717115,52.70425551476143,44.809784669385905,16.685271081239996,-13.690488348256107,-33.92461692727217,-51.42041502368241,-62.68639291991451,-57.26885949427249,-46.9174641434877,-44.51855651412576,-39.76436257527473,-26.854468806168086,-16.04464500559019,-8.607924315368635,1.5113574518529482,7.8877441751181046,-1.500432538717174,-21.415828984762026,-29.88072141896966,-20.666233615048323,-10.757110981308863,-7.385252017587693,-7.756791440872288,-13.69613768316297,-13.812299195742156,-2.8835471103281414,-4.040831260414421,-16.182328608180132,-18.039215837515208,-25.320990877067025,-35.18640884387141,-5.555021143383678,40.91639160880787,46.707342822230416,25.0345085311718,3.312744960631683,-21.869349516957058,-37.220056559967155,-37.34116782992774,-34.82742446606727,-26.951563287857546,-25.902955146963237,-37.853759895743906,-38.58468791248094,-42.36032208570762,-66.81878385293007,-111.80244130591437,-191.14822536279593,-120.37832488116265,304.0872820023992,634.3369357340026,295.68282510509613,-255.21055039619355,-283.3973922606996,-50.880852574039025,-43.213987720176604,-86.4697816954318,-22.062422623022627,-11.79782731249108,-46.66144574017155,-30.18983801306461,-17.22538011737408,-26.63852623201899,-18.505778730414868,-11.264967270548208,-16.29671855176723,-19.632284756701416,-24.656032341078628,-24.82195702208724,-15.143040317180969,-11.333297249268727,-12.448032207911194,-6.790757109527676,0.3800923915397725,7.966189824508494,23.71802429083461,40.32819124958294,46.658930729489924,47.746815238445095,50.175927806808595,52.34256817167487,57.28375213451909,67.33493466863595,71.71608447391912,61.380095522579325,37.459419190906104,2.5493059716792965,-30.586849935929582,-45.424074459321744,-49.19960987589137,-53.24764332092937,-52.23934870194753,-55.26875137028516,-69.74317246288929,-66.48758009741377,-39.228116347458794,-22.971666762009253,-16.502032729824,-3.964402064144508,-9.4830604773028,-29.285614869273086,-25.712649820408423,-13.069587789396493,-15.423718386894162,-10.23591464041401,-0.4210668545058347,-13.349099601545465,-26.116163632956642,-15.228684973177756,-10.20993695572377,-26.61707500018875,-41.2321876741797,-41.580288426885176,-26.0026491847185,6.9411186032496826,36.318607030656835,38.68984950546124,22.926104633966027,7.055155730914251,-7.587217175687613,-23.217845941050996,-34.22237894813291,-36.26122380829351,-41.20336871519855,-55.84740614427447,-59.53517407140091,-55.82231238762182,-66.18825322623786,-79.89237049072257,-140.89400630397802,-213.20854283003507,38.502987428577086,605.9618330917218,700.4446813338939,56.86528701802767,-398.429631539282,-207.80023535091664,-21.25869568165782,-106.95002015365486,-104.28062259005739,-19.568871076193304,-31.275875270567226,-36.54520665421971,-7.587247617443747,-23.556628001622045,-30.698673117979105,-8.232590314160555,-9.875302831736304,-15.500793028618252,-10.225584404443136,-19.710669508824484,-25.183261445794805,-13.574949568070014,-7.656870068353085,-4.981934994529978,1.8207871068396364,3.265225100392832,11.529197272911397,37.056918416662526,57.38699249258775,63.258474170852985,68.7223900023871,67.11952677762483,50.19658997863207,41.51010294032211,53.22357555678465,61.998430729044,52.092884837258126,22.663784047393705,-27.762723147220907,-73.6009868735081,-79.60634975016566,-64.90266526024865,-65.96561834828319,-68.07229071926398,-55.81786903611553,-50.87290230274791,-50.67649786990452,-32.28472050436075,-10.079212388082567,-4.349032716271942,-6.447310274817301,-10.208905971106851,-13.712667089295888,-8.606006214469843,-2.9079892909770813,-9.646862546421747,-21.605823804561986,-31.15104806701438,-38.486011694268896,-38.022520297959005,-32.28132847824381,-32.24088394642556,-27.216340602503017,1.8264113336781502,39.12905818332139,50.182826569539934,31.973952337960462,10.45673200986744,0.5025307679682385,-8.174138273678775,-26.545120865493413,-39.70943504788281,-36.53655537180722,-42.091561486444355,-56.985643378277885,-48.05868165648438,-37.9319447142378,-55.4388733737978,-94.47571795737429,-187.14142178014103,-181.66019510344125,232.61460680940723,729.7989441623434,524.3522661734492,-167.91063795893336,-376.55898148307335,-99.31457534530836,-13.31371503837341,-106.42246582697183,-74.25013533655158,-31.54337516862195,-58.44536070632833,-41.86241904303552,-10.279581288277285,-16.909985683169268,-17.265130167972153,-13.075987239572818,-20.83386066981631,-16.7102328989861,-5.6840977163837465,-5.005741789824348,-9.498707064403993,-12.449474991228755,-5.998042139889333,8.116923865255412,20.595463339314072,39.13167039913512,57.28317442653199,51.84067499422089,36.23899679029528,29.454722481285415,22.37148333604938,28.32019956506259,54.99583605906277,57.72149957598635,28.741615224087568,16.41801641954277,17.801544574498678,-0.20305554173289053,-25.06907869519169,-46.63957402940069,-71.81502252833323,-77.9181571056152,-54.936201163250445,-33.94668706288134,-27.229337475972923,-24.038180550553186,-26.734123855097028,-31.145578066486376,-23.620010123667555,-11.627945752311192,-9.184981062517206,-13.051252633823584,-16.064430426706537,-15.276079431551707,-10.512883914046476,-8.666744371859775,-12.648261967443975,-16.00006673721262,-20.213067272232315,-28.35826023748532,-29.402730769476378,-20.320633913734763,-9.774493317249242,10.296484059914729,41.03306009736292,51.18742933499958,30.574330659629737,10.357478654360808,4.381046672657439,-3.2245513240797194,-20.790607744515235,-40.027595984937435,-49.56353733712285,-50.67630301715168,-48.05398635124098,-40.420366319996525,-42.50988454297229,-59.01032564331652,-91.94213233258053,-177.29845559286838,-167.78034205672225,215.50107809549704,664.6231930009837,467.8472885193656,-163.26648534614702,-339.21644268304294,-78.50661371298564,-12.31824465958885,-101.60140493368672,-51.311015688100326,1.5258921776330112,-32.85481242642379,-25.743390898539072,6.538271152452786,3.4580598639635802,1.1137640962590414,-8.877370488492936,-40.77627143930566,-50.63805600679815,-37.669244687041854,-32.5075349282884,-26.161685415959237,-12.535580733420604,-7.304816198387691,-8.143190981845418,-2.8252357499247855,9.357640419568545,28.49441739052297,48.96919802597103,50.276346128531756,31.4188905277566,22.581310696015166,33.46214762202803,45.59509949616942,56.57226251197149,64.11344564581519,45.79249421000203,8.130493119903191,-15.271462716402883,-26.752613840246692,-46.08698061552404,-62.2903357503651,-63.45210503747809,-57.31672101493185,-45.524261377364056,-30.072874933831173,-20.49026120455978,-13.790313032260734,-8.833054254144272,-15.13221208149643,-21.74037277584606,-13.867913898208457,-4.690277276221284,-1.917431390722296,0.6064532406278289,-6.703246095415203,-23.20342514795826,-28.288785400581915,-24.571605737155146,-25.217508251320346,-25.16477648965014,-25.369107422470087,-29.124730965975395,-19.652053345317015,12.34360323079959,46.957304504138136,56.00989738161668,32.754311286157616,2.7663148537396793,-10.145803135811295,-16.66103183660865,-28.44405031579487,-31.497109605919636,-26.693136671519436,-35.84057007352995,-47.169192321185605,-38.48027665116153,-30.70878982339422,-33.29562606783883,-59.75253659557182,-157.5580371006141,-155.96161563832433,215.434791251888,605.3130566500428,366.08259116704977,-203.55793536740933,-305.5729972381469,-58.9304284664979,-16.56863096827506,-88.243830420157,-41.63397627255024,-4.309823374751254,-24.90057188146162,-22.56153887568349,-26.41037324798327,-35.87108423970347,-11.901443226500401,2.767401099969586,-7.3006208852287315,-13.74732367328085,-28.68785409310059,-42.55410769446111,-27.556724198105684,-11.004027392452448,-13.881329394199826,-15.212701249306862,-10.147438301329885,-2.937083149221518,11.5305733770571,23.95570069544255,28.696125759771142,35.705102962663034,42.14602236456528,44.67989714890528,53.325890742513195,62.89824421247006,61.56761212343266,53.920703198341855,36.93580110889517,1.6177291426105036,-36.67303024171518,-58.792149943761245,-64.92757058415252,-58.61696651041088,-47.73292558711873,-44.609120039468806,-42.450275402296036,-28.85189350192187,-13.385066295119664,-6.349255878917553,-3.1490367935907564,-4.399458581055793,-12.853337654297356,-19.604262397315484,-19.683329183605103,-17.867746844385618,-15.058210058602405,-12.615012329110876,-15.663675277517672,-21.73360960978081,-24.96388260966303,-24.266212508982296,-18.85758590837772,-8.0050393104355,10.693566098145496,36.792833002012124,50.1348209024836,32.110166916005966,2.872475990269592,-7.591455826055512,-8.056453871472698,-27.156260922895967,-58.730949842854315,-65.78055639082939,-49.503651050106185,-45.092048811610184,-47.559070479023625,-43.516234751577656,-46.77281794827773,-60.58494874623854,-127.9163603894941,-203.8292417421386,22.719535687013035,541.6930044991922,638.7137820713859,62.46053836238586,-365.60252314658044,-205.6703042054555,-17.631654986310558,-84.09592581775809,-103.44567119265807,-38.02321135165141,-42.84574265740553,-48.89669157551144,-11.046806011460482,-9.071141059060054,-32.010647161036076,-29.76260041747294,-19.50328033613787,-16.82465690431852,-13.983108415814122,-13.774689500862,-19.229525149951453,-25.169356122294985,-26.292547004487563,-19.636171491952766,-8.010205302283111,2.823635007448462,14.055594424830302,27.4132797417505,36.760326679746996,42.27759437560046,48.90572500364985,48.9105182869623,43.33000404969035,50.72120532498442,64.57662485189317,60.38491279879084,40.76263429570831,14.024236171402201,-25.21805363041619,-61.36046925728172,-70.59100782904119,-63.5677076409737,-59.59184245056938,-51.136732604186285,-30.878981442353545,-14.744253534486361,-12.534663494312404,-9.290222746910256,5.847886109254249,21.982455581078128,23.95438949359641,6.837477845849676,-16.24568947604438,-25.77656333866847,-29.643134726954393,-42.79003751441558,-46.34431032369269,-33.82548856950728,-36.014573359707775,-49.97196973174055,-44.16575311414768,-26.110040684340255,-6.598787360633068,26.667650648271138,50.12152129151468,33.82738025188317,9.234104697011515,6.637784536571866,2.2360759987160534,-17.16518364642695,-30.20123913546627,-36.261044787518045,-52.947491044251855,-65.12475264550464,-56.23942614490856,-51.17415566437825,-55.89544512759641,-89.79097616469335,-211.5055518310794,-211.52316683452557,246.28669965123018,748.9595940829224,488.8981201481146,-216.7421116187455,-382.69420246596127,-99.88399082095204,-45.396042013276066,-132.7102248958553,-66.58852130138884,-14.247135824483962,-54.254867003270874,-48.69717782330655,-19.400306432199677,-23.32825964671781,-18.738230068551047,-6.519665098629069,-12.147795227359424,-22.85998052564434,-27.098018192233305,-22.197784957438348,-14.634909795239695,-13.464085539325545,-10.248447120829633,-4.153882247145935,-1.6072367494830744,9.68285253626323,30.24829518732365,41.9718555199002,45.77752547561893,50.248216079607275,52.65496717779702,55.52148143810139,64.24877516643582,73.72089290044805,74.17533127811676,61.23967506502383,36.66786687852266,-2.3584875962793266,-53.48315197605217,-87.2476105108142,-85.93646561567775,-78.71735205272324,-81.02883511262593,-69.04332597220065,-43.64725923289361,-27.17382535814718,-14.97489719167804,-1.3480907674263953,2.0727841348843725,-2.0903017593721565,-1.2193989315428873,6.521927405735449,15.009269728093084,11.305697970258718,-8.383932632352785,-24.387132434400268,-26.14663761841161,-28.107959922633302,-34.52155876042026,-34.4382579050296,-25.769865556269302,-5.556648662099294,30.749167720791057,59.526322250042284,52.573285664166676,28.234454538067645,14.603908233326727,-3.8903391638741844,-35.76973429215505,-47.685934562749736,-38.43117252401015,-46.38232928115073,-59.76807277653257,-54.1285846430233,-66.52318495497039,-93.25529492727696,-105.60792213254665,-181.50748155066205,-218.95014208320083,135.67827088113853,661.1104129048141,560.8939206976803,-96.03142348206427,-369.41076311426593,-128.00142230197238,-19.28412845201128,-104.85535353033805,-74.60943783403575,-19.839522571011322,-49.481214421782575,-42.50888618678576,-6.598246800160041,-14.639289579195232,-19.94127254194133,-9.178058289210739,-14.785949233918556,-14.238429731216918,-1.1423474997328817,-3.4079582072492105,-12.175368051215761,-7.860651511872831,0.9202999217024344,2.6248491563148417,-1.204293832381726,-0.9698645077814572,9.376769482933918,21.884432506057642,28.373568992066613,31.658378929623744,35.91490857369961,45.09165014490816,57.55395882938653,58.91684007879432,47.711565272984245,40.23033449756561,31.1034655238463,4.599142846024751,-26.364649230417644,-48.352643758843605,-66.83787882002835,-73.17275022031028,-57.81463644984112,-38.04295296634081,-25.62858518404405,-15.889216621706751,-11.441590694665043,-8.180124879903856,5.053737277205135,17.561664175341704,17.251154021579605,12.676108483655165,7.653169461156292,2.043220033725227,2.533860362837359,1.4124013666646107,-10.555837812836636,-23.127369425674754,-33.018438024938774,-41.43456269119068,-36.931251377177006,-21.844015930364847,-0.827299462411685,34.35033371834393,55.03906679031562,27.47732395439357,