ECG,9.0123005985946,58.80661774464829,105.37095530124031,135.32502563822007,134.53200823906573,100.24095555855543,47.553750372565815,-1.2467166209651297,-41.386534971377024,-74.22887871950309,-85.6910943011134,-79.54536112120076,-82.28101094810164,-84.76862257523467,-62.42860558478857,-37.775381030672534,-33.20514593550911,-27.45352283749204,-14.520323214503318,-12.900883584780889,-13.711430522365578,-2.497218308019985,6.242498535436475,4.4427778175336705,5.8469691035473685,11.082670160882799,7.2845352371319265,-0.05313778233896471,4.472689022393562,13.924163323083437,10.805263704853367,-0.3075650810333457,-4.374191249905988,-2.3842769642924377,-1.7727504548692608,-4.047563713409481,-10.198409180834215,-16.101229530720893,-14.74348475519029,-12.522089597986819,-15.858417902874281,-14.513511043852349,-7.749085885873132,-10.214698591382888,-15.67435561675449,-7.8408002946073845,1.3147316688242139,-1.728966654424081,-4.074240685598683,-2.0100384806457257,-5.6453304927915,-5.921085585464892,0.7969170319937708,-2.703120555948507,-8.04781415552052,2.7775110746693104,7.528765390082356,-7.154572230389574,-12.194934886054098,-1.2898826336273084,1.5111409839506145,-4.554392816968425,-7.5300866729192295,-6.303844847449156,-1.8445345566327047,1.5364209432688591,4.516559701346482,15.239858719165156,26.08318766448703,25.452990734795918,16.671041022784223,1.2559626951493348,-18.009417359738336,-32.6872816696332,-42.97866990410221,-48.66581204196853,-53.64946470941255,-68.03425881568522,-81.85378828046589,-99.48128734030374,-149.51699496755631,-187.85129439266834,-87.34004024388088,230.51255684844296,612.995505468033,661.559285162856,234.7370171652936,-186.58390279595585,-198.14857953334132,-74.20578270859173,-106.95240654619963,-135.52665014985897,-74.69069104654645,-59.772593901242516,-75.02605349197304,-47.91684071984437,-29.041386386680887,-29.859664636841906,-11.525030569163457,1.7367741934348402,-5.042243255351149,-4.933528079276677,-1.6889438036590718,-7.392745734253143,-10.050928100047585,-12.53111727091959,-24.421759468161273,-32.33925213615837,-31.631571062535073,-36.99388349607159,-44.05629342009078,-35.56215971409635,-16.643308791791203,-0.9060218001311302,18.335599717208684,51.849872069219735,89.3470003892346,118.11805934567992,144.72333860158267,168.83437544904024,167.17026881488658,128.19048737062644,68.52297721600735,9.395145458088248,-39.017351901348924,-77.18222808280896,-104.17233429765548,-110.39166751812269,-97.28272936054144,-80.64040320091088,-65.67365327958689,-50.94377399487969,-40.68428951412662,-32.18625868477677,-21.391399186444346,-13.690939382709878,-7.689520806092876,-0.25932076427818984,-2.694819900055272,-13.586491602950217,-10.24400028048301,6.476111014399559,12.57507517841542,8.307609619068646,8.036846127942335,6.9875592642270306,0.8813062373161964,-1.5355461720437251,0.7019181861799026,3.714736977284686,6.627265123302476,3.107564901492583,-6.842236408766253,-10.132885321779932,-3.5012910412095914,2.5945161415367757,1.4536806646998244,-5.781489495351906,-11.859849946229495,-10.092883921489136,-4.375214181878252,-0.1575420047282341,3.1773542692092906,0.31586716724824093,-13.387166328574231,-24.06191989515532,-19.978332036248773,-12.32464415029381,-7.124893025172613,6.217539021300996,21.57465929494585,21.95788706321658,14.159740856516038,8.90816535104252,-3.9858678860791503,-27.648393897303407,-45.153236172757005,-49.71257484424618,-56.11559958156043,-69.92186326837856,-75.80258542045337,-82.87261888296518,-124.28171468245498,-176.54417459227406,-144.62985198843057,72.80863317247514,452.3491406065867,680.4114617647633,426.478771758914,-60.75742803401732,-228.7874687621874,-101.10011991606186,-72.69604719865505,-131.36611257036154,-92.46309686899473,-50.310369800759,-69.96616158115305,-52.46735095553801,-16.365940068342802,-24.878899604618802,-26.754224271618913,-5.857656089443632,-7.28308692962883,-13.404180656084089,-1.6383414855697573,-0.7508052086018093,-11.414134485858767,-12.082011765640967,-15.88723907746995,-27.637271205476672,-28.6352124077409,-27.991046239386655,-36.36141182047883,-32.021539001728456,-12.675433958283115,3.325133911391273,25.480374391253804,59.12737994333634,86.9885613337981,115.78382996326597,152.66923781469455,169.34805173655775,155.07165457708314,125.56392164702801,75.44889677837956,6.774700276499029,-47.94371684843247,-79.38570166589281,-102.874956580955,-112.34485120348579,-98.56819303171952,-75.676807188546,-57.28423905224449,-44.119745479725275,-32.92857497679853,-19.628300510958383,-8.744897780591426,-7.82747414148314,-6.998799148603521,2.0360553352000252,3.8333565110275245,-7.762749014477862,-12.79816380655809,-3.089493466419512,6.281560501620703,5.256137939729669,-3.0463578964942535,-12.242956840685652,-15.328946623970154,-8.97225900811494,-0.16981201173661375,0.9730512810933032,-4.760192538310676,-9.499799718940025,-11.264863530962675,-11.637879328913167,-10.112893235759621,-7.179471488098203,-4.9144504192923435,-5.899391522335158,-10.054900897533987,-11.267564623525832,-7.797603440086339,-5.884653808015754,-4.847913468087677,-1.3288742305381707,-2.091461919691154,-8.72404871982256,-10.46247592784498,-5.302521495389843,-3.0760219093412022,-5.6383516058880545,-4.921948582571011,-0.6086187311776996,-1.7892888228237993,-7.722579827131391,-9.04189017025535,-7.5004849555104895,-6.10313196886624,3.297349968774283,18.272496888944648,25.608378817131154,24.104365884948216,14.928024625105868,-3.6870991821565466,-23.113820669481534,-36.83900689345796,-48.27879428040819,-60.78308187610525,-74.0990530463259,-80.0293121040145,-89.25456617595002,-135.7443724204618,-191.6541751360126,-153.59795428516708,69.83654078255833,457.6564998378357,719.719411470205,494.88820736343797,-19.752210531333972,-233.95141740493648,-110.51612347913924,-69.8264142364425,-141.32092636553386,-120.09367434206105,-71.96539069608718,-78.58461498234641,-63.997212755671335,-30.159088192813435,-26.828995384392268,-27.495815008695992,-13.92505724324183,-2.260989504737749,1.3101648341348344,-3.3123511530127807,-6.649812696410965,-5.870336625683752,-14.199571267450178,-22.658802076108373,-19.21974260158111,-22.685619503980377,-34.7625702035536,-32.22310870626827,-21.335318082520022,-18.566741253347153,-9.425442800094803,19.028486987451252,52.86686354623261,79.23381980869368,102.99686134139134,130.03513961261015,149.80106397554104,145.8258738222085,119.23863208888235,79.73971844349443,26.788705099372763,-32.438038995825764,-75.92819461764029,-95.53611648909488,-98.6121297012125,-89.71052077911568,-76.85315338253382,-67.88052640544025,-56.857555481933794,-40.27560928995926,-24.494018927786875,-10.613592403215595,-1.6773486148365855,-3.4860479710628347,-5.3058569788565535,1.5496045386693904,4.678902865457967,2.882211325645523,9.314023424042414,14.642475998961771,5.759882997811905,-2.3780691568387784,0.0769351669367655,0.460178671914905,-2.621345126643366,-2.352340641194637,-5.7076266928142925,-11.530658719598724,-7.220351450184723,-0.11158182949849405,-3.0667127852855103,-6.695783836650428,-3.9583123672351164,-5.015952375253468,-11.16460274515627,-12.66551221182632,-10.82986973122598,-13.631578286428203,-17.026370417335645,-11.37872973100275,-1.449190266378789,0.9742330024068053,-0.8130208354805166,1.591213341274976,2.3767942168498966,-3.8804916318822684,-8.324777279293052,-4.225113320636876,1.445760868249785,-0.34062994965153237,-7.3114922864517435,-9.93261886322405,-6.991014074882148,-5.687257370433596,-7.191065227635512,-7.1893340796631495,-5.914994316394148,-6.173419459092562,-6.936377817626079,-5.031293343622101,-2.708285911111231,-4.616738311211405,-5.255095498801021,-0.1823220177021465,-1.0280663657604485,-9.738855215993798,-9.334804121999722,-1.395675180565334,-2.159597854049929,-6.755731408613707,-6.237397885339416,-6.940638528796118,-8.73529954698633,-6.806089360099573,-7.287387515413938,-11.0380438810961,-8.175840047813917,2.669928384654142,14.685466846679754,24.807970790156194,28.669438072078076,19.256404569165504,1.5338444837714862,-14.408479831304945,-31.81877282573865,-49.618341189827674,-60.39277288117912,-75.59558487637861,-92.54448877931799,-95.41019453900273,-124.58271688164609,-201.93230484744586,-222.7387908288638,-48.84554151945932,350.4663985577227,750.4488362990846,711.6997223542805,192.5437787639983,-206.5871572111663,-166.337017878283,-76.4261031979876,-153.17821294329943,-166.44966208908036,-91.99904126870184,-84.11754949760358,-91.3284820639026,-50.51854213898081,-24.41826991640088,-21.04561106508321,-10.240762588427993,-4.731283710958614,-4.276372358080977,2.7109071059857275,7.303843192967552,3.1946000278602398,-7.165096341190473,-17.580793366851474,-22.277191570101348,-25.948952800900415,-28.65855189841948,-26.010300860175892,-29.080086005436026,-37.718446888856654,-29.132767432223755,-3.1131973596142455,22.36154718595769,48.416221956837894,75.74594126758429,96.5903009627028,118.74919611729825,140.4792644029894,135.96764954364056,101.47820568751291,56.786502729380665,6.945881464152286,-42.05027168212516,-71.74270325577574,-82.82951431562375,-87.33202100801401,-83.36110822472916,-72.71183998701083,-61.54330372409511,-43.46466583188552,-22.03169669161785,-13.152048879345514,-11.798394476358919,-5.851835321337903,-0.5462949965652601,2.2805223329515716,6.74598409701651,6.7176000426802585,1.1685614630344077,-0.6479479434172717,1.5672094197507551,1.8780055537662683,-0.4037126334041421,-2.6037812705707353,-1.2955083215472811,1.6122890191450363,-0.2503633072150784,-3.0991247429888205,-0.2262385749007425,1.0513877823939772,-3.1763769572145932,-3.2180533170534957,-1.765521550281667,-10.402183554563816,-19.970623311852343,-16.175351314245454,-5.446981684629172,0.8412424529194915,-0.9567091451844512,-8.123238720085201,-7.048844332088167,4.803351377336391,5.606016003384913,-6.206213722523352,-6.08399339824546,2.0424282849642372,-1.1148138150930205,-6.797439201195129,-5.941877163860259,-3.679442532037708,2.095152714956151,3.8937187733808223,-8.826577552993562,-17.494113977101527,-10.522244653016173,-5.3422025757459615,-4.86215828103435,-2.90841600080919,-8.436808019617889,-17.173529355992216,-15.76379637106567,-10.278989744303624,-6.144422581917592,-0.709719644902485,-0.9703924613366386,-7.759743060045249,-8.598832339150768,-2.296151980196395,0.3007069360828183,-3.872046366849279,-7.093668462515433,-3.744140762893238,0.3042791648474754,-1.9751455423158193,-5.834248241780688,-4.504257624397585,-0.7893630360927277,0.45691736707639485,1.3971696016819433,5.759928764152991,11.080467579101638,16.399584656749518,23.385151599276146,19.98335115550273,-2.6947561705515373,-25.184073293686495,-34.4810570029505,-41.85051927880147,-51.06907671647927,-64.69189015792078,-81.57610143424534,-86.06870111837623,-106.11384840304214,-174.40616870501125,-208.41898179589478,-77.49860665918014,261.60683305639503,655.1054446332583,708.0514553820499,260.8350584297966,-182.57505550719145,-190.80853210995366,-72.71521051572257,-130.06907810354735,-160.4590434026458,-86.36301471568552,-72.74481143706734,-85.84028795695197,-45.397548850949825,-21.277868627364835,-22.47959518390411,-5.437149386195857,1.1515806053706097,-9.478637444239554,-8.682134771484847,-7.0350167947910105,-11.578939307022104,-8.44064742215711,-4.613269707975549,-10.092181427720856,-19.404929445640377,-28.98485966686308,-35.77957431523153,-35.18125858622386,-29.78607620369573,-19.320013259173507,2.4981876515688466,28.011213346958804,44.74113236902426,64.01272252770352,98.67486561641208,132.6020128812733,150.0404176372371,151.83356735774962,128.73901659426463,76.73261510094414,19.48983106219474,-28.77674814988722,-71.75983587165913,-96.62138797779131,-97.07310777445343,-94.76459490999014,-91.44068694908245,-69.94411368631904,-46.245618639891674,-40.548697412561154,-37.02849931993567,-26.345312809088018,-19.746047644465712,-12.850701337196828,-0.7243617743583286,3.5019154077420502,-0.15770931794390108,3.1872327943912033,12.293682893789377,14.114496081067664,6.980621307273766,1.4588499234016332,3.124823319088235,5.167614631160204,3.5109262999521995,1.6074374132405715,-2.714974644370468,-10.250923009706613,-12.865237138008775,-11.812283973761259,-15.106128438832988,-16.891714205190755,-12.732790877365218,-12.839141704902872,-15.420130202829071,-7.113134063357492,2.4691272880897515,-3.086820309551694,-9.583824514473752,-2.5110135624418994,0.9592878380563281,-7.310620793389518,-9.102769327384806,-4.372306072587913,-8.536007783092128,-14.272090739310087,-11.06359840849504,-5.921403585248573,-0.3609888787029387,4.300240533097914,-3.3463768204251014,-14.38808615507942,-10.88269552145421,-5.225349176929393,-7.501742024328022,1.0266179103450832,22.255483493192262,34.42734636381185,30.70621594059974,17.954487661311667,4.720180970305646,-7.698787947751086,-31.787193384975758,-58.40481495555086,-62.73998317715426,-61.117204812075485,-72.66592929790467,-85.25277778188732,-118.4444296940972,-182.48152543725848,-186.6977475468815,-1.8311049683510419,383.13354383580435,692.6190956860202,534.4921079140964,24.703237414870365,-244.2699676054009,-136.0611978346634,-61.81644557141561,-125.28032496633429,-118.40019037894191,-69.38629799500356,-73.3776563968494,-61.77408006377918,-26.089122074048348,-21.515210976560454,-21.668479688331846,-8.344439640206497,-4.276314629121535,-2.352550059035721,2.194496320712183,-0.4798316940675118,-2.7035012933483795,-5.856815942237986,-20.87306456299205,-35.994603313011936,-37.48309315816268,-30.64920404445506,-25.684935508658498,-26.326267632604655,-22.266603949850193,-2.6101527508151605,21.167156148895533,40.74014139310271,69.48703513921453,104.48180480152519,127.80183621719945,144.70426512027527,159.87951643881328,152.4320006082657,110.68443096986118,46.213716637274416,-22.585708595580897,-73.1416995827736,-95.13531590024783,-102.44362157517523,-104.43112643131414,-94.97342141475602,-75.652107165243,-55.571478208052255,-39.07178805264126,-29.138002495007854,-23.092703007990856,-13.37870026023451,-6.178615398392825,-9.588649910107055,-9.372640260669252,1.9218115813601813,5.126379901465516,-1.065696642356249,3.320225367490881,10.225915788428455,3.434308691084137,-2.557879434289646,1.6614494065630723,5.065494799458095,6.836711181353694,4.3592677848286225,-11.13239917203649,-23.28733377023416,-17.12782154239311,-11.549876035238796,-15.124064702124654,-10.839675413601071,-2.464859559143818,-7.993896233932141,-18.630592041653223,-15.758497606316386,-5.609602922645941,-4.669684103530326,-9.336177310963782,-6.191355693377382,-0.6293434876187707,-3.717976948521793,-6.092359306094181,-1.7377163536661104,-3.6585828607812942,-6.252800717445877,7.770751313747024,20.680484672068573,15.869143700293256,15.515307413356126,19.634351236210865,1.1770978892753128,-25.134450672395854,-35.124342274355094,-42.59095440537851,-54.11189785818938,-63.34319187133711,-74.67153106271455,-88.38697389307129,-118.90492556291576,-174.79687375779852,-181.30718489866533,-17.3388322635291,338.080444104701,656.3209778517733,566.3599488351393,93.22597933457632,-224.8321717198312,-151.13093516538544,-52.89584219340014,-116.3573070459158,-130.30326963454135,-65.36412906860615,-57.48248060719927,-65.7527091115882,-35.19129703566895,-21.786817039970124,-25.388371619343353,-9.40349361808246,2.3050120686188915,-4.983414454771221,-8.141099643679176,-4.042055734833788,-6.495879216893522,-13.764332060111334,-16.483013501827383,-17.251537630600257,-23.65474432877578,-31.32691655067645,-33.281195416825206,-30.40121684561984,-19.34214251596243,1.7455678111169348,23.740389442430114,47.48957677465016,78.49948319287633,104.29119236256902,123.10888498640946,149.51605534010392,165.5972245906998,141.31585463680295,88.25925913050699,28.524964154152983,-33.290293251348665,-80.78450635597335,-97.66274575464536,-96.64850831147274,-93.15223504906346,-86.75366571026613,-77.93236682177044,-66.10911515447125,-44.968100542500416,-22.33869540527086,-17.20653776547357,-25.25817228050376,-22.131051869653202,-5.677009421154697,4.388058969045394,5.115355914059297,7.580087587026185,8.38957713370315,0.13491658835761555,-8.112386012598344,-6.489152073486974,-0.7231053402738592,1.0067641442400426,-0.6711327509731682,-1.9736917825829607,-0.7319874727260345,0.18636655916393252,-5.37969908473244,-12.888119644136427,-11.051145898260117,-5.2324157089663,-8.127488213090453,-13.131474236790169,-9.623961191045385,-5.359335701896269,-6.8108641587228895,-6.308575627212118,-4.078409535292744,-8.719558351998192,-13.056618751581158,-6.184656553645752,0.7108364453734843,-4.120234054968465,-9.38915649990677,-6.071575144101622,-2.5170654697161012,-2.103405926233953,0.09597051993899619,2.500791139138409,0.8476021237904803,-4.62527055563759,-9.522225055885057,-7.83898190492342,-1.7947366204863737,-0.5584050728953471,-4.494915493403001,-6.58034839585926,-4.528984838461353,-1.876080408860326,-2.756672174081566,-3.6208897973488856,1.0825182849496535,3.381539439150333,-1.6825582988836647,-2.059985637517126,2.6587985645578125,1.3190898679097933,0.2189952400856714,3.5555762480242334,-0.9002003742794438,-10.790949094715726,-13.115382474908346,-8.98388947418396,-2.603633253147092,2.4490142493885507,-0.2652307722266407,-4.04072317096427,1.0024718864761102,10.003447889707777,19.54896746484286,25.412453802994534,14.628525966835324,-6.052487953094273,-21.307436024912796,-36.802296170492454,-49.129216481573295,-53.906059044334555,-73.62487743545552,-101.22381712160792,-117.01708237513077,-156.3764697716093,-211.59121726876884,-168.72954139747605,81.99087073735996,509.3002779399096,785.482902957199,527.3237097498718,-26.30916889123256,-239.01618473493284,-107.73872078183774,-87.87255895091371,-168.40906548533826,-126.57489437761886,-69.81515107722512,-84.5212217016956,-69.63269605371366,-35.58646124305978,-35.147330230784185,-26.00300887848165,-5.222633575467555,-3.1207546520931295,-0.6997690766730607,6.725760730610206,1.479830256994422,-7.9075592369714975,-14.031336755887379,-21.09979078144906,-24.15505207863526,-23.621558060087533,-27.239511798323505,-32.13188632244884,-31.28829638135442,-23.09395631553027,-9.003867846384148,9.493609708660898,35.15954927764892,67.26726702142444,94.20448210599739,112.84597769451445,133.15896548199635,148.50414235945422,136.14716323518263,92.87115342295073,39.30319254537398,-8.123871415994387,-47.05558823144216,-73.65058841456495,-80.95505356813285,-77.11898318264498,-75.56812587182921,-71.5115288703218,-60.345719412801145,-49.70320501700837,-36.02914560807978,-18.140870432070738,-14.011113487119623,-21.467794279551292,-17.932488912756924,-6.47411022254887,-0.7135811784549091,2.051275677021337,1.2895033992229585,-4.1398281748233074,-5.3862849316774035,-2.945066590053898,-2.0518439288882,0.5228572464090053,1.1343049289047027,-4.837142115488437,-7.904544533648194,-5.440205934949919,-6.933412258822097,-10.094237476329294,-7.700338342341716,-5.301883224593867,-7.256814567813084,-8.768656128237613,-9.097923102132825,-9.200122618873209,-6.035092934731884,-3.2606570923610043,-5.854762317334316,-7.5850730253600585,-5.91406940076479,-6.287273790082169,-4.746156043837406,0.833510559947916,-0.3574170138942723,-8.09056608977907,-10.674362959991786,-8.515275341367119,-5.9966438835209175,-1.727221464587335,0.24373073660211197,-3.7362457509057716,-7.5271363018424955,-6.829406479420346,-5.0510685930986075,-5.21191545670005,-4.726059438873191,-0.21575489978132456,3.1944903533796793,-0.3259752031673395,-3.9644174604088183,-1.632335743735433,1.195786657018655,0.43541021616134223,-3.8635100224652303,-8.953765180400154,-6.398298659438335,1.7900546473522367,2.5494123850390444,-0.9436637701368404,3.2157206093852944,10.761216820489272,13.464952856455913,11.86491585680201,6.095632473079334,-4.0715952355050895,-13.148331124596101,-15.670937005430245,-15.29994373279887,-17.01373271564053,-14.523901033465652,-7.1992770632547565,-6.746877500694449,-5.436402366615943,11.07837588180676,26.538394263427875,28.32334403950698,26.00195236315126,12.69157345969365,-16.000424414204623,-37.845856952435355,-46.09754074084972,-55.461038174226125,-72.08479090011922,-88.49070238239398,-94.71501211336995,-113.60078654304256,-173.6942413856123,-216.74214312415145,-119.92970250640607,200.36143973406212,634.0897897070674,770.4787152915549,362.1996594798589,-136.01596714458452,-207.14141407269977,-79.25094747917225,-112.76017698876939,-160.69454861785982,-101.67719423157025,-82.22540052189136,-96.09023757650188,-55.41001628156812,-25.891626801756374,-33.38193007669619,-17.964046190513542,2.064518939157459,-5.817671680108255,-11.215691957127525,-3.6532444270854167,-2.8391552218753855,-7.8567455425213275,-11.964882187477048,-16.34315251722312,-19.095563228486842,-22.580870852296492,-29.675010578315106,-30.767455762757038,-21.593766175314514,-12.461224243611714,-2.852003570388101,17.87666858544936,44.16757727955781,65.59820108473676,88.15131587507844,116.65559424834649,141.26885043675563,150.48976318151094,134.94141720249925,90.91974467835377,32.32526508663037,-22.661132681534646,-67.66535150824363,-94.91809389203823,-97.8173583807803,-89.39790427646633,-82.45635869069802,-70.33181128078508,-51.18962969566211,-34.56527652449572,-20.08669197417212,-7.281334258611281,-5.88305942677551,-11.339754997086004,-7.485534410170221,2.1066205720140125,4.404952263176355,0.6335954560090009,-6.025387838632106,-14.518745872184112,-14.835551659692916,-5.034921779063584,0.8688397210448446,-0.29382469261657107,-1.1549649261342303,-4.727733712632652,-10.20264424849061,-6.82399702659561,0.3918220177267937,-1.454832335847657,-7.99399458161837,-11.318713320987031,-11.729499179997223,-8.771534362912021,-5.277609081645931,-5.614568473699389,-7.117550162384214,-9.609958689786854,-13.675638915512165,-12.785004044683927,-8.756392227709163,-8.656459359542684,-6.301021295512202,1.009318661630184,2.827189545214714,-1.0085895589543963,-1.1539500999149315,1.1824601177376346,-1.4888961724453598,-8.386756575357207,-11.105204838315544,-7.648513106314168,-4.356389600964025,-1.031235102521956,3.3988286026088517,0.9219263579509036,-5.118244044286694,-2.3901764130583256,1.7707188893230095,-2.3097070250954737,-3.9702709613657023,1.0808169004321537,2.403806607130739,0.9373631639982589,5.197422148018618,10.952908708523234,8.463582865015814,-2.6321433584403318,-15.41809092952152,-21.24974661874661,-13.909724404102157,-1.6699865484745064,-1.3338909176257818,-9.324792450505269,-10.046759084237028,-5.819402215032365,0.007184003439556275,13.62449116428716,26.484236047018673,30.13014014440359,29.347036172338903,15.519344948061255,-13.983260295881164,-35.419607073866516,-42.16721697887123,-49.66956484658066,-63.47113498436627,-80.63676055100461,-92.2418995238104,-106.10147414487311,-151.93832452468513,-196.8719611106172,-117.7082805582794,183.74430702652435,593.3585725625813,719.5149445183683,337.59367056430915,-136.13062531425578,-212.47085897495552,-83.59091972093003,-103.40885772492541,-154.14777834612389,-98.0643690516597,-65.22648782722675,-80.9691224939384,-59.351363001228954,-28.231648454827454,-23.092098896781373,-18.738938273712737,-12.678086006039129,-9.028899948949196,-4.09618100019995,-5.476208901050562,-7.133338276581503,-3.067533801591697,-7.137562325934654,-18.051003529731048,-21.84872561202903,-22.32889383865102,-26.495842471935475,-31.31998476528283,-32.40663685548256,-23.358667427506354,-1.4413659070308498,25.56447993930013,50.75312712848854,73.55083904659745,97.32066360571156,127.52631621861653,155.98255873031513,160.75531384285878,135.1791056289866,90.71830835300997,36.50999850217325,-21.099294301054027,-73.07690563378381,-105.62927096420775,-107.7726234002771,-94.81740991084118,-90.27633738758206,-84.04428090379417,-62.878315022690174,-44.2948958528399,-34.06457346961078,-18.25495899474614,-6.321400356629763,-11.43557526135669,-15.69938407910334,-3.605376417555732,9.816186437954944,8.834809395564207,2.6597923913251336,4.297755203945687,7.207439933485393,3.087341260371403,-0.3779060652345745,3.039896843869805,6.509794031039659,3.02199864750908,-2.9348438833764696,-0.5841062309422655,6.995201064285375,5.372048107891782,-3.4040841994828437,-9.098064559481344,-14.489641738883568,-18.265803708769784,-13.978327255765294,-8.360848091621367,-6.63675553411322,-6.312165439616841,-8.938874154598,-10.699392341850407,-8.882765783812207,-12.46025037153871,-16.114828359713904,-7.805328149861934,-2.4599601974321743,-10.303296369889852,-11.355798146069404,-1.5575001671370376,-1.0281925293785044,-7.392164886023666,-1.731219777744312,13.42137677297474,23.46269678651995,24.42168708553614,17.33915261542874,4.446579446912086,-9.930887775661077,-26.306153417407632,-40.89139055433496,-46.454491652986604,-55.796074894269985,-74.95573668997872,-83.52668731200751,-96.00531438805695,-143.53352555832987,-173.81896832347093,-70.43662671722643,235.06737506902323,595.3056159006428,620.628861538263,191.31030247347474,-201.4712903567801,-186.0763613676581,-59.87073444897777,-98.55526753008587,-133.86785386930393,-80.41742578660691,-58.963191549907215,-62.30130475212222,-38.279934343694286,-25.45030252393652,-27.114370804156074,-16.24271277186636,-6.64063750010706,-4.949770889630056,-2.921739488268617,-3.3947577843774503,-4.580381895968916,-5.416822992839803,-11.818895899829958,-19.937530445374787,-23.998591669970605,-27.528062015580012,-31.488131610074596,-32.6920033626944,-30.239858638545655,-18.673211587442108,6.306623079272434,34.026533216639066,58.83379977023472,90.95087439325077,125.6342200263891,149.84142977099543,168.03931753504685,168.87739250203316,126.00294617458849,56.14814333044243,-5.180137897065271,-55.88005403845948,-94.54471637154174,-106.50911283721281,-99.73617909472831,-92.02232133365234,-84.37651670340061,-73.60246425801488,-61.39731792807451,-49.21711818427887,-34.75638709008547,-16.811387644711672,-6.041430640009445,-9.670039334901176,-12.642585367391824,-4.146335895760803,4.161744022286099,4.091346176325974,0.3877635239443684,-1.5711878162691733,2.1424959146725566,7.491106316986659,5.379148856181356,2.0966710478937944,6.834900012952196,6.46200955072139,-7.99674489426555,-17.379244853195402,-10.15590987540002,-1.3701729230466562,-0.3712458539881034,-2.6147904002520317,-7.4978360809655324,-12.726373211556712,-11.963761008516542,-7.414257655485464,-4.110053306585771,-3.464877202566946,-6.71778874040886,-8.731850959548666,-5.575512046278597,-6.640750870008375,-12.815682243268594,-10.020262635372555,1.7178638286304757,11.837270800388364,20.540483116820447,27.801251137755607,26.14948331489904,12.385173976698802,-9.686641006106727,-30.860874628062064,-40.922813344371676,-44.212067242225025,-58.77495921244527,-80.98510378929326,-86.13462568642167,-91.96760608137693,-138.26203519469607,-182.9984291977488,-118.53048987039224,133.9250134679324,510.59686795877326,681.7033649412801,370.1319591123158,-102.93597678121677,-218.3035766050146,-82.92447669141613,-73.24291488472343,-130.04032111381517,-94.42329314592456,-65.16620706451545,-80.14968595257395,-59.608796237814005,-25.730304294014694,-18.21632283505383,-13.770872528935978,-9.580380609800498,-11.198954991346683,-8.874995754129404,-6.392117143848205,-6.296520221552505,-8.518320225789555,-19.5436635536151,-30.2459200663227,-31.307872552190958,-32.20839050964314,-32.5669133133145,-24.843628909169396,-17.23276248333056,-11.791633193016509,3.4274894656769526,27.982981617084636,53.86708494198959,83.42020952341899,115.85122706867661,138.59044768115342,145.79774573947577,141.23561846598292,117.16307344452309,63.64334757516878,-0.3522606486946742,-48.14992760273603,-81.81345727725886,-105.68713013909948,-106.85271032305712,-87.78472194960784,-67.55057392138282,-56.02116619804414,-53.01261914502062,-45.74007700908598,-23.139729157559437,-4.400728575915437,-5.662021659736293,-8.850252007850443,-4.68345422885135,-2.8615593802755583,1.2218428577606169,9.787229669216568,11.010716664175744,6.137127222810124,3.1625500607182513,1.436783503722955,2.1707882102822804,4.395132504085456,2.1530432960510115,-2.3077102175883795,-4.918836973424634,-7.107290687106337,-7.405350841266603,-4.321965112299241,-0.449716617833932,-0.1420922286638966,-8.367732078852601,-17.68902981571042,-13.747935502147694,-5.632792103480103,-8.199871053952348,-9.439605729457007,-3.0000463856353505,-4.7284165117985,-12.779321239745867,-12.928659926306201,-9.759281466177,-8.20968091751049,-4.462104944306159,-3.5187143858431202,-6.673489858029788,-5.425749606082441,-2.9199888584846647,-5.054344342226827,-3.7428605281440284,2.604935572598351,2.8004585907737,-2.2192455345506072,-1.6251967084309786,2.3630994978381326,-0.08576971281597245,-8.496558389981152,-14.47840229239192,-12.74794507891011,-5.931416861594586,-2.0337343937393095,-3.7643940598821084,-5.192118153009762,-4.148332033842053,-5.11592003961977,-7.24241541363309,-5.590451819955686,-2.362037141474892,-1.2033200466868745,3.6649471169584684,16.42719119212083,26.949564748337856,24.76080755016091,13.447993378431981,1.798618901495411,-9.243326096592392,-26.717016262478346,-48.37543713510044,-61.06565620313177,-70.27507555219334,-85.57115464797367,-95.69527938699629,-118.07686685980381,-177.71255053750315,-207.61992039375158,-82.68323380606682,263.41739776024065,676.843352474437,732.0896723177464,269.9044828987325,-180.26007026571466,-188.59857049264747,-73.20148123709646,-126.80471347358875,-151.63118051736888,-85.77481019049837,-83.82808895818263,-94.92808724924666,-46.06063107079619,-20.51300561810836,-27.162273046369066,-13.498431882839785,-2.202939754161097,-5.3380866180168525,-0.5176246094188706,3.7663682882129974,-1.718231283102286,-6.9280582394519445,-11.568407106580935,-21.1342295306334,-30.353519432155572,-28.59694386422847,-21.017978750485145,-23.83621875200828,-28.800478573617717,-17.974945359892025,-0.2033699838786447,19.85034184742986,53.36986793069828,85.28828763146873,99.73639785690143,117.8749544845879,144.22887061326276,146.21724870175126,115.14228295076839,71.34489078998095,21.29454703768922,-33.704205307595934,-76.79723584714723,-95.41692286072802,-95.80777178506753,-87.28173330973081,-74.73419487677195,-65.78161881792303,-59.81541679031187,-42.68672723100361,-16.7798372348601,-4.243491613492079,-6.265698104385908,-5.148082043185848,-0.10309126644228428,1.323095488191921,1.9133630962266945,3.758119031789496,5.587243322099923,5.961463983132974,-0.04259013201878936,-9.248407700382657,-10.939484378215603,-6.882042201522726,-2.63566764895519,2.618298902629588,1.076268080532044,-8.571845809503259,-7.922940476280409,1.8022399743935988,-0.08242506925864568,-7.415713209261586,-6.057393620655631,-4.8672895071155295,-6.702515939841543,-5.997903421367235,-9.293419013539708,-13.549095124262127,-8.755651704966287,-4.183590077503423,-4.398284370170984,-1.053089180550769,-1.5869916418517231,-9.246516918202225,-8.058601517343838,-0.359888914258196,-0.1244165932818877,-1.6798864011125545,-1.6640469567726743,-4.632422091656489,-2.712673355920896,1.6973330445410024,-5.803238221146284,-14.648294680126284,-11.076906639283944,-6.637516787204076,-4.008753109767792,3.243579127848472,2.8885679602873147,-4.529651920532343,-0.9286471652259607,2.454782269530341,-8.90649643275987,-13.936935635585336,-5.742010631327965,-6.7098657789963045,-14.763372886562207,-13.396838051933571,-9.783714631367577,-11.671997892069149,-11.610954039385923,-6.403135444133698,0.7294372934064155,5.265197867329783,3.0831306106910983,-2.203128892728306,-3.3745105098654014,3.9973200684800063,20.024246978228383,31.586940846926662,23.756847320815705,5.179042654577126,-6.5587636056832945,-15.032854117509839,-31.966602454484153,-49.97244175110736,-60.481898228315515,-74.0538003807757,-86.406362729932,-88.70734683233955,-122.12037007777874,-198.1878143078747,-209.78477080734848,-29.022257978599924,359.1136097440431,725.2230824921712,657.6957057407747,148.63991598015826,-215.9308378061021,-158.3429773640008,-67.65363989450002,-133.1990751189017,-137.86008003524415,-78.51404281275263,-81.04044662717892,-75.83987142841447,-33.97689886041688,-25.47709535834874,-23.863518151489686,-1.8308832936324748,-0.38862780422991605,-12.635610090596607,-8.609437927760819,-1.0438550215121314,-4.149264008085675,-14.075050057236602,-21.754347669338724,-21.20479373648008,-20.14783736083065,-24.86253028339987,-29.440773789992864,-30.239821992228613,-25.93269908093313,-14.29464052474233,3.6074623381708335,28.466337056522505,60.90136002155006,93.77012227620126,116.71693072143299,128.44578323327897,140.14252448569798,149.7197827332542,129.89838425636708,74.95964693600459,14.52268689149458,-37.52177685311574,-81.62952013651073,-101.94038596104036,-96.06881705368863,-85.88953313771498,-79.13066625951731,-68.54193664974474,-53.21304950037654,-37.79026064733813,-28.11891834202645,-23.854389556709783,-18.37803744739548,-12.083580448656498,-8.215749056029487,-5.221595867450215,-1.7360336272328887,4.797265773716468,10.492201419446351,4.144716926440388,-5.50733293124841,-1.9299004151287136,3.423323584772916,-1.308558772252498,-4.431056021589239,-1.5457493822292356,1.7569217728372273,4.549271391652227,0.8891122213060036,-6.971280123493061,-3.533219942105476,4.357254708334057,-1.7688125261167826,-10.73397281577863,-7.616521481505707,-4.623483651207717,-7.30745954393759,-3.221840488023812,2.104025819377153,-5.513056461702842,-14.308890906793104,-11.061594887710925,-7.875465195622867,-11.24554058749288,-10.468996959547193,-6.095994731164218,-6.581344144191274,-9.111257251559081,-7.778507398709895,-3.6357827861544916,-3.8773782337294342,-10.306409785958495,-6.553788668490172,15.906987073781789,33.65957779531284,30.892939524611236,22.257434979291666,12.156842681931465,-12.97056462278394,-45.31791801194244,-59.246176984611424,-57.399658362210815,-66.42522189420322,-80.58003280980029,-82.41612725274916,-106.38955501405309,-169.79940533313973,-187.53222524702537,-36.01868268060534,322.66346382979424,673.4314259994496,610.6685221831946,125.70797510597271,-223.24185309558092,-167.07656757296257,-65.65227360421164,-117.41989481333826,-132.74211374154177,-82.31631724748152,-75.16358570847132,-67.33849908959314,-28.406520020693435,-20.150098454321697,-33.13880436561627,-24.13344925195732,-6.406803237876423,1.0885719496627484,-0.5672837513170279,-7.011961178678906,-12.320161725684166,-17.50512716863466,-24.604195049854418,-28.251503683664044,-29.888465381971848,-35.15249527051065,-38.32807481241967,-31.378034555218044,-17.1864289732475,-2.377239216444181,14.718105669792443,40.88386868386303,74.63176022419336,108.2500769304843,140.00008645473494,165.23975548446,169.77185557572628,150.27172938501326,112.70046001974899,52.66314833881103,-20.677759624676035,-72.77228206761744,-92.66068425503072,-100.22546013923298,-100.82729290452666,-91.79044526693737,-79.88794600974501,-60.448585902233155,-34.92304723982261,-27.447242801114825,-34.33728367609696,-25.89229490084613,-8.311928400301852,-1.460320410581751,1.7404781191798762,0.7857355194806068,-10.992368951394365,-14.300104303383073,-1.73540247692004,4.753606608159545,1.203536413670573,1.4149427126096636,4.395956940592704,3.0970156748132514,-0.09780247211965332,3.9907907844097825,15.618670437362647,16.290829756975256,2.223796905588997,-3.0529921241285027,0.8123294754269743,-5.369708026769805,-12.618661406109034,-12.1956614672791,-15.237453178191952,-15.065221159441855,-9.117175242834008,-15.274443627531005,-18.15887375385982,4.731820842233322,25.21273633878283,20.919433563493868,7.236064978315108,-10.519532881089027,-29.393966824974914,-37.380333109252504,-43.37773172964441,-58.68400017209563,-74.32143443633844,-81.58954799868599,-86.6048625548841,-112.3899553225379,-162.4282281380366,-169.412738521478,-18.577304822320855,330.89837352785514,653.5599723914739,558.9175017749534,84.81704883218225,-217.9463926300125,-143.0537310460902,-57.83048182928018,-114.55008947342066,-124.04299274918094,-81.05082590992957,-76.93298156062477,-62.04793283109164,-31.21284097510989,-31.142646823114347,-26.28844052636346,-3.6307338902738753,0.20728872960892453,-3.991952178869372,-1.12306852741753,-5.838109600770592,-13.700973146201617,-15.623781157715305,-19.421473227016072,-26.280478785840653,-28.887832682574196,-24.35102821255959,-19.911330790750398,-24.166624952117118,-25.18348414295492,-6.76734945407957,21.38123534033372,47.82329134704207,78.46287633443335,110.64764363883711,136.1229100189786,159.3505433466277,170.415749318707,139.65187716390577,70.16509752863377,2.188758945185805,-46.18393099578659,-83.89542080746955,-104.1638335807545,-97.247237256005,-81.73999929861552,-75.87533131715949,-69.99132399640487,-54.834122807973316,-38.539795541383675,-23.61051302139097,-7.320790920728328,-1.434037410868445,-11.11989178617095,-16.095328157188742,-7.87007488903199,-5.055806564102827,-10.677657886411858,-7.594610115037581,0.5987809549491772,-1.888347067285352,-6.604739498486623,0.08109828378290196,6.733102576048996,3.256978942042098,0.965875323358512,2.296603369545668,-3.6134206899538963,-11.350351716968909,-9.790761201835345,-5.155710393613379,-5.285134079636425,-7.565472972123466,-9.269773108623832,-9.283356299434836,-5.224210317032059,1.2590018819243536,1.7003822609375074,-8.025721278366346,-15.692727607045331,-10.168218780103256,-4.2960703649615315,-12.154237494764363,-22.600767668090903,-21.90729654875841,-11.685198832903243,5.375888176408489,23.119191989104596,27.849390826477613,19.222192124496924,9.503293460999071,2.35842817116429,-8.716326430660818,-30.500668212637716,-53.74897717304478,-62.151203305578306,-69.09378963688127,-86.64176205346075,-96.06766893827714,-116.34098770570722,-175.849076458976,-197.2433793502936,-48.24688420198039,310.0516781257827,670.4192323255538,626.0636710891513,140.84410425947658,-218.8174750423067,-155.00377322859734,-53.627289193396734,-127.98918875056975,-145.5623448210565,-75.31141599210832,-66.63545276760536,-70.6065813914874,-33.44383506438502,-18.648815228011404,-22.73798367280611,-12.066074445523535,-6.214719792045615,-6.7207691151704125,1.2081746831648204,6.9987093669877645,-2.213567694149315,-21.280761172483153,-31.409757778017802,-27.315717119750325,-24.433319662301898,-24.148770283980852,-23.205420227441376,-31.426420173142695,-34.45501270348677,-10.866271677481523,20.865456333756327,44.683278035827534,72.39663791056098,100.97490891961358,122.69458821203787,145.43089801338056,156.62346787240548,132.81255083269693,82.68628820344841,25.353117252235297,-31.79414108747965,-74.21641075338707,-92.98587537693905,-99.89044996544463,-99.34548504663695,-86.48694578405804,-69.60637686197151,-54.03404214762156,-34.631924135366795,-18.926843060679875,-13.662805172822441,-6.372221243293978,3.8120442024250174,2.4221314472885673,-1.9215997999942793,5.899503451875871,11.145576606622885,2.2084411010576392,-3.5090835075107325,2.257315411109225,6.279373213083229,3.799801254953751,0.5973804365839666,-1.8901398874884627,-4.580200049501464,-6.283716833668672,-5.1498501375899775,-3.787493432509077,-7.9527910150795265,-13.351986938638866,-10.907317230009742,-6.264134057939408,-7.497193122475609,-7.429023237191091,-1.9933844583842806,-0.16982768671698878,-4.9087020312164205,-8.231782951140271,-3.658796697572531,4.133554751632399,2.179712697897479,-6.555570533906118,-3.2664616602333467,6.119132052947064,0.5737217474441483,-9.816159598968696,-7.91495395920611,-1.8114734364079235,2.1244033836189775,1.5927393380557326,-10.937018922208303,-21.741823300288218,-14.298543220695617,-4.505784696949654,-5.639153604112357,-7.0161384921961165,-1.4602788223995171,11.934862412697255,29.308787635060618,37.780157804334536,33.179158172752864,18.410607717124176,-7.411683764227716,-35.974095704967866,-53.52088917550151,-57.6564885618441,-61.812888916112996,-80.08915057601077,-96.96101658787842,-105.39467613737472,-147.3579376906078,-210.4807101902819,-174.8515205915693,70.81426548180082,489.7882344993871,760.798111587094,513.8785800896331,-25.061191496099937,-237.88615273457134,-108.35895506302745,-75.5425755230595,-143.70326048900833,-112.13088487876242,-75.64457468333237,-91.58609057050141,-65.60046694947407,-30.47746394213398,-31.478061899171863,-22.02131064803962,-11.469716601804773,-16.6149909349024,-6.616598587507442,3.232719043997843,-5.5452752108685,-8.760070273024903,-11.683672675190705,-25.07958692285989,-27.167835569805604,-20.98563110818247,-23.787264090991062,-24.471296493128435,-19.066552716439244,-16.223692790862724,-6.665654646180968,16.47083006132702,45.41205673356577,75.00460128066278,100.1870245538814,120.57817565088695,141.75193510620005,149.70703316536014,125.0731828902117,75.70542204629619,15.408177512736502,-44.29576618503186,-77.67035816172472,-81.70259125298618,-84.7945210506014,-86.3424979633901,-69.87778668602083,-52.94613538442022,-45.721042460602106,-31.728394235131255,-16.428125777842,-11.480687981764842,-7.531530238085928,-7.274064341853183,-14.914049573638763,-12.650437160460022,-1.5891394080345442,-1.194344451060065,-5.359462521365327,-2.2766145559853914,3.0294013831668103,8.659167015839708,11.340877130678429,4.86943027175751,-0.13231684384980724,3.8578226195305003,5.188965486746863,2.197625219446085,2.629343792583506,2.4705780102191177,1.350344832161948,3.3730471128599415,0.40562795532177987,-8.520333817026412,-13.024528114958244,-15.058673160852718,-15.491398364222363,-9.219567374155138,-8.562084502348384,-17.24850726524101,-15.909867125912168,-8.9309138652056,-10.733011621920474,-5.451296180406022,6.407672768605169,0.41735297129237914,-9.582046246191124,-2.6924317035982126,2.046363690566121,-2.7422874539929607,-1.623063754021624,0.8589857427493719,-3.046701419095717,-8.887543039129238,-14.327279553935014,-12.673837473173538,-4.451203064717508,-0.4544066645595102,9.001082867297681,29.49112920111079,37.05812143798803,24.30652720906977,5.500737852955236,-14.068250591073749,-28.93449446637085,-39.921250557810644,-52.79532671706612,-59.476083652139174,-67.08173280465441,-84.64257320331613,-94.1577551755645,-116.92411594152473,-183.1981283027235,-207.52049176536295,-42.82717119821618,346.7517799692847,722.935001570422,664.5865529731674,164.1070812857054,-202.4515906293162,-160.6629781223216,-80.49543471949198,-144.0991788189468,-144.6587468217758,-80.12773939382635,-80.75677876460303,-82.71385917391882,-41.00211680837336,-23.463802072487056,-29.03744561826491,-23.634532911935793,-16.100499286145798,-7.70808966181546,1.7436362020668987,1.2029872934670784,-6.50189669866236,-15.694731516168197,-22.468894320466674,-22.997796906985428,-26.310397316458552,-34.137994140335785,-34.75966164128099,-33.46209494633491,-36.74860278280473,-28.54344611456954,-2.3082033087465827,28.596467983298904,58.77788998933913,89.37715223949634,118.03581126683494,142.8783195895048,154.8014855929525,138.03717664838902,89.06739126990496,24.466998923822217,-29.5992436812007,-62.717734770157065,-87.1569213073196,-103.48804582491222,-96.77839580518247,-76.42451190519427,-64.50619820995861,-56.683607015546805,-40.60528332337529,-23.438217873084447,-16.485308834954278,-16.193690160149938,-10.972179298155737,-1.5127398031243935,0.25151654089372144,-3.9175159225349443,-1.5938870263498082,6.015268049174189,10.522471004753928,9.722972530269374,2.2626008506577797,-8.11181747438617,-9.876895505644963,-1.8892915358588827,2.5535570482511254,-2.840830630775832,-8.753235299652243,-7.891900701878049,-5.717890831595174,-6.0231454079874425,-4.337746975606954,-2.5008106850318708,-6.703864533902463,-12.617119539096823,-13.135643127209297,-8.566399778328503,-1.8539469415843755,1.0655861499903931,-2.9261728802480125,-4.130419142454897,1.9339610959818048,3.6403380543935864,-1.2037837506299152,-3.7644096565493754,-9.128498681270223,-21.603229577293476,-22.609201289846816,-0.14042845099750423,26.721736962745666,37.67685002364068,33.263798865292934,17.63976905852913,-4.561374312311278,-23.24228218129045,-38.240441195715945,-51.110654792906445,-56.365790465738485,-66.85877035626257,-90.82488419567075,-108.5250564550631,-131.78893830292674,-183.27064346874513,-191.32231294368069,-20.89397011999563,357.7512105538599,690.6007037056512,580.749696034791,85.27383746996401,-222.98720926079523,-142.21237637281973,-65.92362041929562,-141.33395355322884,-141.34407242699257,-66.86937459322043,-59.47339774410024,-67.08288692399842,-35.20018085059512,-17.776259631389593,-23.282393854327573,-21.616861104018195,-11.4199663564996,-3.202055803621988,-4.845317335926225,-9.2638804204464,-10.862985628138183,-22.55572568440863,-36.827666895988244,-36.19252036495401,-34.376177890825815,-38.62393748004523,-35.126442373157175,-28.048785802366197,-21.48112530973866,-3.2518080626624393,22.131564743243214,45.62145731926254,78.44094013547274,119.41000078147536,148.33881587617736,163.91864998094957,169.08355878433386,142.1393948543572,78.28074665553069,10.609384163537444,-42.529614966106976,-84.65230117038769,-106.23432624974235,-106.61861884326274,-100.36316388700628,-82.7247720968551,-55.89285075412535,-41.60224897475707,-31.031217473040726,-12.29119979467243,-9.401917893957737,-19.05639698982496,-13.492118933225104,-7.438858829165252,-12.533155771533693,-8.508440355746988,-3.8608985498464286,-11.399265460865507,-11.390432969263735,-5.348562363302907,-7.285290407128585,-3.694504771962979,4.043898930707993,2.286834901911119,4.529010483704603,9.440868439853379,-2.4490279548226646,-14.016408291605527,-8.375024480734375,-6.335979704045611,-12.061937837064068,-8.837766380886842,-4.894778940261503,-10.115738123971154,-11.010596799595232,-2.521112480027802,5.90288075881199,14.49861313941858,25.829500294303145,29.338825053160143,17.935281741052513,1.1294978174195762,-16.333880766206057,-38.3029790066049,-53.40909431286279,-57.12473046983501,-68.93260176915906,-84.69566871983604,-93.34484273134147,-127.65495475927335,-189.8139764617601,-182.86099230327227,33.26278270990878,464.42701691186176,753.7938424015706,485.1992723355304,-74.5958113326197,-265.918293935984,-106.49895650851911,-66.87584333549307,-135.96066833674976,-99.12277848874959,-58.80760082956255,-77.94349231343656,-53.08126400173899,-13.315837349577599,-16.969801667975982,-15.42549753660511,-3.1163763057693163,-9.766027827752403,-13.930856634269992,-6.324622601233871,-5.66485037308329,-11.651681831291143,-16.647493594148692,-21.760267832823814,-28.514136503255212,-33.953155233144614,-35.45586879821653,-37.8565535148784,-39.28802388807098,-24.995225582098026,6.961550217885268,44.913355857381674,83.01817607534656,114.18023814876454,134.47705878687287,156.60091078980878,178.44626368548012,168.22261644395687,115.20137560705824,46.49300015511318,-18.681432689267982,-76.14613087150049,-112.78138935021994,-122.53092485662168,-116.30023242337413,-99.75382864952394,-77.53422473787666,-62.106814359903154,-52.86311533409258,-39.435581072557966,-24.142667330919956,-13.111406415017456,-7.266947142021003,-8.380080398816094,-11.073576533798061,-5.617177893111176,2.9938098359664664,4.88197928051386,3.733647179508079,3.6041158874941104,0.639563956185377,-1.295497415949507,4.022845674145744,7.516824567769321,2.257246955124712,-1.5582980963232966,-0.8256756285405888,-3.484436237323127,-6.595145149922379,-7.0596569667652265,-10.253283460037071,-12.054097549497737,-7.981305426047445,-2.5014938237776656,8.091491389224485,21.85917776358172,21.366431341934256,8.464066400658576,1.7540007891725535,0.8079369963941687,-7.999998194489713,-28.24351956639896,-47.10730326409214,-55.427369748399514,-67.1894275271288,-84.45190276490919,-92.44737108280343,-115.3416165702451,-173.80163847795023,-188.47742890426144,-4.963102260435903,416.4431351610103,752.981933583181,556.7030430369466,-4.6758504179808895,-267.7737822216999,-134.32894652047105,-70.21408514449213,-144.78952556805083,-118.18125021234967,-55.08015223790864,-66.80914041976776,-56.915317530131745,-21.910593983387486,-33.90915054781789,-37.29115031140644,-3.6700945601041237,1.5771703572626645,-14.554385512242213,-6.042550967970794,-0.6798222216469885,-21.19269868448297,-30.3545626365411,-19.47436483561302,-22.73744831813365,-36.19094216428345,-32.79189594456777,-25.39732871065802,-27.49607178248264,-17.74822892205053,8.338639717232699,34.86024620104078,66.79792492486784,104.62189994010879,131.13709774544776,149.80472967384145,166.28314085316453,157.68757388750197,111.56775885365582,44.46412173734775,-24.17281690557919,-74.98206725535664,-98.6801264732902,-109.60161591849159,-112.40136828748305,-94.82811134420012,-69.80816792121156,-58.90704129082124,-49.24778463154772,-28.21564222452605,-14.869541987497033,-16.607834372581664,-15.638579807943756,-9.145583323036853,-4.712383359312383,3.1248137029702256,10.506482791961997,3.2915704661428062,-8.139795853415233,-3.8939066275168424,10.014253868009398,16.583202919589255,12.146917768133845,5.2481408614573315,3.9275017171726585,3.2736805897531482,-1.006395395881115,-0.4595571355336432,1.1749568478653334,-7.940457234195197,-17.82682994524491,-19.096744149626293,-17.748613972872036,-11.77296314097789,-4.848768365275696,-7.675641239484406,-8.307330752746584,-2.7392296157471883,-9.580407817038413,-17.99751524309184,-5.914742512542959,10.93944921912928,17.803482915700933,24.089451949380653,26.72131868939818,15.302531681951464,-2.153912024520415,-14.486692658684243,-23.060285653840747,-32.524121951436996,-48.169139390404766,-73.00654511096545,-90.08362833908743,-91.40363679421483,-117.421054726329,-181.40716788143328,-198.49179661796802,-44.64838181299025,331.5064180451349,709.2939442397062,643.2137744954696,125.10868244425662,-232.54917043190125,-162.5462490334745,-72.36016256971003,-139.75726521940783,-139.6591339975995,-75.6651552923574,-75.52432335312378,-71.7009800715237,-36.77717502174229,-32.82112191394014,-28.52666485249997,-2.4521179395080086,0.02167401342957831,-11.141041702744943,-4.213034006610457,3.6330339498863404,-2.3929867919222456,-12.178535201204909,-17.849858898036118,-21.530847547221732,-27.75297669729605,-30.67161136696763,-25.713649739888496,-22.933470927880954,-19.80566448664807,-1.4897322201840737,25.009919885685648,49.78106439946132,81.66658258977664,117.73927310137974,144.75578194406273,162.3657474091294,159.1605364586831,116.80518923640821,54.90452837540355,3.5318378122332668,-43.32690338038627,-87.60115652967934,-104.75575262509749,-96.44725519584661,-89.49824033515114,-84.6979814327317,-69.60397185422158,-49.95062063874588,-34.2812336895509,-23.426597149563285,-16.83868982632572,-10.914849480188469,-4.82982899937069,-2.9485113216600567,-2.8608427880124854,1.4765413120750033,7.391892174810781,8.405717691528618,5.8639146857293785,7.9626951548750835,13.753266328000695,9.302084732674622,-5.206680958435134,-9.85522531987122,-2.9874414721014126,-2.6147228300986267,-6.607343365306178,-3.7289175679204813,-4.5622691761594165,-14.470806362115443,-18.018268319876743,-13.092237437557014,-9.054504104429094,-3.919978423035783,-1.2642174809897462,-8.119494215038529,-12.108519862696737,-5.708457522359131,-1.484052223015123,-2.3919337320291065,-1.7802595305363056,-0.39913853062238136,1.5875530784096963,1.4148927939609974,-4.129997224447292,-2.7529356394007545,6.46260107112309,1.7229545694271557,-11.184850592370578,-8.026718526617135,-1.0652136298863324,-4.966221244511533,-2.715069715136555,3.8570969524156444,-3.6783840630038114,-10.136173451155653,-0.4164515053574416,7.7345227504382805,7.31784442230513,7.3052956397654425,1.608601526969423,-11.686037373838563,-18.917441274618657,-14.836899689615958,-1.7259510334452468,15.653656837491638,24.7237208464474,19.774828882658923,7.074117599848714,-6.346867395515252,-16.5111917056013,-29.413235540357313,-49.26237551248735,-64.81363778977006,-74.14791892382564,-84.19213820218421,-98.42410369329676,-138.70559365302495,-202.2842566936575,-201.0355831418213,-4.126124830339592,423.08235070014257,793.7795066931934,646.2337110066403,77.27728146436104,-242.8209478416802,-142.3862357065821,-80.85824181545067,-161.31274732378395,-138.31343657702143,-70.14073156528382,-82.12505981374586,-74.113972496024,-26.38312535595861,-17.992252531133254,-19.873177497962338,-1.9609050113275206,1.5587351501451678,-7.59119225516975,-9.55437135005836,-9.597689594959716,-11.561598379460284,-13.20737904189846,-14.688717933857749,-19.22816464527945,-30.145100081337166,-40.81835456893077,-42.85282188455492,-35.2811030811571,-19.53763239946356,-3.149966568508985,10.741953772495027,34.926503399758985,69.98843474265466,100.09965264026538,126.73552620471406,153.14162196501607,158.27704061433863,130.40322131895385,83.21562412179307,27.864496769891836,-26.332437143428663,-64.21976884493638,-83.3491782222514,-90.70631676114553,-89.0970851388837,-83.80502919970996,-75.6761234052432,-59.066236867705925,-42.81234370766605,-36.48015448011817,-29.4709164882994,-17.045114501653757,-7.460964784567786,0.05755122599332907,5.947134975277734,5.505502534583526,3.9973089137933506,6.004922754303689,7.678519810856249,7.180491994881482,2.3802077485922837,-3.4101825479412193,0.47252413753710076,6.385258729787709,0.5695639029992998,-3.5393673678893043,1.8261877926899768,-2.488359264071484,-13.637192435334141,-10.310876529300085,-3.224186062342726,-8.606824177646727,-12.77797313380371,-7.780781697704464,-4.072692311451153,-3.678229588312285,-4.616946589563801,-7.0072537979170075,-4.413000078746512,2.233062230136033,2.1118953519138923,-2.439763622427436,-1.8337166880512825,1.1916841867199945,3.0395617446773575,7.61712819122351,9.762284672092783,-0.8552629381070869,-14.408897529638082,-12.50670024270013,-1.5214657800927203,1.347115329840296,-1.5684509888386513,-3.3858086264044847,-7.013661665255186,-9.044730607387827,-5.127938405665207,-3.498722241048446,-6.502773865197206,-5.249707236053263,-1.7857579826557046,-4.69079412222183,-8.288211304566168,-3.748027781272854,0.45513624652947193,-4.796464525954625,-5.1597925568310465,11.207200980280833,26.808123121777083,29.67506248723938,26.835374439733627,11.226050325922948,-15.952588336375157,-28.712942791939817,-30.987376352609793,-46.18657143176945,-66.51825196606957,-80.15394764707032,-87.39993188737253,-100.55807865410932,-152.84424289993842,-221.32282664588334,-192.4785465673607,46.56872666308158,485.093749185011,806.0205390310953,586.1415270613553,14.927917697383506,-241.5649837396343,-119.05578650264296,-84.89407051927736,-165.29666413528773,-128.8326378024565,-73.41756771821295,-92.94442530015071,-77.92140892870445,-33.20868039384621,-25.022287487472255,-18.64810582261117,-5.443858402434341,-7.682657911699527,-5.345741226030338,0.19039243765252145,-7.791465050463792,-14.589920938689694,-14.840422237921217,-17.729766697025603,-21.760827789751318,-26.678316472465774,-28.987330687745335,-24.19288847164072,-22.78576354249607,-24.45619259301742,-11.938089609132405,13.90294829616551,40.774927466300355,66.91792630878223,91.86981650342784,115.33670676308121,136.49648928067145,144.41951163046852,130.57884013102742,93.8423609552525,32.876222588249874,-34.68331300812628,-76.54457227459766,-89.62398285769768,-93.89229697097942,-93.11630497672743,-82.5456894521781,-66.00728299557088,-47.356366873608295,-29.36309839269477,-14.654662405083748,-2.6614589728549767,2.788852239897345,-2.3010385774183533,-10.271531435404146,-12.594497081902379,-8.831997651969424,-1.917902924322167,0.426279793309547,-5.136232600901238,-8.22669795734647,-4.094935648149237,0.05148534872422417,2.3981228929268763,2.165323334645512,-3.1664088331417446,-6.3052168285877634,-5.126969414339918,-7.807762438676043,-8.188598969724584,0.13346170354786757,1.9383327876144119,-6.3126902564830605,-7.367517651503547,-3.7878485493016765,-9.576128936765187,-13.671852165498404,-4.548902895424938,0.9754819417147651,-6.90410097188148,-10.22485260074126,-2.815557786181481,-0.20495632239730988,-3.571303075017118,-3.283518541761767,-0.7928212932356384,3.2473581772714644,6.259537187145696,-1.9197515368596818,-10.584499325397807,-3.82545321279232,0.24049576247768112,-9.51768445481832,-11.049244223715757,-3.0653972491610713,-3.253907564844898,-4.7455125103709985,-1.2711681609521452,-2.457896785810262,-5.065257816259058,-3.4406407974421227,-1.6139241061559337,2.0233667949332874,4.14119796472253,-2.108280980742924,-5.617408017211321,0.9356936031232284,8.895351345616008,19.42853265762915,31.512340714876384,27.948802603951467,8.753505318741084,-7.1618989350461515,-17.49582131713924,-30.024284006575286,-40.96538167038513,-53.288548606364145,-77.83674106360537,-97.27802705162836,-100.06043604604913,-131.6192720873965,-203.13591109509912,-215.68859012439754,-46.511581134813184,336.35314028094723,712.5704999091911,657.3343645725631,154.8147912939313,-210.2698591448972,-160.76230037532582,-76.57962136831608,-143.02872281324676,-147.62113127656238,-82.82874555797855,-76.58013367964588,-72.54685171836452,-36.63846976483484,-27.81065278771885,-28.084950074547052,-12.446887082731273,-7.951182867574033,-9.713628267773817,-4.487156293322533,-4.0230126735081235,-7.558172163761945,-10.985695697612119,-16.536460752749896,-19.099631216046685,-21.31459600544679,-29.169360472192096,-34.118747243273745,-29.776956146727077,-19.831642844131014,-6.26721994002993,10.373789103446304,30.60895375811958,55.86552059527198,82.98060808385486,108.83595959430286,133.30524723663285,149.04104638908035,140.21714905797046,99.90290565504414,43.649176529804706,-5.972654353793884,-44.72667478353043,-76.92794172501388,-94.12858700527443,-91.32650990300046,-81.24707288164548,-71.66949610480745,-57.72901811614648,-40.69564695317307,-27.554425942243473,-20.12393208925331,-15.912514728579389,-9.46203000505154,1.156018006315529,8.249282203993172,7.977509792036887,7.415652341219952,9.823740010013793,11.36943948706709,12.02216279098359,13.224037731029052,8.769028589532319,-6.045211306248426,-18.538189808222054,-14.694582906619349,-5.243996999941851,-4.610179443185007,-5.89893980013346,-6.628151192859187,-15.283034985275883,-20.18891172553374,-9.169772070639825,-1.9315501997458817,-9.816712750897668,-11.50403907865261,-0.9049838102048291,3.5329455309943256,-0.9085004526978349,-5.270261510564211,-8.500637184835448,-9.170262468894318,-8.869412683673236,-12.189605931388952,-11.515709126918612,-4.139892367588354,-3.7763291832432415,-9.651195280951931,-7.689086621975287,-2.9641766801050977,-8.426012732824901,-17.738012269478062,-13.878788688288054,4.990952249864544,20.449763097349635,21.904949588559965,17.710908828364367,9.610293149974147,-4.194798628645587,-15.911669538977728,-27.800400169217774,-42.89360820615174,-52.8021161233685,-64.32218303257613,-81.11359143815528,-92.6952129154881,-120.65372559698142,-174.54656401100644,-169.72669554835872,24.977241208136178,416.97751518771287,704.5220041764775,508.38633446121173,3.1463280263731725,-230.38529574390793,-124.76800022082894,-77.01443088439986,-135.1297367353293,-111.46142223314278,-64.79092600054335,-70.94692154061381,-59.414504086279166,-32.47397830302143,-26.04946413021409,-10.889619898084414,7.128243476146948,3.4339731743924595,-3.663292739447023,-8.221145290322461,-16.69561911624575,-18.373157939857382,-17.092799058002175,-23.68506177725787,-29.446409624793382,-30.229459635836314,-32.53127098586751,-31.71470661477574,-22.174835966380584,-10.959419541047875,0.5677402137893175,22.457085621076416,53.624016873068356,82.6139646790703,109.68762898634118,138.52383366307967,157.44701889112122,153.20698408661121,127.222746196135,85.94541508354791,32.90043172377311,-24.23535992125267,-72.47802009817616,-103.13489712438255,-114.75464888651996,-108.48108137485434,-90.38540643325535,-72.37715704431008,-60.30511734624438,-49.89873377174118,-37.01214096012278,-22.04090125493434,-10.397276322590592,-8.017371673141593,-7.469703589868271,0.7071212164379546,4.721409593826991,-2.8276959015976733,-2.342627761704332,11.466992049059211,15.760295508214874,6.7280076644497075,3.3497830344735453,8.697597352018766,10.723056910002754,5.176125764743599,-2.7178458275141946,-8.653161602075222,-13.410621605961147,-15.86257824871913,-13.076919473518076,-9.73240806718664,-10.269478155220437,-11.502149846023919,-13.75050728287544,-17.866103801924844,-17.53685323112803,-9.98075813371882,2.98997038801639,18.157593612330807,25.90821686245524,22.888184829527624,16.038197123206594,3.067715683041019,-18.92798775851421,-37.48680667010147,-46.805160843968785,-57.52455127309283,-70.65140576356573,-75.45555004983783,-82.53702641785998,-120.10722288665004,-178.5028306962603,-180.2198462906035,-4.505433299575543,377.2218284027055,684.5138207640894,524.6795285510899,28.52656901017285,-231.2046787049359,-132.9183637683077,-62.717537839872875,-119.6696565079792,-109.73725937271065,-56.6647546274225,-60.10301766189612,-58.64226923847578,-29.292814468257475,-25.01450834900145,-28.617379123377653,-12.975979901380096,-0.8126729713168999,-1.5812893495900582,-9.239637994183624,-22.296433532506498,-28.8591014190732,-23.420706360860624,-19.12302333154986,-23.75293229655911,-31.399785683741463,-34.121510369439086,-30.359255007491146,-23.677939962242547,-12.741412835511756,6.238212240859713,29.744723825581517,55.13665655612159,85.08508890456733,116.58802856882707,142.28163916716056,156.7412798123542,150.78849528935456,114.60996724387768,54.44106137783051,-6.981562610843157,-52.45281723550595,-80.63465677709888,-94.53955193166233,-97.43415163597219,-93.66659669976137,-81.60817416214485,-60.951404664197796,-42.35672386516825,-33.18578329452157,-28.474500885682794,-20.737798314814025,-8.68348694639776,0.2630091235631582,1.514007182564871,1.776606053640041,2.492697842715966,-1.0257800945508446,-2.360671942294733,2.2189694510707056,3.8549296722471063,2.511900053234653,3.139237319363829,0.22480042468903605,-3.9150084993838883,1.7650929576122047,9.214549840136277,4.60022307713772,-3.0430371940088214,-4.566893023702637,-9.41723963757103,-16.66502992932839,-13.440519952059251,-6.720397423595383,-10.075783588274057,-16.983436585720618,-16.414822915285598,-5.195163200166104,13.831431217326244,27.556851146839385,28.601067356087015,22.693580406205747,8.523792021219206,-12.54265515117934,-28.450333541024094,-39.39895710219119,-47.87222845087771,-53.277434698558764,-67.67760417634463,-87.38572759868106,-104.67968839092671,-145.86532831151015,-193.3493703714321,-132.20968439411894,142.41991379267577,539.8905776282024,690.8128344203068,345.4568980770907,-122.21273969989642,-208.10825532200943,-75.05988051096014,-93.24842638937172,-151.46568929328902,-93.8915331052205,-60.01316928306236,-82.93841057777557,-59.99340573599933,-25.425166712251638,-25.997305626544716,-19.683796981801876,-5.519286811091339,-6.161680946868254,-5.61711778253094,-0.7740495092406228,-3.5001646378310394,-9.087574402455575,-14.954472547190091,-23.361485091934153,-27.424936562219536,-23.837515468533006,-21.433793248020255,-25.087598545409218,-24.532756804715746,-10.253634918934969,11.908564796632461,36.55900157826649,66.8751551089266,97.10789573273104,118.87317586802779,136.67498747886782,146.31821227884865,129.9842554321179,88.05704775968039,32.971342704748686,-29.32731630241849,-77.76386711914074,-91.4820178172187,-89.89225816959372,-91.67597848591484,-80.87216558380442,-59.77557545555251,-51.060741454340025,-44.60324496140959,-25.361320388567997,-10.48557036381176,-9.495709091083825,-9.408124579746197,-5.290142772596905,-0.1254004278004892,5.387433178818256,7.9216816433211985,6.311880236729603,5.452134571421597,7.3560593980875,7.378789780136941,4.186300547155493,6.299920652404177,14.09287700758366,10.178034241484616,-8.349268091274832,-19.37372653060809,-14.73266762624154,-7.920986541886689,-5.83013102163398,-6.820869179915261,-9.232836440856081,-10.698257860392253,-11.583495242726332,-10.75900591233415,-5.113181259331867,-1.1031400232175628,-4.041795817687346,-5.4770748514783385,-1.911145930022168,-0.6360349522536479,-1.1865114995928003,2.00677835591023,4.280212901471073,-2.6985326496492945,-14.362220282498688,-17.08052414019196,-7.2021482327265804,7.098024578841132,18.768633746653272,25.70721623344275,26.97911297092488,17.766861533332843,-3.2973550369526734,-22.43759926211657,-32.543536055116235,-44.0584382913697,-56.076540351336575,-65.29014183532473,-77.66552929423061,-86.34034278488556,-106.67592135160707,-168.78919717365525,-213.2507784922192,-109.52432648069674,214.78600965818984,625.9073008052794,724.3782606649526,308.39184885099746,-157.09878605479992,-198.97867809915755,-71.28704730696492,-112.17665732331525,-157.30515482811484,-92.03003698875801,-67.89030181911932,-83.35988724792689,-51.27893923583406,-21.89164762637184,-21.39337102181475,-10.697964515533329,-0.9264550256758692,-5.476369113475119,-6.691918397651174,-4.644226865779716,-7.099019872997303,-12.505076374783789,-18.986219765893694,-23.82300795747484,-27.469873945803258,-31.03423329540976,-30.969468343302193,-26.555490708925543,-16.93081505210379,-0.6621827253586581,15.777958702730698,31.468604678300405,56.41273773984017,90.50441478615583,122.91973993544507,143.72615451378968,142.448991777998,117.20281119514706,77.93866536928248,28.897405538215178,-25.473211763679316,-66.90322328660365,-85.84175727438628,-91.78796352996622,-88.6184049413151,-73.81651921672218,-55.272847948228886,-41.47755536758784,-32.083458911219786,-25.878384139328432,-19.903719094319165,-9.828968997819295,-0.6201943694373178,-0.39553580637682373,-6.186413203774066,-10.066149317261265,-9.83115403182337,-5.965974044691876,1.759334484210859,9.824543380499676,10.021939884632726,1.0635626939626501,-5.388037285121635,-3.2838874416910873,-2.378462852333165,-6.334128993591214,-6.985843909985068,-5.748356082189417,-8.885428717226338,-11.16783658518261,-8.687329209575472,-6.256338088276447,-4.983618989202428,-3.964434515151387,-5.028229048083171,-6.290776817053667,-5.151003581315829,-3.119942751009958,-1.489939666211498,-2.080725413833374,-5.544227324054854,-6.138688654881147,-2.27294024278641,-0.9535404954541837,-2.057690323296674,-1.1038776649912379,-2.740840909264577,-7.245107035334129,-5.605530638309247,-0.7001403483040107,-1.2018685234981534,-1.777968780214536,0.886158016699552,-1.5669965828492307,-6.7029066385682565,-4.232507151600961,0.10122678015151276,-3.410164802626724,-8.800854853268428,-10.573985760102397,-10.93744188218465,-2.3584980420027053,17.54937308972891,29.564215139276623,28.794825532432313,27.065644666572503,13.912726163635147,-12.76306389366842,-27.960617230340514,-34.68891423506837,-47.59096017801163,-58.14892327751735,-74.39908847080275,-98.39828724567512,-112.74307677823109,-146.40180509342403,-203.69930752579546,-171.90210420399063,73.41916209604625,497.3424322312521,770.4700465651628,521.5816772942171,-18.832827817134024,-230.86665023451198,-106.63551197701571,-91.587018342249,-173.78680645703338,-134.3964742692074,-82.69660468691015,-96.96057392578044,-73.14129458498716,-33.73155307814014,-34.0113630817889,-23.864354593236037,-3.94687222476756,-7.357650316963266,-6.986376116367191,3.758812774829579,1.8856459812113346,-5.937927149674438,-11.133388031060345,-16.581305211459874,-20.499834568131245,-27.352075938848028,-36.407203867523286,-34.98013470046816,-25.903434072654697,-18.482096690909298,-4.022911419479813,21.66517364379254,45.4593629378936,63.578211109675806,85.67801152702872,113.72563667782342,138.06453852300393,144.48099107406253,122.01167601842357,74.05001393311937,16.11737767814087,-36.66695389566257,-72.62807945924354,-88.26213483337767,-93.37455775937951,-94.22381394476577,-83.93240500868677,-63.769302899338484,-46.0097568511331,-33.164246731051094,-23.433241660058986,-18.173638805646924,-10.18832508196928,2.9236390882691374,9.230210720408532,10.121754130845417,14.04461248464529,10.460324554502947,-1.297544054931981,-2.8521475564803715,2.22226916542471,2.611181571982118,7.882302923674269,12.882583900077831,-0.6154361886237751,-16.855786353647154,-13.86408018435426,-6.352749729716098,-10.818249989595625,-17.280154367700796,-14.60253993367737,-7.571557602862802,-6.880119110857137,-12.537424571534984,-12.933900489297113,-5.816768445890229,-2.363653641379628,-6.119906932861802,-9.507288195172299,-8.441827008289653,-5.9789390902930535,-4.752165421460955,-3.679235888249835,-3.6769786086673832,-6.026303366877281,-5.499264185713246,-1.1323181208030384,-0.34096614306641015,-2.6673635544723666,-4.097653606056982,-6.3567735336007765,-5.293162461682513,0.5031665333331397,0.18673900665184107,-5.6118826348523445,-6.319552804243926,-3.4339030488051154,0.11454754197251393,3.0991910472592927,-1.9138036357244754,-10.658564807089832,-9.829750687839228,0.2261787137006781,14.236532907036196,28.38380323203497,31.349143259396495,17.737659868407402,-0.8825701864126128,-14.404002186690931,-27.669752176853937,-43.38665530802025,-54.74969291551675,-66.78239811647695,-81.51407520648286,-86.0281692657787,-105.9586853615915,-170.45363639738875,-205.681415429533,-82.07769763715004,254.95424489508014,641.2567048085785,676.196644551564,233.89373427773526,-178.30125135265388,-175.54665393095752,-66.69223009336386,-116.83951914643848,-137.95692862537538,-75.57802573296466,-71.97741793641126,-80.50045886589197,-37.00857797307322,-16.03528129899376,-22.02776385028843,-10.892010024760241,-7.995146456840613,-17.377533731666272,-9.995397200215551,1.0145412350522491,-4.745939948588802,-20.450928062891588,-32.87265382561296,-33.189632509519285,-27.891381484369244,-27.639411625957848,-25.853271723469142,-21.384379810582367,-23.025650406789467,-18.999753855555454,2.9932184234314185,30.307754529721635,56.59324744814647,87.71511399421458,114.55310929766313,128.95301728042574,138.30807287911588,137.5873361945485,109.46134098682188,55.641937065750035,-4.9369572597505,-55.136841139792985,-85.75396075677993,-99.59431623783215,-100.74380071511814,-84.98290777699621,-62.78756860047328,-54.73562925903625,-51.90692011116583,-38.1025708110464,-25.431753290591555,-17.756293652843187,-4.4862398330826245,0.5558288820337722,-8.658031413558527,-5.178630094396741,12.265290791792104,14.020924998504178,1.4546981129392407,-0.745015876105187,6.5965612832560065,6.520792212162904,0.6422220726624825,1.7353439134726383,4.945731859588541,-1.777795825780169,-9.879746282161026,-7.8491161324631875,-4.461758559795111,-7.725551083380061,-11.385911749254774,-10.256172772833128,-5.850492850033385,-2.2772084433352973,-1.0953018841101212,0.9692779775711964,2.404880200101749,-0.7027302563147533,-2.155157601154432,1.7897826613775534,2.5461738641004255,-2.761641933493788,-6.873560617657203,-7.09135701245374,-5.1375840405963755,1.6797072877059014,14.276755134833623,20.532760567667324,11.213349309088539,-1.4025557495559653,-12.418466171693987,-34.984621574928134,-55.31167514307019,-54.472817553523996,-59.39656961690983,-79.03367675703417,-83.42535924793926,-96.73133980805589,-152.33213900995972,-186.37313305142385,-88.16419514578507,216.3739263474549,603.4106126633515,661.7842487891994,227.52463416135078,-194.17006516202753,-191.44647866196772,-62.31847113904246,-96.0683272306596,-125.3989210397014,-76.382207646262,-69.5162350368152,-72.49457507608284,-39.61683944437357,-33.817149806407336,-36.76415778427501,-7.950457815371546,2.1398116934553357,-15.068183272768973,-15.985749160633318,-10.361260696176489,-13.286802024529049,-12.212675746664669,-14.993850151100338,-25.420917537563266,-29.575275883992337,-32.87527590185118,-36.34443170772653,-25.07674816141013,-10.775518857860819,-7.418352693796285,7.0551630305864705,45.07465569001377,84.79186809185401,112.1941154180206,135.46890302337232,158.25243187581168,166.2740696037486,144.2301973289952,95.88040917865406,36.43920582214578,-22.256742483370317,-69.48629156021528,-95.16229476089428,-98.0784126082439,-92.43283351476472,-94.41817364812657,-92.21698666223028,-66.57057961203478,-40.01573799425386,-37.7947386629578,-34.95201827037702,-14.123608125517492,-2.5730123149676167,-8.946632017952822,-10.226186463616909,-1.4132663413644053,7.351682874374472,12.572447039564,11.420045481826905,6.157686878344066,3.313265627593406,-1.2938575861061583,-9.237312057847296,-9.177421428055819,-1.6862322079978558,-0.6231275437809423,-6.26363549322952,-8.571613334422821,-5.406796147664181,-1.9278231729846045,-3.9106165289049084,-9.492045418340417,-10.947394276873833,-11.08498301431517,-12.583528896437734,-0.6109083054027069,25.025463410714288,36.52477231723338,25.075218770235196,6.851210902758367,-10.767141660816065,-23.472451210167424,-30.677974602992666,-43.417649646896095,-55.64010766251789,-58.336461938070244,-67.13434984111196,-80.91487348260829,-92.6832797051799,-130.57665047674828,-183.73588123321014,-146.0823100399163,106.82817330969931,519.3213816047544,704.4683954469924,362.37312404270136,-130.20483783250796,-227.55173132938177,-79.98594650125185,-77.67147859698431,-132.03426699841083,-86.0672610971726,-54.87729031851262,-69.76230127228217,-50.45972197794152,-25.75054426830782,-23.63851085741388,-10.595608221900264,2.9217547795807945,-4.980878137230917,-16.947845735127146,-18.353295881055846,-15.887632309939983,-21.436124928687466,-29.745379530075095,-24.9515380195922,-19.20077146425018,-31.804209474859874,-43.97139763245976,-34.33155841872413,-16.049140789486465,-2.021690415494044,17.22589407786279,48.56369002553328,83.1388149529974,111.25565789910274,136.54035924106338,166.4893017753233,185.6559611580862,160.23540368631296,87.81522394818771,10.769463993576926,-40.613406578980005,-74.90160364369086,-98.8519443291461,-105.24302457848131,-100.62782653735124,-95.16445208676689,-81.74812099073561,-58.39477833215117,-40.33731346748617,-34.086166710626514,-30.479106384326467,-23.72011071418209,-15.49202891295798,-6.582896352702711,3.04505150571935,7.864064778878234,1.9311892240496782,-5.636689227362989,-2.413590777549283,2.8438732631783346,1.8343031192888013,5.181754686658279,9.548653295543183,2.114534197250441,-4.108171611765361,-0.0685106632922885,-0.7162732383213406,-6.110104431133909,-6.824548614805915,-7.451342605895164,-6.650938735603226,-5.31107899948808,-15.352873675233397,-21.12871466837529,-0.537333244764242,21.7802728376977,21.7572835298918,19.58977347701681,22.837988163001135,11.45974814753831,-10.50268406213545,-27.009961925893847,-40.539466619460796,-53.21461873506843,-67.5414824096362,-83.89612127370245,-85.74606621667104,-90.41553402686364,-142.45673778195982,-199.6055446016441,-124.81113437896911,186.83716548236484,604.3132211236037,694.5130546234211,259.27652377702,-198.48049330821553,-209.5329312447715,-61.596982896804384,-97.02438287541898,-139.63773574114418,-76.47550684309087,-58.78128618666444,-75.10280776235889,-39.43645378505852,-13.578001149560563,-19.73289915100768,-7.652886976714591,2.8677491833761284,-6.960032503618667,-6.243022630354687,-0.43172385760586174,-9.436955553004758,-16.390890036628964,-18.45325287703188,-32.95695676714879,-47.64004620053191,-47.24271137566134,-43.553400317417314,-37.56016366291477,-19.707414933870307,1.4879471229872703,23.476044017688295,54.410177287234674,85.92223831261941,112.878496247252,143.71874051647416,167.728381221406,162.55005082745095,123.84197762947517,61.52315778768836,-4.808562740406202,-54.41707120745725,-86.59899536201101,-106.95868953147689,-108.25608547847537,-93.34393851586175,-78.47251989182539,-64.92629501186576,-48.576889184798844,-35.541055175204825,-23.928830945053555,-11.044401243814463,-7.177420861746494,-6.982354370868961,3.0971073688896844,7.724392294343355,-0.8864377586638525,1.2135083833784428,10.229381166923996,0.5702812792303167,-10.579617174957246,-2.166030091402609,2.289972366127401,-5.830828503642881,-3.731500660396044,1.7377873128734258,-6.047099246403278,-8.263770682671183,1.028920962980136,-2.4563895428065745,-13.34713127039951,-9.75095398081635,-3.5740366769828817,-6.523525550841512,-6.802194546390926,-5.322942999077515,-8.759545862537037,-9.003745497608543,-5.742335489952943,-5.297378773588115,-5.837072255288028,-10.711090652871732,-17.37688915949444,-6.460144429138733,20.207391504460492,36.416489237747854,34.70173840377926,21.904669907308598,0.7383977942138138,-16.98796728568689,-24.86687503280703,-33.67128562222817,-43.02150813171308,-52.52826423410421,-73.06361554165133,-90.45852995463594,-99.81429955931969,-136.9912340151926,-187.78563744917193,-152.94822722478182,80.67095328465089,491.3877543445711,728.2698507034568,432.6642217300281,-88.65377715696812,-236.38228728577272,-92.56568981268124,-84.62879924506433,-150.6930601210082,-98.96393153167736,-51.877488277915035,-68.22019010636066,-53.380704849260326,-30.7015046905711,-34.52696856572967,-19.41678577870106,0.03203496450014853,-5.448074632085678,-6.955769466366348,-2.439704167267628,-11.23797314421052,-18.270542577966662,-16.04392343866524,-18.37594834452154,-25.10046275602975,-30.6450702415069,-36.42848843665715,-38.9534503253881,-31.35532226047322,-12.695946855874539,11.602530202948897,36.51385106668512,64.43953687265571,97.45408381562163,127.50824566378385,147.3393897024058,156.7039117379694,146.85063324860917,103.12565060537102,33.75656208868821,-29.92258407455714,-70.08255830438165,-94.39065487545055,-107.94478584227778,-102.75237130744858,-82.89951728638296,-67.60412072728991,-58.10697132441031,-39.75610092482746,-20.413629038453063,-17.53498696340291,-20.419390189694006,-14.683388368066314,-8.859040789566574,-6.492940103969541,-0.2382934093730089,5.658703051997108,5.899397165566564,5.179031275348422,5.283581134241183,5.730676250432528,8.453806492492909,10.208902535573788,6.046766002914243,-1.4805339128808175,-7.306903909501431,-9.89272760654623,-7.977166388675702,-2.9642920515305846,-4.617296185685575,-16.725275667809555,-24.531957222239832,-19.16654057846494,-13.01208374019982,-11.671754372111804,-6.704090854044775,-1.4007649273122276,-3.670882753881884,-6.040764691278989,-3.3456929470798205,-3.5605132160706496,-6.331460499949911,-3.1807224909184084,1.341400472178476,-0.6584955483454067,-2.6788386002971762,0.6750030932572564,2.790148214726683,0.9171865490298199,-1.6562947735401394,-4.766720514292066,-6.8485438639796685,-6.972611086974617,-9.233431991950411,-11.878814917100176,-10.289469976661135,-8.030354346790485,-6.4876433403489955,-3.2930206430434943,-1.9354770687267173,-1.838449565485516,0.5439092998487256,-1.179660392028529,-7.925788480237334,-8.870557189036875,-2.016696886668929,7.464897996601828,17.130262352120596,23.683929084692814,25.421160840615837,18.90872427150007,2.7615485584718833,-11.08987091108435,-22.78486613612484,-43.4435582886848,-58.16058144297707,-63.33538247879547,-79.93057278051256,-95.61294637597382,-113.30973840850815,-171.30883673678852,-216.97594025336377,-114.49335991074413,215.89860368870654,647.0096476213231,760.910627899174,325.34660467667493,-172.45372212249373,-213.92373519979103,-67.19759601786157,-105.79991584366635,-155.94960947135573,-86.81409343717712,-60.77638908505855,-81.90023296804644,-54.051845360425155,-26.834281061776615,-29.783269793887726,-18.747832453682115,-5.949005611589065,-13.368239484730143,-17.599998317462834,-9.620402344673096,-6.153400116972987,-12.871970060061448,-20.1350506518137,-21.238254699142786,-22.254073721322502,-29.21922979517081,-34.73891783887067,-30.1576193830276,-19.363761302376687,-7.3158443107226905,11.351623425078923,38.65008794924193,65.57275516546152,88.70747917670775,113.41507100245896,137.3524092342112,148.04579884986325,132.99325417467804,89.18196262891081,30.88428510142539,-20.367686780887585,-56.836039772021785,-82.03331174756487,-95.28387397626756,-95.2467954999221,-85.9717076349626,-70.56459285196334,-53.21329006198412,-41.516404822052806,-33.67155756844467,-22.15873261661397,-11.919700132075512,-8.761962039975696,-4.843792899956171,2.7819748920947163,6.632629255900984,6.189782903770411,4.392550947946255,1.4065075196443182,1.7335973090608103,4.837020293814636,2.2571188453348725,-2.940223483222807,-3.65637645573943,-5.515460877938304,-8.342023552724251,-4.89636985079118,-3.704825108174651,-9.158357023812904,-7.28906772171065,-2.1069274854161506,-7.873064408018617,-10.221841467710416,-1.1810699755280183,-3.041244228258364,-13.842240195077814,-10.03492406607873,-0.7666771968503641,-0.7770113715931011,0.5525712738673301,1.8075445887835295,-5.498960209419837,-6.817818994274557,2.6751042845681763,7.338326643090307,6.5188623625318325,4.537093606219505,-2.944245818865106,-8.708541935311771,-7.3882516990092615,-6.547807405972108,-3.077650633804353,1.9947660642533052,-6.42418998360842,-17.207134426299373,-9.321942332038354,2.627363678335768,3.1818068241658644,0.12889429436000555,-7.697084652316812,-19.001690617750914,-16.73550389773917,-5.006492964711059,-2.4451180282537646,-6.1290240543611265,-7.767111352234268,-8.234361092409163,-5.733570376216132,-3.6545218938022295,-5.739032765947422,0.31991490934337286,17.07826081499323,27.671924905804733,29.552026679147257,25.315932055987613,6.278162793821041,-16.296493595042357,-26.47154257588972,-36.61281889922745,-50.995853354200484,-63.86866389337529,-83.36283662401213,-99.69530189761974,-115.96970346763445,-171.388320605834,-228.66786823688278,-154.75858714519958,152.36604725401003,603.9724781602856,799.0057745225681,429.88053093044243,-103.19686466875345,-219.46879153554733,-85.48669650294804,-108.76523907611795,-167.71359017241053,-101.61070628385045,-64.95314831279691,-87.07667835301693,-65.2621717638313,-38.9728975629189,-40.63695267775165,-24.422321743823318,-5.0586663571652934,-6.445461137536629,-5.859659170466019,-1.6620903853370628,-4.545254254515182,-8.140261600898485,-12.169764423351651,-17.59231611444261,-18.908771262836787,-19.273148728256817,-24.13488515611653,-29.153472552936307,-26.6670859593994,-15.548249584240883,-1.7981151687680583,13.971383605008805,39.54693730665254,73.3005016727139,104.86621520074445,130.54113282191508,143.70516562986649,132.20179309841097,98.03988666481155,52.07119542781355,1.1838331874998929,-44.58442551504961,-76.52350561169632,-91.28433026088184,-87.07571915039222,-75.40280575415568,-66.7390567756689,-50.57704200152094,-32.94092839951982,-35.06670464423131,-38.27036195008781,-20.419852516366177,-4.576237045020161,-1.9063059684603232,3.190493409617451,4.510754098055784,-1.7910417272512085,0.5422503464397863,5.024182947747434,-2.662273485336822,-8.700871448897747,-3.1714460469766035,0.4293088039490538,-3.7407251257394396,-4.800261497297679,0.14590241701498563,-0.056617298493053525,-6.123014008109351,-7.009411645791037,-6.85922600951606,-11.892009855343543,-9.004434001778483,1.2723204545141407,-0.8770018367431511,-10.528161482151548,-9.170246882444452,-2.1146024049440273,-0.024782564678913488,0.025961451352059406,-0.19874781843125255,-2.517282210108857,-4.754440229636934,-4.597247081386409,-3.651283014819108,-3.763289216278551,-2.5316629444999155,0.556351700740036,-0.36249459997891176,-3.830928223371761,-1.8687201341188935,-0.6143859175323776,-7.833451091621991,-11.67956465583962,-5.297870230003209,-1.2264181957997922,-3.050211845246044,-1.7241003297263537,2.6744289754328836,4.015900121710288,1.5390718697139976,-0.7025786976617052,-0.7291421788700063,-3.1892640778269623,-4.663026622610158,5.694907034871688,16.945080601483866,15.295930275498998,13.675776531302084,12.557359144137173,-3.9179035897209964,-24.324117110895926,-36.68972839979782,-50.5115542278951,-66.97609189052163,-83.64205058130702,-95.30728090172042,-101.70583523182756,-139.21589621992806,-206.45303785688802,-190.35085709591175,43.23213917708384,475.13033383869487,772.8652503289065,546.1132749033525,5.082298922759428,-230.34830575666751,-121.10426521758917,-95.30536667495753,-165.4902174588046,-127.93191699250531,-77.23121938195987,-88.95684809206539,-67.32205161749357,-29.94096201621992,-30.92753760497511,-25.293604086844063,-5.9186247481152385,-3.2264497764819726,-4.8188241357877715,-4.62065025237928,-8.650266531722124,-9.404155555565815,-10.58155459758574,-16.586179605141968,-20.78400995670983,-24.66157921383619,-28.57312724277343,-28.88204268430366,-27.21572837220628,-16.833871199723614,4.371419632058739,23.069178453494885,45.9037960405115,82.9873548001526,109.58783887050132,118.55062513740882,134.9697408700775,142.91824483122153,110.85966686167106,60.15362848668045,14.515718896287325,-33.0273501402814,-72.18615731495109,-89.07514240230901,-93.37738894945008,-84.4375057653838,-60.1752388787164,-43.89214867220733,-42.9144630094022,-36.792009116741404,-23.76942191861753,-16.548892065609188,-11.43663852036174,-2.6147565770096186,3.908245147418734,2.689525503934375,-4.286808899823669,-8.111344482508505,-1.6091435528983489,7.514573160220728,7.491675903361022,-0.05528109886300925,-7.509045597859387,-9.076258432046068,-2.609044990680804,1.4729828650110672,-6.1475449772782405,-13.88545330770999,-11.665831894705075,-6.368044721896052,-0.9714931837923846,2.52505260252455,-3.2555221713619193,-9.923062741232409,-8.74819012589524,-11.368055343015895,-15.526304877907304,-7.914716318693129,-3.1565649507823874,-10.072774557405996,-9.168120157332083,-3.5029499333708927,-8.599145094624769,-8.362370257887918,2.363643403058866,-0.734176960669469,-12.460926768781796,-8.8084178580309,-0.19228932162855727,-2.1009415023273874,-3.909782977339412,-0.5038984914156952,0.6924257709961426,-0.4153867195608001,-2.5405485504681877,-4.478757574307765,-0.9857760670747675,2.6218039448620676,-3.9197600065690796,-13.801424468222342,-15.35154910996599,-10.10516904479895,-1.6438148980383822,9.637027588616748,19.165661756628353,23.14566757260158,20.86387358382651,10.516361635945277,-6.383144867635206,-24.943877746133815,-38.09547967191998,-41.78303462327669,-52.44181023652101,-78.76382011546416,-94.41723771106072,-108.87483318324848,-164.55245543036912,-208.8522823539718,-111.02086697208074,198.4784175239646,594.8443647010323,701.3230732033641,310.98926731997165,-142.9451350913463,-189.7179835177481,-64.07605581559201,-105.52385207255568,-151.88329358670003,-81.63166540097251,-54.277661700346364,-72.99361240418352,-44.8808219647412,-28.084804059619884,-45.09848990026485,-33.21501756622051,-9.748022459133239,-9.336287283017205,-7.87890713765319,-2.3682467821298,-8.330392926710989,-12.685502655247692,-10.522674095303664,-13.769505627510839,-18.63630286378206,-21.94983794658669,-29.964444849391608,-33.053233576826,-22.21342499596289,-7.829969831414353,9.012622771743672,34.46729915752279,58.22497848415931,78.45371826090914,108.14839560475947,139.93461427363047,154.94857100094808,146.02729727963444,107.19915975602032,44.74929095061702,-12.226562905233274,-48.99447308745537,-75.69235438035062,-93.69535806104294,-96.36101447039056,-89.2445183451409,-79.77593167315808,-65.5111216462986,-44.3427732553254,-24.760766719582946,-16.367083313972792,-13.37455414454302,-6.289818896055685,-1.3729718972495775,-2.6579873470493673,-0.2556339901222717,5.5090714820531925,5.649881350126046,3.4306644416933736,2.403738280694915,-1.4088290636454381,-5.107229801569698,-4.034688468229774,-1.9927647384202185,-3.007635016781716,-6.276372857446361,-8.582673463993522,-7.708996386899869,-6.1918173595774775,-7.344853442207272,-10.487763552677348,-12.398303578945267,-9.795206318634378,-4.5637426247706046,-2.6311418607670873,-4.824452084179338,-8.154000169473616,-9.264067980170887,-4.9595888635369105,-0.4716402443887837,-2.361433146172306,-4.356928070388598,-2.944273537425122,-5.280493169451905,-10.538173185304991,-10.789209048476742,-0.20921457513339803,21.292107004413293,34.70011951974564,22.711567006289393,3.8554859858049975,-3.8741538325123326,-15.973085905845323,-36.20218633034038,-45.29868830829729,-50.519174025872886,-69.5100113544554,-82.65464812390653,-80.51896581547435,-103.93715199431094,-160.8234693050318,-171.93832321152126,-24.314289415201017,321.3183306832892,643.8478610179701,553.2619877490275,85.67062931966204,-214.76821141172118,-145.05003634739865,-64.02952227081528,-117.59287048210341,-116.44177140071457,-62.5978876609066,-63.55206153402561,-64.3556584428012,-33.94413252438832,-24.233224557412456,-24.254157128954937,-12.404455623571213,-4.890227705159534,1.882895175830635,6.894782582641403,-3.816283344440796,-13.20710374520298,-7.515519218529766,-6.750260734380518,-21.830565448552093,-38.52986250806211,-42.7911945848411,-34.386083354566466,-24.303691502947803,-16.849102334202335,-0.3380258498782034,28.676629636464714,55.63183785500703,77.45328129908009,105.9716156527089,137.2230288374683,155.19640882458802,152.84880864686957,123.35845682763309,65.31638177580967,3.365599223358691,-38.82992910379099,-68.63862989332962,-93.863947680962,-101.16622644994357,-87.89263676859474,-72.54481008332883,-61.209533702344416,-42.24185291800955,-20.274120433578965,-15.262957459981664,-22.278051743742246,-18.066951458249854,-5.846825237936731,-2.287662736261929,-1.2560041680112164,2.0018779739233903,-3.889713235074744,-11.763903995167912,-6.608137373159579,0.035248598718558455,-1.565399442705056,-0.46749870517208336,2.5843228732819927,-1.4045473849682253,-5.019311461035365,-1.989076003415489,1.204435235289493,1.8991401310179947,1.8739613351452302,0.683926170725762,-1.4332293073446802,-4.517944526772114,-7.396974907083669,-6.7821936317549945,-5.430351047316199,-8.212772777729603,-12.396012541263422,-14.21455569502484,-12.686857589644566,-7.763431770851991,-5.19055133163701,-7.9828255170533,-8.366483980678199,-4.949018394590091,-4.13296793364044,-2.6640291008696355,1.113632639983626,-1.6854281932764863,-8.21158999895875,-5.231021562057628,6.65648857424961,18.601510530036812,24.392701301627614,15.47852968912646,-5.922041817940727,-23.23024817264364,-32.84795924462051,-41.048356928621295,-48.97167031937026,-63.94722338181158,-80.12861068381612,-83.89538028554378,-109.43113583232724,-175.2513390442471,-190.426659722127,-31.971872491570934,322.59017064753306,659.0125434541291,591.1817745950079,118.03651973307109,-211.30618398231107,-148.1288016223967,-63.31477622465757,-127.48603597536342,-126.9619179777279,-62.161664152957385,-66.91085766268358,-72.23534596646479,-31.217352448471743,-17.8367238647991,-23.731713564902044,-8.023039718895152,0.1847749775606271,-6.241292010017531,0.04759962320869349,6.91357039690881,-7.549334516071813,-26.223187943318727,-28.92433076584262,-26.847229741670155,-31.625433051643256,-32.19986410882813,-23.463264245611384,-18.105326781163626,-18.48782035714624,-9.262197709408104,18.38812741935581,53.09946775705464,78.82493403089148,98.47672284215619,125.62838367464235,152.45825708967533,155.00323285965703,127.71408275325773,79.66428770399393,15.315084038286875,-48.76379097187169,-84.77466170694454,-91.9829383086112,-91.68855100844829,-89.44628650584104,-79.30860463707663,-62.37867534170019,-44.45482434239063,-33.69094071724943,-31.174371175102902,-25.659491377771854,-15.510261962009828,-10.297371715595627,-6.462014818637407,2.2736374143179496,8.347741309752575,9.503310916956645,10.940867306177719,7.64633483773903,-1.5243151673994184,-4.310797698279774,-0.13662898844460614,-0.80744446964143,-4.176295855647323,-1.3655940282387107,1.5539699308815536,-3.136945940142315,-7.65552952413524,-5.011938195823866,-2.2115972163036197,-3.6757094546343634,-5.159986907208758,-7.7811374822971615,-11.662239800065873,-8.734345642539559,-2.646263326639046,-5.303689025184317,-10.96216624169066,-9.174884174926898,-4.385151821128456,-1.8372537107549576,-1.8157483357762203,-4.249033281361662,-4.059551572781838,-0.5850982635253636,-1.6581919691096072,-4.497716354494644,-0.13029852921089358,6.296392242045304,6.311660517556127,3.2467476626639318,2.4304380886829198,2.4953237365589533,0.9764578056456896,-2.3090828582503757,-10.016404317590732,-22.153284963241667,-25.465395797034844,-11.68271163768678,4.164927538992762,11.196560385820986,17.39779023380382,21.890432904707556,16.837822360255167,7.158970459673299,-7.195705276112473,-31.45357966696677,-50.387373862313716,-56.259039811786124,-69.37640899885814,-82.98720846104986,-76.64555069044488,-94.11778107169233,-168.29334426110677,-215.32703001765137,-107.39217020274381,221.31312297759263,627.2989412713655,695.4173793076598,262.1480241680736,-170.24346151573462,-182.8565738894779,-68.4437605192046,-117.49007372265862,-151.11425535954282,-90.15169804357868,-76.27527740719063,-83.70051736302509,-45.578054005343226,-27.472568494181857,-33.4661862454694,-12.946512949988053,3.395155286856948,-5.17635175791078,-6.134690806684416,-1.7221500064719457,-9.110274637410097,-14.963512210626703,-14.637610995604206,-18.773668540527243,-23.226787614961733,-22.559454397006864,-24.00045693311956,-28.45086574859751,-25.24346970673119,-10.411052473442545,7.91928552718268,27.64136299815419,57.58045062590758,94.36854563453574,124.23026025158234,147.34002139356426,160.1181415210033,141.41320940354564,90.68812201340654,31.496899357437275,-23.703891775422594,-66.34161066998595,-86.05310611473791,-90.5818034427094,-89.2954141549071,-78.83327076438958,-62.77880542589055,-46.82741214415585,-30.423977185452387,-21.009818260877793,-22.238868849077335,-22.733619498965076,-17.218639543392868,-9.227505216349298,-1.198882620466387,1.7992658759499243,0.6519374460318854,3.287478075419381,7.318995458866253,7.929269921702376,9.006441337534307,9.482498363611484,5.802924165578943,2.671955447410558,2.1932604525877775,2.5001905778406632,4.208470909188238,1.3122295599724723,-10.77619785834794,-19.373390532538625,-16.512380442165856,-12.850591240903473,-12.095311348330103,-9.591387300557745,-8.714667597186656,-7.793123973036213,-2.7758057320334935,-2.969426523647712,-7.7046292686418045,-5.7098485933640895,-6.411687845421547,-13.840256779083216,-8.119692984513232,4.9744748675795885,0.18391340929500544,-12.102578570715977,-11.462152281633221,-7.8118628361243125,-9.65852444042576,-6.393907036232477,2.4586291948534305,5.68798385406628,3.844758384602968,2.7506427032624616,0.17843290553936697,-1.0185065951176266,3.3106289699782057,0.10321722896101271,-15.122335667538113,-19.062007714794497,-1.0512916533923224,20.169252270557973,28.50946596339651,22.258582213992312,9.505672888802266,2.7529221022380055,-4.571224232076604,-32.17553140362904,-63.617321511823285,-63.920096757588944,-54.051066973221644,-70.19590974994726,-89.27541610738373,-108.18138811135204,-165.84425231397947,-212.15044039309504,-125.28257051433515,165.15798150131477,572.2723438004637,735.8830200372154,383.72051189070146,-101.99654787538897,-198.68035407981145,-79.37555065163048,-100.94462866156202,-146.32020999872873,-97.1575934759251,-81.13058737281534,-91.3586291956603,-54.332077572846806,-26.49419605452892,-27.63814115370822,-22.269597191804515,-17.866258765530144,-13.090609468022045,-6.091386617086695,-13.045429757614466,-17.0526836719211,-10.49734793732075,-17.307460409828643,-28.934412174069603,-29.098881181297273,-31.935323358803117,-37.511533871611704,-32.83009061212517,-24.25083604816508,-14.786087419152036,6.175812212267989,37.27738707073838,64.49865857507118,83.4137064072504,104.8517265212793,131.36450864258094,144.64681916682952,132.4519475803194,97.13053487797922,39.946963649438366,-20.865876063309884,-56.27000673009923,-70.81957297334836,-77.93183578003543,-72.17426332814964,-70.08445273105067,-82.13948699923026,-70.89243234043026,-33.22789894341197,-14.79189425715903,-12.238120012585263,-1.2245543086217445,0.18129598404062008,-10.695277098638286,-13.119946792457881,-11.601543314581493,-4.415990842699476,16.191577456583317,21.780371877815533,1.6400467959776037,-9.265031607473565,-5.129206210258989,-6.571651657189227,-4.7348554395856475,4.677713464630765,4.068896413523682,-0.3857391593669748,2.9369693821617995,1.0383765173186532,-6.323497946975877,-6.533229677766845,-8.043971063754006,-14.77479383345877,-11.812104791498694,-0.8614041938986903,5.541885153297665,10.313054806165681,13.802618505855454,7.001547842307421,-5.3222079457392795,-11.87324465134278,-12.984734044328325,-9.946177315458062,-3.5664717703192963,-2.967903111341892,-8.382859281678428,-8.421352293117636,-5.992143264179344,-10.227195824794324,-14.802938565039529,-13.926144778131913,-10.057052066722651,-1.161855438400642,11.029976675138693,20.058517449600583,25.967909934591887,21.812412548174734,1.4118182978120437,-15.793865216456757,-20.228911139293455,-30.10529218899666,-44.03828783395424,-56.3654969462314,-80.20664498558821,-97.15612283754193,-101.44729270537565,-147.7918140235344,-210.41914522054157,-138.80447415728864,158.71701293666376,554.0179942156111,690.6223913583616,353.1965581287985,-96.40840479156873,-190.05100161758247,-83.40719198612706,-107.5863407061002,-150.79574312821208,-90.00129667126552,-63.72233342870855,-83.76736542671843,-57.02923865696873,-29.074801367982992,-32.50962402766582,-20.457046980332755,-1.7801151718436756,-0.3088602326719361,0.8051107113424507,0.829149306772921,-11.349324890709923,-23.219490101529644,-25.503382318838273,-25.484657479784065,-24.13453165417564,-15.692565912753754,-11.824796309988827,-26.018742706852798,-36.25154633949293,-15.381643703072678,21.078682451506133,46.48085665810049,66.02516864347452,94.23669404648341,123.75294926184486,140.38699908793012,145.4242853749557,138.6325223414389,102.44914248814048,31.138795032764385,-46.565281124728344,-90.74725502689593,-88.15618116238466,-69.46039694383359,-71.89980604759872,-83.68419672069564,-74.56361265593972,-58.9722643268331,-55.65300785904918,-38.9458701546674,-4.884785797316312,4.534760867372871,-7.767708529528608,-5.084765119089099,-8.405336903607072,-31.470811488070837,-22.60492917226539,13.971630284764242,15.949009581177878,-0.2552434134815371,5.297572679522372,8.076819710465681,4.2158343392659035,11.53996021579388,5.3623873105495505,-11.759955723904323,-9.057121434471314,-8.083087958193865,-17.037946454540858,-3.688169745759554,6.084681896282385,-20.506134091483464,-36.1056625037344,-14.020794386564734,4.77459416892893,6.841701361811655,10.21089935975085,11.262869915681634,6.415122297994937,4.627237751404168,-0.0475091740485567,-19.11101884664784,-36.82978734475133,-33.843284837244184,-38.99907270817239,-75.85378692969421,-94.47817243485127,-80.79693870366262,-112.32027492623756,-190.23902725795415,-187.586917133626,22.395902956455984,426.68502921186644,702.5148329801344,472.7719871773426,-28.9102239489457,-209.05134414285584,-84.32175988758488,-77.39755739552169,-154.4019494768214,-93.22457474590755,-24.56592052417966,-75.65001454304999,-114.0861980475211,-73.42002244171515,-37.249787077605944,-34.82562224548577,-29.859873967692987,-10.86064156476199,13.813999528354913,33.044028042827435,19.21670590119178,-31.679445474152118,-57.34784977303462,-25.01399968239899,-6.290418365204399,-35.73064628629456,-41.277374895969494,-19.928605283619248,-44.40622383120991,-60.55237785202219,13.129497679007876,80.87223936450903,78.452636571456,110.95056002589604,177.92147199479936,179.060736934921,156.86779648593122,134.1466509811357,39.871382858334904,-39.55042155888658,-22.81648965709026,-35.716888170035304,-92.97391537017184,-92.54214132385285,-102.24198106604157,-134.48458784079787,-83.53756853483733,-52.004267431840184,-102.03349683817609,-49.337018370959015,53.69769797353814,1.56437139739203,-51.169275061335405,36.745675620114206,63.90744806209554,-16.352245313513862,-39.58857319002906,-20.02437380757373,-6.421789100471675,39.44819586090624,46.14611951149509,-26.423552209572897,-57.10419596819978,-19.982973965710624,0.35784921866762165,12.715176042564256,31.353324034304453,10.960374381848426,-12.379463802584343,7.35670896471728,2.615788047752627,-34.66970113706588,-3.8803600151486464,65.07818496620732,44.95615305719649,-29.746017276908177,-43.1536001584733,-20.332936875632836,-33.52696219656178,-53.810933413392085,-53.31152442121358,-71.65265507206041,-98.24703439412235,-90.64818336967255,-103.86130399702938,-189.12175710300613,-230.91067119240273,-25.84860459034664,450.24969343802087,804.7047270735795,576.1930924466006,7.940971702830147,-234.00394113184186,-129.74436677298178,-92.90194904887034,-115.27523936560547,-75.60748461003696,-100.56747303770402,-150.92564958398853,-94.11384888557262,-24.03265892536522,1.432965488376663,24.333415784784478,0.9295565659359468,-30.766966932645005,9.535825011964803,12.959771455323438,-68.20554316994237,-76.1755723375327,13.714264737313524,52.76628462513932,-2.796746553700853,-73.4470134500208,-83.24968485400765,-32.24693134072311,-6.218505420754706,-32.18801050850325,-21.23786426267202,48.91958352906132,109.12140183989733,143.18183546084722,161.04846251771116,164.39695514354344,165.809787381895,112.32052243905046,-7.006786600708846,-46.95651765398388,-0.7227458752526745,-36.57989334262457,-108.77233994395775,-83.96004301506056,-48.3652863417513,-74.63963337602252,-111.90159473151324,-127.48863362313493,-62.9604693972456,42.16187457832834,21.086966459017965,-52.14927601473664,5.958668053750067,72.68629412145415,-2.3606163021847877,-90.62837173412277,-38.41097873236556,84.0344912362417,56.351748815554885,-105.26658872276441,-85.70076493795659,96.80152609150099,96.91906325746403,-29.20968688484573,-40.31124252190606,-18.163795828142632,-27.186259044189782,-15.474297381328672,-30.788029819203658,-30.00351024887671,36.16642843134101,34.66521032125728,-37.723093547500184,-40.637173805294225,21.975370420420766,73.79418994340725,46.14757651855944,-47.86261732348605,-35.119116658215795,60.98151636066464,4.276133082710553,-103.4594702751269,-53.36661946474951,-25.942424063102074,-117.49596384140276,-130.04850007430824,-97.29121170812691,-150.08180324769177,-182.37153976523336,-129.5549654814376,89.01154169005724,596.3136028059403,922.1083206013727,469.34850827815796,-228.850705139045,-301.043082266359,-48.24288888492488,-102.94483017630685,-231.68085919225783,-130.66152704716393,-39.31271731255771,-61.1378360181303,-49.302099641839014,-25.14765847857484,-22.830052483877395,-8.21389290956262,-34.861140113585066,-47.108296503540465,58.54496689176351,107.1862199738973,-27.62063684882444,-130.09746369019092,-75.07585893530606,16.841058528153887,56.78279873269305,2.0178039381089903,-96.17878243797729,-83.10050871364606,-14.766796405412608,-7.788264390089886,69.07694464751049,159.83965746078357,33.86551595761001,-57.878430542670344,138.50271422908492,266.47665563314797,158.73649139207606,95.39908054815665,38.917862304570505,-121.91269009984704,-145.87300501659865,-26.859598256610475,-21.155013612731736,-85.98529279214593,-94.23006365805175,-85.37092618017715,-50.923864401649794,-13.261586231733599,-46.88969640897706,-44.97063844466798,39.28492277998933,14.9207443941375,-73.68203314543537,13.284901252571071,89.71545649409086,-73.25438571092354,-112.78363357350213,113.5669781312391,93.60132014749952,-142.46442528674123,-46.91204061605958,119.2141112628009,-67.6096153411931,-139.2269359727874,94.88809259801599,96.91153563542474,-81.6569076176088,-18.70556693412791,60.49806709504857,-42.24817019677127,-34.213105801861154,65.5138123617325,-15.344308558941162,-102.76870751333054,41.98623369318894,174.80172292471156,56.00429609151598,-114.07055889153506,-118.58630117707645,-45.0479774456456,-21.59367792036208,-30.767088537451315,-18.08488503136352,-30.35838169173735,-160.8711981906153,-294.019076841294,-245.15930013616867,-117.80826779034098,70.5310280892977,518.7387715013268,854.6291419116181,503.6051999020542,-100.47790327705044,-209.6910419559542,-17.83496374003778,-38.138035017101885,-224.57891037492584,-267.8870532874556,-106.4642763887897,5.687022715234669,-61.152846108594176,-86.08971849760513,-23.748593553440337,-28.977299495681592,0.3554015752581261,58.302349892385166,-23.943999178402787,-39.598147985629986,66.20393271170576,-15.580713121516695,-88.31359600387927,47.46398514508784,-21.10337595548308,-178.89264368141477,17.160157367784635,115.47707512788155,-115.80591236836366,-64.43905996598585,156.429351174194,35.09894741097573,-17.350198367607874,237.22934236470707,274.47675433469107,107.35377136952248,110.89113991007848,97.67005540790387,-38.2160978955158,-42.00983743201772,-14.554469391655328,-121.56377649352295,-134.0551878832798,-40.49840163525511,-79.22000777087678,-104.34116236665847,5.549970847678832,-18.1129607866361,-109.55127458003685,24.79736711256413,118.83125882735341,-51.476132808312,-108.83088951178297,37.18103246446758,43.524295639902526,-39.22052944423956,-2.730732851664494,27.001386104166816,-10.96513216824703,2.672904574578184,36.79905767649058,-0.8221662192298211,-64.8387183135601,-42.78991714543898,56.234176649785645,53.944016659297546,-62.13804675804891,-51.96986400963618,59.05547714134792,18.534426178269776,-56.74578550475547,45.88251017447208,102.58012974667585,-57.69157382787774,-154.58606765205144,-31.941554461869096,64.56344291340656,-8.980877406014056,-101.50722235193113,-102.47258138722687,-77.91753147536048,-113.42362099579519,-215.75040359235595,-290.5665736419505,-138.08706578459106,331.75054345439173,771.3405478768402,684.755314780059,202.045563683772,-91.71016268911885,-109.07427377898983,-148.9113708986271,-186.79982301067867,-156.01240185827976,-178.54196003090027,-122.40429536675828,69.62998483512496,42.715575082125085,-134.44912623041364,-20.151264501456843,125.64595864988388,-68.03876084525146,-175.86967701432167,-21.06617271634064,-11.493402431966533,-14.358986599211605,127.79660838435012,-48.0539853792614,-279.1474914585981,49.727238357815,217.15068207487673,-189.77147804733502,-124.61958292718748,277.48341686423254,-37.65503223353519,-256.3256170579298,299.50689237552916,347.7220283541855,-143.37092407144013,95.41447006379579,399.5784788587613,-55.28107378623853,-172.5158448432383,241.59315536603447,97.1463769342906,-265.03538537975516,-101.66235541673055,21.409766322022193,-170.7579820755713,-162.64563472921458,-8.616087884177304,-38.298257750849544,-83.97527596041397,8.733391418802643,37.90017641893529,-78.28732149480865,-55.18998479995649,149.77867925153552,99.60015888589734,-137.85290812135685,-25.8689850195213,155.59553891914058,-72.1359344988183,-215.9667238686483,30.863584989016363,124.9129479752066,-45.10381286342988,-39.65840647577325,107.56419208105756,49.06903297331171,-110.3158627846449,-28.645690625969984,112.92259058823004,-33.372974771610885,-139.99631122935114,47.80107548322417,64.85683959828063,-100.23403763198607,39.15161793605642,197.12888595359948,-6.504887160165712,-116.85452904649785,76.1524882990038,124.3627294719615,-87.23204172619117,-234.975458684371,-156.5883467674575,21.976779681071385,72.94850735650215,-94.10675963175811,-310.6127672470295,-308.18153704799806,-30.600828985463835,313.7953675466425,577.5827707265335,666.7230199088943,391.00369392723167,-58.518093540994684,-219.44156389700652,-192.52264921427457,-208.514485781936,-61.093248864275985,108.18225049295407,-61.49327679545797,-244.84044150598257,-114.75318174097285,21.945979091497378,1.4974292028538532,0.06003894152327227,27.48156176234972,6.756446392926021,-28.848648631906332,-29.89648391482954,-8.347270101770546,-36.91182811331039,-95.29911292832409,-24.062720295099886,155.41707699578765,172.686676110634,-29.271772903535428,-158.35741994144013,-68.59069773284666,54.617956346312255,75.0231360591194,14.867086293888342,-50.30180699613969,63.089059078115014,309.44254760086653,264.0342311326924,-22.88191364656207,14.31185911509749,230.77576546243588,74.8187929788803,-148.56191713021758,-34.941836938173914,-11.078122415438202,-226.66625948866402,-195.50438495611235,19.91213286761623,11.722734485884427,-48.10015383107731,44.58629702252699,66.28318609488798,-36.15405431777111,-77.87709561892915,-28.878029275693347,49.22871849421031,87.32343689532384,34.417056287141065,-6.167959794591285,55.993185088395194,100.77113263761402,25.32514950977325,-77.03591082053728,-95.48108054681249,-53.248677580017265,-10.760205999907441,35.019419426368074,61.38569073167176,7.570358378038467,-58.03258507455671,-20.165081928554713,42.77269875478591,19.82290627547136,-11.072986543122887,2.4073781886396706,13.751062082443497,60.64247476172208,62.12805366785998,-141.20342901511265,-263.89526466010125,-48.51210375108417,82.71062787563696,-44.95698288627287,-44.7856131837547,-61.84324281043335,-280.8124204639997,-111.28112236644645,485.27857953404697,693.6336207680541,384.8250470088572,42.10301917009744,-143.64303099435986,-130.11827068233094,-29.96625191922068,-71.49848167624093,-171.44691381242504,-192.89969941330682,-163.3397539799725,-60.53271768304437,27.974123897889626,35.436467522650254,97.97155979906859,94.26337624141533,-89.5954765551378,-107.21563040192467,40.426264210716546,-52.25975303739517,-173.13479346476828,19.968412432863538,159.16093294784616,13.395441402462712,-54.3543354975983,25.130857922607667,-41.27173847501517,-163.45446715792258,-77.40629793708848,81.56123233271752,102.95439887814248,87.21558627022677,150.53987605472042,222.61011809409794,211.61281897005188,108.60230352103659,2.7799149942242405,-19.001405914137745,-16.354456867610885,-92.91491076550776,-216.530052561947,-240.75770445969673,-119.5781770815834,-29.21743559832325,-44.185191288544615,-0.9775634596208249,30.847840531556415,-127.35254716877193,-227.80329112229128,-89.96157605472884,14.745740548058464,-11.176985167106139,-42.59273275525017,-59.53671267887288,60.49112342633989,241.16930247818482,82.674804648338,-205.5511609272885,-98.69883109208335,65.93744695798692,-77.7838274036929,-69.86246904560242,135.54287850173506,41.02251772720891,-91.0992944268297,95.90415876236739,109.57238121230958,-154.26182897512777,-117.40752562329058,83.149210678021,-20.584372584629527,-128.22692990390138,-7.096582777468189,1.3849736501633743,-119.51752792992711,-123.05910402122882,-89.14987590192189,-119.8634985366509,-181.61131895850784,-204.29276395343743,36.94099843325927,523.283414677918,743.6272373227407,406.1679553350398,-127.78809438812915,-295.3438184118355,-54.67032824277509,14.173194010385739,-229.80010538912103,-197.26565704117075,72.40583013201001,0.8263009684002256,-154.86723705948899,3.221588839559434,59.059668280867754,-123.89247342490049,-65.53043341707823,187.04903420387973,130.3293424773303,-166.71127251671533,-188.30927558417332,54.329433902402286,79.23412418075549,-98.97862739994923,-119.0270374937777,-55.05951587687496,-9.125432175823864,119.2134910217149,77.73942742664784,-140.49976957815824,22.194268584139742,322.5310648133967,45.98610848836105,-256.15292257400296,99.25061139292458,348.93046009515206,1.1876750427924208,-167.56557929589928,59.43284000129147,69.97773365329573,-133.78888702013512,-220.0088993010635,-243.10778075344817,-173.84798339946886,-11.52753489807941,-78.80368245615708,-275.6682431423747,-172.8215365656315,24.512976071709517,-71.41057656371021,-263.66263532525534,-262.5802707451085,-80.61072549097594,61.514592281517366,-59.21501930338101,-174.94783298527037,7.825081146983365,17.235534539503277,-281.5212037421155,-183.13708091680343,183.30934730700153,81.83228100343781,-141.18449201555143,-3.7412479615249907,59.08697337867275,-72.96575051852813,-54.542315235831666,-43.30818899149064,-168.8027609159585,-118.31610924263742,59.304685658010015,-21.26037189271605,-265.1561667756666,-242.5539968725284,-12.289008432493972,-50.22891035121444,-320.0803237778275,-283.0547469238815,143.9575252018311,572.8894478565362,718.5115327220847,426.907350669871,-96.22885928685217,-290.8321518550191,-142.1200293935001,-121.95957205438225,-209.9358975586066,-169.1084906907128,-131.00327541277224,-133.8060171081319,-42.820935794204956,20.708516120380665,-39.234135264437015,-52.644876291308606,14.81520644284852,13.021628536050063,-37.86679762676765,-14.921504476702793,24.530620555266083,-36.61931152760761,-108.98619304668262,-63.71084778366341,-13.054840702069967,-64.4078198046397,-65.52756588781024,52.62498785615265,105.239891862289,36.0382093568561,2.30411993153227,72.42734856411825,155.38052923578817,149.3385303033187,92.86078991935469,115.99068590352076,167.96298982269877,99.47463617767399,-3.506374678718309,-8.101583543066539,-0.1073726319053474,-47.417799163189315,-96.17242755841532,-121.3142291834594,-97.4810243470548,-39.44311376724534,-46.28650455137317,-79.82737647105502,-24.465842067760946,23.1450386479693,-26.940343273201805,-26.395137888959223,64.25438751561882,69.13951886887621,-17.291416171458025,-38.9017447272973,-0.32725701681275066,4.128511461493503,-10.768766831545358,-1.3824395339203703,19.240502638824477,35.69310956826172,51.4318019655111,56.097583231754314,26.677965140452628,-21.453332038906918,-35.11421868225342,-17.037312142844986,-29.554809332691974,-78.44000323092345,-106.36486941691659,-93.38797261941511,-81.47961466755743,-115.28253064494233,-168.21348871202895,-110.98982676588325,178.14241130173048,564.6593595329346,641.241655427372,257.2480142360978,-142.65239895165845,-168.22036540699676,-53.91808607091813,-84.22911971357027,-114.71237476856197,-45.132422159554395,-28.636874889595305,-77.71310304780465,-66.5874789765858,-18.968797019057323,-18.17934770022029,-34.579361162933665,-18.167017526042237,8.759221513370875,14.009126735723655,6.480445047491719,1.2944743624862576,-9.197072624242534,-28.450750559937315,-33.2776005393863,-10.689668906558778,10.848004246543105,9.770769574595118,5.819392741218856,9.963665740516188,13.18350337605073,27.98869054541668,60.65661881725932,85.61577392020376,97.96434350753474,117.84672838114372,136.37161518982046,126.01073138968542,84.39556734716477,29.107345797000647,-23.280251734917922,-58.01468711705088,-68.96324602845651,-71.09726429194347,-80.57036233874906,-84.45748428347078,-60.10548045929351,-17.83901030943497,4.229256328556151,-8.848154062319043,-23.06499718651692,-5.8657306408280245,19.657815355725234,18.947027289627435,5.360724928477612,5.186915553356091,15.168240378592426,15.714819809822512,-7.722537518683287,-32.986218821549116,-15.585094361369709,21.25375674171795,17.212547075042906,2.1995187452262694,23.192390562523578,30.978826086736607,7.785058418270381,11.900702741161926,21.26551931384636,-11.387020732531436,-37.277794664469525,-49.03774593269515,-89.26812551497179,-100.05472779329172,-70.53735042024654,-116.61845832884188,-211.39490441699846,-178.8977379115871,70.6358755593813,472.9130061201091,713.4080670496533,455.51535026273325,-33.80376202289201,-189.15383623301483,-77.57002083343058,-87.95847762188473,-152.87677693006785,-106.43952307379524,-71.01704825407218,-80.1155986643572,-34.94380310827067,13.34947685321799,-0.7040673353964166,-21.33618053517536,-20.68517463974202,-21.26549437682337,-20.363888666892286,-15.142677999754117,-8.306999594442278,5.846868091776676,10.922158006654676,-9.319290451881784,-26.849643560424866,-18.611846085530043,-8.382060800842762,-8.111218745234028,4.053506826020861,23.911875206993898,33.339345405132015,53.87346442254844,92.25640500709804,104.30636395687921,84.37451429476131,76.89903730255492,84.95268487460888,78.29974988298622,47.69258165943272,5.091971658086317,-18.81839466762473,-23.098031998192283,-59.96970501726806,-114.99747544235105,-101.50827576936261,-35.6598280935444,-10.44465051292516,-25.322816852064477,-27.66506443332995,-22.067650252315744,-24.95478438943646,-12.030245556706886,29.073312782247374,53.81182800276067,28.461883231637472,-2.186502084397516,3.0594116321607494,13.123257103765376,7.021872452088765,0.7496716855117058,-7.889585826518243,-5.692421038874311,32.30499341948973,59.94145508035676,28.96025263260087,-12.592037073892776,-26.007817116821286,-46.86150924436705,-78.73335894655172,-87.84969570857947,-77.00339027834337,-60.31968842607228,-63.177887714225065,-122.3268870459887,-183.33294361282287,-122.20999062881012,114.78839589637643,447.8281379997487,612.2348339986193,374.41178055175277,-24.209689236463618,-153.4491938998098,-87.55722166705868,-103.85011246455079,-122.56731986276633,-74.68655960297875,-96.63530778015527,-131.10098872815595,-72.46588068284427,-39.19294191531599,-53.05944612577279,-3.2196515797587555,45.65994234361182,19.552811087248315,17.74227738308756,73.35913767361016,89.21212447357708,33.215520084630846,-30.378966239362775,-48.30053870709141,-40.57748955330313,-43.95817525163042,-28.015194793632098,19.185709821115747,25.841736000809206,-10.589991332846065,-4.712167704479992,37.386942025247436,53.91083947057767,62.87795407747236,89.70511999422475,106.45740114579085,92.48945060425476,45.46105191881447,-10.984638598092634,-29.64676790472695,-24.03417566133195,-41.68595630372694,-56.76015505998032,-44.08868932878578,-48.229268686324005,-61.56176995859331,-22.99457288717287,29.44227010363277,14.130839717683177,-34.12331694031644,-37.705800858177824,-6.537973000707582,21.399032323561016,38.32309800834054,28.87474957318014,-1.0221755706779536,-5.7678248091141855,13.714574672832677,11.883044075506069,-10.865208629815388,-20.147407412792223,-1.2086638213470158,32.60110920932228,43.162844563390315,13.344243574255113,-21.880740747913602,-31.133091182931643,-28.783439372415394,-53.74051536366487,-104.13252660406816,-111.71050807392096,-76.60362380322181,-102.75249559009582,-174.31652568551274,-130.82476292833115,113.50216757187975,470.36481091321605,636.9688181614413,355.2919429051523,-80.47623635082981,-184.8235021967783,-80.14474087730954,-103.56757259594866,-143.10970432454786,-70.95869218811748,-36.25292276915531,-59.86924556752765,-49.41276333275316,-35.013218457530826,-32.275414717428056,-16.776036257536568,-17.809745463338547,-22.838143265415223,1.3754218157122047,3.761469190075317,-36.97722151749731,-46.39066564102022,-5.105955283133741,14.456400903886617,-5.524168143083445,-11.126998790915838,-0.8264896885335435,-5.440939364778,2.518650284815088,35.06882801808358,44.43935900128585,30.25890086518054,36.93243240930141,68.16089889428409,111.26995880257184,144.13050547545419,119.32497613943653,49.37364433451607,5.582652907746073,-7.415197399079603,-29.206556569205315,-47.67821744105061,-52.872009736915835,-69.11884481593569,-75.86883828886077,-46.617933540273995,-29.43101680502645,-42.89031605101815,-27.528360197054717,9.187601562502541,7.4751271398372285,-2.8353051498522355,14.66303391596863,15.391074463132755,-8.10712395445457,-16.06318012435513,-9.906312854895788,5.69049185566677,20.133847027281888,-1.2128217267438828,-14.11048669753912,35.77612549496246,63.74073530276459,13.529265795476558,-29.714123930577454,-36.61932850902059,-53.36838256656122,-72.63659836726055,-83.98133471262182,-89.13470915390057,-83.28829829685014,-120.23499228688556,-201.37703806813605,-168.26133471572277,97.6144566435872,482.0751781253655,660.6840042858345,393.0611356338886,-56.15638405661539,-200.84876458332806,-91.03814858262353,-91.18947078329516,-162.66574088218442,-117.32755986943462,-57.49731004935886,-65.08658636034967,-48.507927392254246,-14.926645198058083,-23.786965271731553,-25.539736665977756,1.851172981131322,-0.2888327720886821,-28.905791249004036,-31.191482726430394,-13.545211097268243,-10.159184195352758,-17.195223832516724,-16.3026112998186,-9.188852840001335,-11.495276931084984,-22.38326899719567,-15.83180361910212,10.495515326035768,24.68070240063966,27.28927536918023,47.25136356280903,76.25500971359565,91.77583134416491,102.78148736575793,115.24757641427715,104.8235369102556,57.75034008145745,3.545144338974513,-28.528964312007943,-54.469860466552575,-83.17766301965835,-80.595036601802,-46.34723439848116,-31.06298351060724,-46.121297496149424,-51.38232470783768,-28.291237819915,-8.351200320779867,-22.976340804448945,-37.65582093214828,-2.9027767726468454,40.300361023757645,31.5009656775416,4.351712311012249,3.8806923480272566,10.295910471922852,8.720045055973014,10.697259408182028,14.976280120408767,15.617723178562917,9.948585018421642,-5.651639347967721,-25.928105045318155,-44.4436743284876,-60.73717997946214,-69.3655897960163,-71.06852480735463,-85.60636105020055,-123.67120838507978,-169.9764407220383,-174.97429284227135,-9.156464329204283,387.3049761822836,688.4744330509798,474.4362140791062,-30.91964774504101,-233.3468473070324,-121.59289762402935,-81.34811681849362,-123.2644427556802,-86.74974176958185,-47.02706903326502,-60.57227685044021,-55.64888014032054,-35.320698563763386,-30.074907125321822,-16.96888036280842,-0.33035730894149573,-1.9530957031823313,-13.797328912173656,-21.259461501403702,-15.77131608574724,-7.63267081676065,-14.928359755244925,-20.695529835664487,-11.691567584648087,-14.451838463798808,-26.477059210061313,-13.667676975877875,14.732271371722135,31.472244130926313,40.48823999129887,53.036387461167024,77.45311622969446,110.79414872809136,123.48568563525947,106.1398992155742,84.02354086083554,58.87964692466052,17.465689960498338,-28.411462326018338,-65.42532287445086,-89.20056128519181,-93.65308210887636,-82.41640280112995,-61.37514798539472,-36.45354970639477,-25.23303536112944,-28.728871790553825,-28.210722209106,-21.790990510710394,-9.003778925520223,14.717549546261786,24.615530223007777,9.713001507795342,7.100267226548444,22.194772531951145,18.813993490727494,11.189810472384718,27.83742692223971,29.180509155164266,-3.163878729328303,-17.58905096475148,-17.758657839957788,-47.66253987321603,