ECG,-3.1471525899854242,4.114017894782593,2.0565916839831644,-3.4745177550489954,-8.186160965695784,-11.114536555100532,-9.538660088188362,-6.492419867435907,-2.161364310620354,4.862905727005423,5.2309661671860805,2.807201111465144,17.323914241845074,43.34573692287837,62.62657332559369,75.69708935116418,77.28336821419849,58.57662066155271,36.03172858561984,19.361786959753477,-3.6960941781560184,-28.938090722863073,-46.72477935735043,-63.72434819062216,-72.72941437703304,-60.71844104391001,-42.87128169014788,-34.07127805796533,-26.714066509206734,-19.31770485632344,-18.432246143535394,-18.3217453741007,-11.145802588472929,-1.0474717197840278,4.702440549563445,5.617445541110921,4.036621237738856,1.1979384368364592,0.6848919276610328,2.6191469288134304,-0.9349396869235918,-9.498276148354874,-12.32796329082888,-9.422475888272656,-7.5124093994164856,-5.512543935074996,-2.011013648913945,0.5996530194784135,-2.109253199665865,-13.978601820219666,-23.315042401896974,-16.02909501041772,-8.061233153103949,-17.038946978023766,-25.123056536217767,-18.7340040225569,-14.905130634989774,-17.729038558447133,-10.948331322499058,1.4758442517582164,5.5691328843937695,3.3857719974667546,-7.485541020123806,-25.01382528600947,-26.621848726809333,-20.50462138644837,-27.47586761752003,-23.576761391265453,-13.994564504813805,-24.093262383783674,-19.351839437960088,2.8433418236850656,98.26367211192871,380.2758589506566,481.413475611601,-75.82083975951659,-668.4931633125713,-426.59622279093264,95.65602986335392,84.24316061809307,-61.766299250207695,47.2850985904819,68.62677802463449,-29.64505524947109,1.282842506407441,42.6733135183595,1.8412495982833974,-0.1323747365881296,9.310742178575268,-25.53949952014788,-36.2545047450378,-22.30977838890597,-27.08817321933506,-25.956804688792737,-13.260686621032113,-14.216491667414646,-13.710235076904834,5.347016378974046,25.523643775776733,38.10279128646771,52.8292375913988,65.67096801617879,69.0986044418444,72.07980118950779,72.92447258866468,54.50901524500119,22.62920996544779,-4.801639146059186,-30.93265045048324,-55.09924179419108,-60.52510234694019,-50.3638742289416,-42.02342089425683,-36.45417902188102,-33.408357203412656,-37.86778528752305,-38.31682185000426,-26.489374417722157,-18.436652402495238,-19.307388498792847,-13.740700981164458,-3.59266633650115,-1.286048127138244,-1.6140571708592297,0.44689124294957594,-0.9533244538844095,-4.779265753873595,-7.489330140236893,-8.505256463033916,-3.886776858870933,0.4359025569278945,-4.775191009402727,-7.072873766029804,0.9753199232883194,2.229075484244998,-4.555659282744884,-5.1002425952725545,-5.9292947635018685,-13.77469301728384,-19.13478098252037,-20.501572705676566,-20.154274586805673,-16.478406706430725,-14.002844953103125,-11.71425808245318,-4.736076795471004,2.005624712361408,4.980468313439612,-0.4529740968783553,-15.055640027418054,-21.124908414953076,-16.176533481176804,-12.319339891369353,-11.34428440757247,-26.727560272962148,-38.254932438952096,-10.331909716491701,28.774922541152804,164.87215957947063,440.2846807455884,363.30046026262124,-322.02567064018655,-733.914210461838,-294.53894753676127,151.2173539919728,47.97216701151402,-43.79755063274311,72.34268628265121,54.76470783336131,-16.726109113126043,21.970263422328593,29.11459920547334,-9.24394551713604,-3.917170509370907,-1.9522406905911298,-16.739139548082257,-13.951630926669443,-16.30837723693449,-19.472980188232416,-6.445779834830532,-7.4661990930131665,-22.096807963562128,-15.781256807669962,7.574877554840358,26.00354442203907,38.21842914982473,51.19243112272435,64.68221406164828,72.5215224539307,74.44008661381385,71.123819529753,50.237019095780816,11.636801711159304,-19.120490196293975,-34.433788132959236,-49.24724273490162,-59.13992998875801,-55.98490664380298,-51.23458888814788,-44.769689961071705,-29.680105891443162,-22.0799888982237,-29.26459234980294,-31.036270897824707,-20.636128332686127,-11.697112694208489,-8.261383211577403,-4.36272106624509,0.5212162074053701,0.3066871845424046,-5.423513680274304,-7.217208597105564,-4.249365353919753,-4.2339400901444755,-3.428829505410569,-1.7469730356900506,-9.085938363948793,-13.998487760078064,-2.8921260659898795,4.634859196677073,-3.1829202319707193,-7.245709180204853,-2.8383485392256294,-3.9646471772002556,-11.690637868175328,-19.233462608593022,-21.472561790979086,-14.247295160743978,-2.599461146177906,8.69185056106937,19.048694087054123,8.861827498762674,-28.52227118022433,-48.219132063551825,-35.970448007650816,-33.6316078630499,-29.91528226333644,-5.210056380274684,-6.529296282321646,-24.38868020470445,-13.728724760954051,53.641216981965485,280.1371574203777,474.3732769370735,99.42781921359219,-591.0878463748156,-607.518083680456,-38.18010288343695,147.7663545257758,-31.19284868290551,0.18700716351179736,90.41190179637445,16.696010755264048,-4.298647591251779,42.348753576281474,15.143965325055808,-11.48238525445046,1.6183109981014523,-9.56312487677704,-21.446701448177695,-13.888477542401764,-18.03364852771406,-21.23542759267587,-8.176715873158255,-1.942467163735774,-8.652673373153197,-6.261650942849583,15.554843805464817,38.663942529211425,47.21091980585226,53.98083910874231,68.22639889566781,76.14336721636974,73.0938989928592,63.43099514640567,37.20980631552972,-5.691305081678566,-40.296295020900835,-53.33312551600075,-55.931557334681244,-56.97480184714683,-57.10368694647184,-54.0503437296377,-42.37714845824906,-27.79029892850348,-23.839218905570647,-24.1171272788213,-14.589198077049078,-3.4609614578992094,-2.7431901174896787,-6.838639152175055,-7.196410534968772,-0.7078033935477688,10.1702762954536,13.458803377291295,5.668172756327142,1.9193333262068109,5.745639774081212,1.9710761389200702,-8.526727494639724,-8.252442281526132,2.763770104949108,5.226249628404702,-10.894833161720967,-30.775504764497725,-31.14221697380545,-15.177537603285483,-9.552198430455064,-14.235196861234478,-4.819087255583641,8.072382139836236,-0.15779966881312646,-12.894242158486813,-16.851270070510715,-21.699343060664784,-17.844762907908233,-17.121045458816674,-38.77668437744062,-37.917161817942855,-12.501823135289253,-18.363973466405113,-25.1744601228706,-3.2190772941587795,87.06117097544137,335.8514836587426,417.71316092825,-110.10674826758088,-663.67030301244,-409.62832224090266,110.16994394655246,90.54004802023957,-68.72630649450122,43.42145833159271,85.92689173177254,-6.147642858702127,9.906290011685535,39.99169363482024,-5.294704299764923,-11.396922068145587,4.838165126255491,-12.693044816472499,-16.084025792065344,-10.542693987824443,-24.807164821197848,-25.698029364913438,-9.953364108681116,-5.701506790181284,-3.3438888606604387,9.624949601474505,23.917713001906534,38.807642282741355,56.65283604114062,70.06354088676414,78.26111593167111,82.36878793969602,71.47524761909126,44.3144522089507,15.669632322014284,-10.929449112899965,-35.98555601620304,-50.15362811038937,-58.31994474949769,-68.31129268653135,-63.554872121683054,-42.33354223731011,-30.776781606649756,-29.40509971013139,-21.70414364613827,-13.774196111683205,-8.405816743586183,2.3324133418217627,10.305359174572846,12.686993407548353,20.64805835845603,26.17192916911873,15.51139089106784,-2.731670900256219,-16.823564277955708,-21.55887193831854,-11.169197414077908,3.913495255116379,1.0572216098969527,-16.523867078351586,-24.544121549494875,-22.317279930079152,-25.870910427981357,-27.008914528384317,-15.2621754783505,-10.541154069530954,-17.77731060605488,-11.034369522639885,6.047125867970805,9.221218070806959,0.20914415142961218,-16.941375469441475,-33.981914730052075,-32.32731011876356,-28.21413018338501,-29.96582678863296,-17.751500949174797,-18.273523660725367,-34.442995330246,-30.92228019893749,-11.874586507632259,148.57034605150034,460.73352833405716,366.47098947411274,-309.1383261503606,-621.6850695583521,-166.42058905334775,148.48718494672755,-17.2460899655434,-52.58879870216684,75.44873037417348,27.633907462818915,-30.00736021601935,23.879277116633382,21.439391428444466,-9.76866496467419,8.805354836649428,3.9466655698911897,-21.006249431912693,-16.970219924906537,-12.606257402122694,-15.560287104648063,-12.575983010738188,-18.420056810477934,-23.94655359605094,-10.121262546404028,11.219703902087948,29.091203969690135,45.23805526767171,58.478174617212666,68.38542526650345,75.65918533054199,78.33738366539771,70.23907221782179,44.57499696883748,9.534225620697441,-18.998464991209833,-39.087203854328806,-50.864374498471854,-52.28551953035428,-54.238992840465144,-56.86791837760629,-45.30724851866602,-32.69420070726965,-35.761735198426386,-32.11001608208973,-13.61606126168995,-5.922056032776013,-5.534214151123059,3.510387860658721,2.7649255318427812,-12.47959480044523,-14.615509608944961,-2.7420545920680155,0.9826900196559336,-3.4408464631039024,-6.536799815795776,-8.264423798577052,-7.00838138788664,-2.9324678373188053,-1.7986094409524327,-2.53145862186466,-2.651467395338152,-7.448905196372312,-14.574291695407567,-13.1656277156651,-6.928932258417873,-6.568333653309196,-6.541642979488042,-3.0640161078534476,-6.141298297902344,-11.392387555144584,-11.995343529176068,-20.305997667721225,-27.357982235938643,-20.79340897038075,-28.2018694386623,-42.15804308083394,-30.7748860541899,-25.63591122955245,-32.3894606393473,-27.814674385834046,-0.14644455586363847,201.12904918509943,505.6816189293078,316.8807289467478,-372.98247777645304,-574.8252575723719,-98.32292965234748,124.12990767323429,-57.03944516214749,-49.125245748951244,67.2130490978881,8.934157979453285,-24.382327324793827,27.326244397326647,9.133411055713296,-16.42504509341556,8.215262395560503,6.872354482469254,-9.873259543593903,-8.269115459078078,-12.954411084013413,-16.893117838248074,-11.019493208582514,-14.919887170698715,-19.912857191189847,-8.66513607459641,9.340279614596696,25.530870851360554,44.00493808723268,64.07866272826307,77.0733620893731,80.20606535832304,77.49460576859215,64.06839690792985,35.92800561371499,5.037696265129375,-21.63625158756721,-45.44417131940933,-57.558108015844454,-58.84606160334357,-63.71271993133917,-64.85729763428468,-51.007387828208586,-36.38941889810381,-26.218167617095702,-12.619002393014714,-8.364454772492255,-17.347131044591006,-17.376378762537954,-8.406267076530991,-4.9231631337869715,1.1507769109391628,8.172912140195319,-0.293339379300928,-10.843434126237293,-6.030862405027122,-0.06054346225457152,-0.36659573484893393,1.3225235763596093,0.06998053249482261,-2.7292329189080515,3.7897381705283237,7.752079664833403,1.3687739395756342,0.9868257681863764,1.52372596770895,-10.183885401630148,-13.478594869700165,-2.2233987849846013,-0.22546144033739424,-3.79514267197891,-0.8760811753893769,-2.370069483026443,-10.798379716014626,-24.985387110653456,-39.2384687601029,-34.69172452317149,-28.646027583621674,-38.62084916061214,-36.46184801910791,-30.274674166681006,-34.83161964357255,-31.486325746021034,-13.993246993701732,155.9644697545652,496.9069353747889,436.901317729894,-253.98768374434536,-632.6781881521201,-208.59443112213327,128.99325332119525,-30.57417199088544,-81.41514833615149,55.11901036726766,26.48073150881425,-28.190600538465667,25.333823685239533,24.039249022237183,-14.05420625319831,1.0131389776244148,7.213393987175017,-8.68305134887622,-10.80746944796132,-14.322861812970672,-19.307492990702713,-20.62613560095822,-25.4597394451177,-18.070933814622393,0.5649144827454204,14.297864852042792,32.60126817234719,50.349822032598816,50.9030929379953,54.02953880179793,70.68626236489534,75.56680694297577,61.865600197388495,39.70713711760204,5.18911285752934,-33.097426286660564,-54.06949534840547,-60.30215794504845,-62.935959275601874,-59.397682073880105,-51.344239709435854,-44.478430527014766,-34.69279437125882,-22.433503993263383,-15.742398433752413,-11.296140548597485,-3.0882808521816365,1.3738174098297655,-2.3325245366432235,-6.191081466662499,-6.741281363913686,-6.005892771474981,-3.2190865507608546,-2.02680095270825,-5.179702764707118,-4.249689599672239,2.4899876520770743,4.035844318456601,0.4852718108721419,0.015018894675646877,-0.8492710178253926,-4.258145873391764,-2.313299039333968,4.231044349677331,7.865589283188313,8.450124018048543,4.831977664181566,-4.196791144913426,-8.869663845232154,-4.620334571204932,-1.3841059225670804,-5.546759602000396,-15.136357378842852,-21.55376756292418,-14.287104559468386,-1.8315530536149165,0.35464578898040955,-6.725748351521084,-20.918483860911053,-32.413030455311386,-30.158013647789414,-35.74390246420074,-46.91330527835764,-35.78171597465108,-33.34611397630412,-44.1286149590363,-31.743329504305244,3.462993129886442,198.56426361427413,544.8938195825334,432.1540283690196,-309.6790695006398,-665.8820400614388,-208.00480070903058,120.79748329547223,-35.437562644240344,-62.22979398814192,72.27809124640213,29.68147080335082,-31.219069985909496,9.939721070221626,5.361420624118978,-17.990415637214284,-0.25801681464776216,-5.402024990092453,-20.216733553715912,-12.257283173731949,-15.051712331095153,-22.260697116849286,-13.022437289773206,-4.612149383491375,-1.92807213933785,2.4609015862590677,9.108546091599207,22.624226272710324,41.397546536164924,57.99466111052172,70.94888147772022,77.2970696038202,73.79747153248539,60.68484526050608,35.850200819240065,3.8846768911329974,-21.55827004825271,-37.800131742260504,-51.39973450466056,-59.33358823605807,-57.91693231701759,-52.49310953983815,-42.70639449479888,-27.369411310619164,-18.442128526691924,-19.04119680326236,-15.469095556172848,-6.3971564152135425,-0.3217267825776826,3.3528601447909026,0.9566976479890563,-11.34858133604901,-18.277962647445708,-10.241210141282824,-0.46385542766235055,4.410067492503935,8.81542810995288,7.468982343091317,-1.7956734137210582,-6.242831131214055,-0.3619172791234364,6.194323901366461,5.903850046590673,-0.18934552003519656,-7.38651987664586,-10.854796331540904,-8.239093575924942,-1.4356926673572747,2.595147333806107,-0.28847057630807527,-4.548828544073821,-8.788556552254569,-18.189164227246923,-25.420079064993985,-21.44818618675527,-14.831951347423896,-13.178052538173207,-10.62680688065453,-1.878192069588021,9.871895803621314,15.394006052620977,7.9172075866964065,-9.488344722501099,-25.532762316773535,-34.46672783833543,-44.31500080019958,-47.010211970342354,-29.502806010015476,-24.096426039731902,-36.77444155688042,-26.060659157493507,14.49170238254483,183.66485681982448,502.52275678937576,455.88580301665274,-239.03328083882036,-710.8804517118015,-331.616736402729,102.8752925575941,13.388335563304793,-70.89257830438974,54.394520995261516,47.16370107445697,-20.89626772249621,20.905291357175187,28.753277995602883,-11.9203785713399,1.257636533141314,11.463952302076274,-11.317142139988277,-14.392492810757725,-10.806916590942542,-19.370237481047567,-17.772774511617133,-6.400178040134259,-1.1901445816841716,-4.464656259213245,-2.93995288559319,18.499595545304597,45.84026259625347,59.045886571247074,70.0522347861116,84.31500368613014,82.97532069816411,66.83341255035516,48.500020495681085,22.18955809934011,-10.593164101263095,-35.26781322347685,-53.45343919930063,-67.9981758218626,-67.42677701760682,-54.68196603491476,-44.77765847081454,-36.827293073118824,-28.4793146498236,-26.22418206736178,-24.832129335463033,-16.496481519117502,-7.625223180627289,-2.4444592748488976,0.6853231597942511,0.9035152938030517,2.8624720467177625,7.721405266825413,6.2728447555754325,3.2865965096926146,9.223499797069513,12.735890177101453,7.002126082128887,5.169618180699754,6.686727390030685,3.0843620954353854,2.5578204729252203,2.849991221404334,-13.147623505332248,-33.46562910717793,-31.439780365366715,-18.245320351863278,-18.005361535284454,-19.937126101386127,-10.192805510177724,-3.0892610594268106,-4.615475871299692,-3.527145171579228,-2.0191803021035994,-3.7151457358268622,-4.060351276581052,-10.995533734829039,-24.29517295561846,-24.557724439893022,-14.106559093461112,-6.413759167587509,4.587449066723515,13.288702457340683,3.1292681653341567,-17.722695947648965,-31.29494463044006,-30.395383183154728,-25.00312449667909,-26.5860513559469,-21.02065368585283,-20.49201053993675,-48.291164648639466,-51.85941897953728,-14.592026294667981,77.59538747752998,357.3715611944339,564.4575629608892,109.72147600085593,-610.4088849652314,-557.2648779078197,4.598828653706406,101.817721814785,-79.9481088719267,-4.685038160087597,70.22496314223186,-13.208327410788607,-5.705635760220993,45.90680682383413,10.519980411530462,-7.669210915320974,5.694099094191211,-13.152166681928255,-20.26099911086857,-7.008040762238087,-15.200988021861907,-26.097646081248627,-20.612143715769527,-13.537253088854442,-6.707744704693166,3.85083353226773,17.821493048299576,35.74892440426893,51.270467886702086,62.676644046202966,77.16959280489888,89.53501674695022,87.09734091241167,68.44960912230543,37.198410664561465,0.9504042011466618,-24.710343982615832,-36.617829307387154,-45.47827485099609,-50.17175568317241,-49.25014578908801,-54.96064443931208,-60.588926244098616,-46.07043156511176,-24.856246625698738,-18.731133727829956,-16.517021828529845,-12.936609800590517,-22.301491432408543,-31.994156426378254,-22.2836641478045,-10.590672100523477,-11.677902922659609,-10.666230656655038,-4.393900530549288,-2.861289160499414,0.14499570129184747,7.484473645019948,7.508461099321213,3.7894879315254713,8.195256119617646,9.767291973136636,-3.7879080119428785,-17.516967332068,-18.535800337614425,-17.42632378303646,-19.658529816111944,-18.31537482361498,-15.128703974509726,-13.497027982115345,-10.006914096108272,-6.030853218291234,-4.22266242365308,-4.990981412485375,-12.279309019323982,-21.50339912873981,-20.58628188590508,-11.886065106117357,-5.855830383789911,-3.655388027678109,-0.5847043614677929,5.158176178839849,7.160390169791244,-0.7407878329223045,-13.7290308014041,-22.70287077556464,-22.727734626179892,-25.166766622298148,-38.93115886410682,-36.78954401388439,-18.93694424616676,-23.890448389497784,-27.043853042209534,-5.337012310866669,75.12732746312697,345.3054342620476,556.5133098862793,122.76128748942422,-604.3333904709641,-583.6717596712448,-14.590921579688017,115.68896043234876,-69.36694983383413,-8.876723954082497,80.46255288120315,7.586106897571508,-2.331081619825955,34.236763592000486,7.019682679347024,3.6120440491498496,20.932019398598552,1.3336470472083475,-8.893823301921833,-12.530040644473488,-35.146135996337804,-33.82985342409142,-12.561101067483495,-8.572895952396653,-4.159732705405419,6.841637389588189,8.60091346483208,21.592586536903077,53.70455550645694,74.27525753198572,78.70964462636232,88.4712953555268,97.51659049550855,80.94452424626948,37.11960367482047,-10.640559979455634,-44.85739862593826,-66.80991581656045,-80.55282166229404,-84.44469739995878,-79.16759779951188,-68.86663163803556,-55.71339540988562,-40.34861298962828,-27.101442851444766,-21.813392315747876,-20.914294337721785,-16.020408646381036,-9.32184988594192,-6.443577290017409,-4.827343638217496,-2.554902678111741,-2.490482660215285,-4.474631068879535,-4.5277608736102835,-1.1501930698053684,1.8855460264961081,2.7935961912367198,4.431747233957246,4.035745791029054,-2.1648600129120474,-7.254743166291419,-6.216989528479907,-4.087363522974318,-3.606296089608829,-2.8984617811549267,-0.933614439714546,0.11563976967970468,-4.11999613068766,-10.416668088821849,-12.39274800318374,-13.59310578174588,-14.449258173060883,-10.742044138778171,-11.078180228860308,-17.13486969259293,-14.565826645829624,-8.24139524479952,-12.543032915547352,-14.785444610014654,-0.7330430540850292,15.272886205050744,16.57310625285553,4.71609499925329,-15.026093621622557,-31.40499143639665,-26.85164807601163,-17.195553880385308,-26.180912763078858,-25.214625357448483,-10.10828475371418,-18.85184624585109,-22.046899876289032,7.414086775721117,105.19577030370762,373.19864392725134,517.190448082106,16.28360594842286,-654.6918618584839,-526.388110007368,34.83582584016065,98.46826751938761,-76.1330926961019,11.956763987413925,70.30482617570213,-21.755441239662424,-6.391752960896746,40.770075285691725,1.725749410517789,-3.0879443862908786,14.118963979973556,-17.575071862835934,-29.788483868823718,-13.02864309552869,-17.248166892988113,-18.594623856318037,-9.2009843312319,-13.766307376833208,-14.417347800364286,-0.6337620684786938,10.472918410082814,23.717934294249197,44.27373557353741,59.91414856809198,71.67954126280397,82.7820198674274,83.17781207086671,70.34323487473173,45.866217917156746,8.841029631336523,-28.084195134648645,-53.10535176348613,-70.40787265822358,-77.56325594678621,-68.707657755562,-56.13700211927532,-50.04209867677215,-42.73929851414121,-31.519171908065452,-24.177327962833544,-19.544794068431642,-11.307112299604213,-5.794778301882232,-9.024665103297338,-9.190207313891399,-0.9398611939778778,1.6364107085765056,-1.707449266378596,1.4742028832939056,3.244417637943366,-3.677140933916389,-4.922732338563097,0.9605106653786208,1.015664435939037,-0.4944793145779549,1.8792477803837588,1.5713824594849282,2.00924940107717,7.595653917150209,11.639012796854765,15.940623674614217,19.72056189710078,8.886638838965169,-7.697295948418143,-10.112770835389556,-12.92407447039285,-27.613842146361023,-32.24574297278531,-26.684863514510493,-32.58453436452739,-36.10902645418388,-17.71316662461566,0.5391981295743609,1.3447684738412171,-0.9255431917344907,-9.945096370599668,-33.23324406069699,-36.329623122895434,-16.880306755026215,-22.268806159384347,-32.14278811152687,-16.19838395181288,-20.91850378390055,-32.419030393388354,-9.888484631422273,52.61278475572722,276.9655598384441,516.465432053454,190.02151633795415,-522.8329741513403,-591.8185692591163,-39.593056206521226,140.13941523889096,-51.22717032460767,-11.440154848454657,92.10621607178037,12.4084211869543,-11.882392912784258,40.753080661806614,12.106386671111173,-13.936578405151975,9.086270837381443,1.0347849505712334,-16.717065491169922,-13.131161142964205,-18.548381361313258,-24.306868517055644,-18.80810847920653,-20.45686874568903,-22.290219482508284,-10.361220326414742,6.8333961177759726,24.79889903795892,45.021823448018935,60.9286029215433,69.3626301595466,75.58537085961682,79.23634586924813,71.65310406771388,48.43720395925677,13.900316155955519,-22.37866563747095,-48.22051770680429,-59.30011156780761,-61.95115444278264,-56.841380355584775,-43.0397008502229,-33.85025970130752,-33.26493822773218,-25.791032337986596,-16.138114501871247,-21.04713868234701,-25.802702672019013,-17.024833117619924,-12.586571617232103,-14.065396795289313,-4.7789643754616264,7.515335979012079,12.275043524732046,12.867684981300144,2.7358590926816326,-13.785265579497544,-13.897262579113391,-2.7614024954523906,0.03833288307585825,1.260287462510595,2.786846581409959,-8.678034304639958,-20.952800924319632,-16.086717082150635,-6.71070761546288,-5.685684817259592,-7.70887423523544,-10.52424977975138,-12.085156721557471,-7.138281305621506,-1.4093429073668453,-0.6985896022890152,-0.41687800518363005,-0.7949780569398452,-4.970487384505837,-8.868285051557617,-12.07778831430138,-16.97184393005321,-17.362297237141586,-10.957640116182903,-5.418139799629692,-0.7530717401155229,6.012447429235688,7.865393497114475,4.590433347620971,-1.3700484013754721,-18.055713165336776,-30.95182916068216,-23.810849581485954,-25.073006280716914,-35.87024563517615,-26.773355150451803,-24.85139476093796,-34.0526549697792,-22.866751014750253,19.914058180997955,221.90510752104166,516.2660309442153,328.8405485215998,-370.5248561161797,-602.1242220729986,-122.84299294587574,137.85313707277723,-32.0125449592382,-39.43338998831933,76.45799250562116,21.596226927496396,-18.098377051072212,37.51584224043404,26.355092682122976,-12.55162679423365,-6.972197575790702,-12.704474038563932,-28.965046442638666,-29.213441357355244,-30.973596303536052,-30.04327668070568,-21.3191515055225,-17.76452512835974,-14.736397446741696,-5.590932849406826,7.940568449241953,25.730549693556714,44.40884038564584,64.15590312373772,79.18694915464006,72.85917874256674,57.30851855042934,58.37202159233688,58.64726269276863,33.37794001623928,-2.903676477460487,-35.62308468683325,-62.85088043140519,-71.49411017552104,-61.64318242394687,-52.621651200565466,-48.21680536779005,-43.99681221185316,-42.882057395786,-38.59588636922922,-24.331887452846274,-10.649056622275978,-5.947260317967398,-4.58831882801174,-3.1662545253133523,-3.045683360918364,-1.4153841115106918,2.559190045951226,3.23546995044817,0.2607825418780596,-0.4100677468975178,-0.3338036595288951,-3.7366991996024925,-5.338688666926078,-1.7998409124374302,0.3127411633920012,-2.062883855062509,-4.703839141400256,-4.92865718570419,-3.794826711136891,-3.531361446219071,-3.845409882416128,-2.642151808035253,-1.1872852502501523,-0.4680934775474075,0.9283135074791851,0.867829850919458,-0.46352970827627793,1.8576876913076,4.212030796349776,0.7266507527778465,-2.9509427683690106,-3.759814830997188,-9.057303606051347,-20.079509077269286,-27.090788361753628,-22.69135327729619,-12.026610758172014,-5.2260695795316074,-2.050671835841146,3.2079015027442015,5.37781424069907,-8.070277525744931,-30.1035802738205,-33.106728408860285,-23.219898761344638,-30.321839465524725,-33.61161833119144,-20.205357839638296,-25.42900547128069,-30.942662107358622,-13.907452276790288,61.71279822312593,332.5216107549314,567.2353577445826,180.70870740302792,-521.1810314893335,-533.5843991673073,-15.894619815847259,99.25469553148186,-76.45416323045497,-13.603363285682498,71.25513076108614,-8.77641885262602,-23.215566111224206,20.34326752057835,-3.7161060748719663,-16.085503765359615,2.2101636374714078,-10.591322932232801,-25.86317419087679,-24.208770924961435,-26.42473541492438,-24.405460300432807,-17.593606656722788,-16.077426142280913,-11.189965517198736,-0.3267831495748599,11.212600944110394,25.272610788065094,40.80808191180027,54.29523607084964,65.16509785170484,71.57681590237655,72.05112602025112,65.23047469440812,46.89121429274869,17.259700260090824,-14.042489678365882,-36.64557935870218,-47.35475157003271,-48.972643733781936,-47.910375051906804,-49.00621943460681,-47.477068518808366,-37.55535577034125,-26.52016941113867,-20.12824878819723,-11.79180136391636,-5.012829799678823,-9.968345483149808,-15.030952427770586,-8.40890187993557,-4.205348803162913,-8.670436865337603,-6.991431713322687,1.6521827824302697,4.591892633607774,1.1906076234855263,-2.244640425651868,-3.452119570395105,-2.9851307996868357,-2.3032742540647453,-0.7674373971317578,0.6005062416072224,-2.3549876630862574,-6.112155812822421,-4.872248760470859,-2.97490782456413,-2.448363029973245,0.8623989737184683,1.9000228087245867,-3.8569820742217242,-6.480712937982457,-1.7404669290262689,-0.9496384971091167,-6.584148723026598,-7.868310089989231,-5.6229724705030115,-9.87237302036267,-16.370623614876145,-14.602975563585428,-6.018973664926406,2.0331415592516144,3.226649317567249,-2.929347246783209,-5.692856304682967,1.1630362787370925,6.704212104269243,-1.4483320206799828,-17.68991173983642,-27.6587539858271,-37.58031255550348,-49.878647836405,-38.24133581899697,-19.754671216373737,-29.1861854369783,-28.578027251157504,-7.321080671109826,77.78115760417332,361.8877164874156,538.5739896454571,55.99564495576918,-608.9380078373723,-490.293139949658,46.77900466792009,103.20751047672897,-66.58800314562194,10.525569162473847,63.18554096509753,-18.620969982922464,-4.7418964246628015,36.48628011631356,2.9110844450215474,-1.8002795923296588,10.719178808472744,-21.35437891755091,-39.438196477174124,-26.28058520561386,-24.790276908875,-28.396878182811804,-22.28761510978513,-15.513923317762657,-9.612869456987434,-0.3272556358100598,13.883956410613912,29.732198398504828,41.73730354557176,53.73409877441271,68.11888872411099,75.2783298626334,71.70554741200736,61.37394961524514,40.74076904043817,11.719053353264288,-12.027096535334623,-29.18056311765833,-47.0501771479665,-57.923098127084224,-56.41647424420806,-54.137398831889755,-51.53627805485068,-39.133397532000245,-27.542822210374958,-26.348540383151043,-21.404457234337684,-9.570415537145182,-4.354109494861493,-1.4784728195466688,4.6687012825496,2.6671946156039414,-2.0200903900631086,5.203836539356006,11.59115495588673,8.903130730037688,11.04065899981368,10.0491922672384,-6.585861083257285,-14.999215170241671,-3.7438091525168735,2.9527208309213258,0.992578717396615,0.12064269448321596,-10.710044221163766,-25.98392090415022,-21.683466533766413,-7.478543176231726,-4.596248174262797,-5.564908062543724,-3.659319211895985,-5.285717786545074,-8.171062262870612,-9.444696916288835,-9.532431960542144,-4.15646032085616,-0.4350779890102707,-9.339377924924715,-17.066138200538937,-8.714460110971725,2.6345891073737047,3.9116504987975738,-0.6929767151541526,-9.506567800294317,-18.22339223576023,-15.513593441882119,-14.463119047794816,-30.18106104081852,-34.06080908176005,-19.780714402341058,-25.70457054802626,-33.313838158828894,-18.10464740888983,-22.142998618128207,-30.682712032625588,-7.429083352216409,63.474993122716356,301.14688692715845,528.7957671328804,178.5450728869631,-521.2232227183929,-564.9113007558157,-28.898430820869283,126.67168077078738,-59.4192926560627,-23.558562782328643,60.68561493161629,-10.81673564704893,-14.857670331179616,33.79298262881677,-2.946959917265648,-22.82054973144753,4.69264703785195,-2.94622838126279,-15.660382845967447,-7.612666347990822,-13.90754589512239,-21.881591073549114,-15.757635043982518,-13.23024425174857,-9.526320996673121,6.201844045892689,19.123200943523848,22.951840215567223,35.18394090403996,57.97697475360295,70.29343068931655,72.12465710971072,76.68491234876483,67.0880522515289,33.04393289602286,2.719514281683036,-13.581234343184247,-31.867148698596807,-46.661759615097026,-50.47203923474947,-53.6465619277214,-54.0468576168835,-46.26268249564649,-36.55345239812755,-22.467023947693278,-9.283136189824422,-15.611375653795065,-27.761647924360012,-19.305342776854832,-2.9366673186441012,3.0655630488265153,2.913347802064777,-5.018581864732166,-18.125406361359236,-17.59477929446896,-4.805503699699715,0.9928346474314171,-1.4957385615230052,-4.409772242278343,-7.242726685660099,-7.873854489813375,-4.560030797435116,-1.792032336153726,-1.4529352322301339,-1.7211930028983708,-4.244725984653202,-8.594285154251608,-7.554608467433933,-1.2029156024579297,-0.11475152662306165,-3.6140610343500104,-1.6251737873219518,1.4436466140144049,-2.3729230807858706,-8.931283190865395,-16.900058081565664,-23.39654989930522,-18.59166849582769,-10.804998262050725,-10.988139107941487,-6.574581651735775,3.566037032986905,4.83359917815407,-1.339375891678376,-12.433268842973902,-22.962574399461765,-22.69300078002362,-26.34214677561886,-30.2663136544477,-14.026081739433534,-9.144929056597652,-19.316477344076162,-6.708859871744117,47.33405605287662,251.0217992339059,506.99760864753387,261.8028567428417,-456.9327260437439,-657.513661538532,-137.81169676714003,141.52507709267726,-28.982178087920506,-39.75695341232148,79.61384516013291,29.136442453306174,-15.270713295269946,29.570788445598133,17.51005453468865,-4.775897897526975,18.6602017237403,14.433899676535349,-11.04210814627299,-20.533813787430358,-28.64138644110497,-24.47529699440363,-4.589009074157813,-0.06239612203911804,-12.382985961649334,-21.397548012887793,-18.132259526237497,-0.055010096058797586,24.549094189922826,43.726748217951766,53.97589422087276,55.71048964488372,57.69032128525811,66.25912215278137,63.71042831874364,35.60913382242923,-1.0682227647263716,-29.042380859350445,-50.73443745407515,-65.14864221248246,-65.06232152484826,-53.81439709166777,-41.314465638897936,-34.628747133811956,-35.461034643671056,-35.71612917933922,-26.555412601534293,-15.202576026759587,-12.357782187085323,-10.649691749638631,-2.7166867455915984,0.1275141382108238,-4.476034179105962,-0.8416471533811549,7.388120077282753,2.9774018985935253,-4.731967265983474,-1.1652981048829751,2.3072281878071177,-0.8099623414427253,-0.07113051591281838,1.524908340562698,-4.210481696976103,-8.305941481898763,-4.530219537264422,-2.2060810515791385,-5.931286934722003,-8.46296743383613,-6.033676757890049,-4.450669140272952,-6.725127653029457,-7.826632530589054,-8.295318479277295,-13.44341836045312,-16.578573286770133,-9.315188523721444,-0.9619426089693679,-2.7345143156356855,-6.905407709155068,-5.730454594276864,-12.637337640772737,-26.858535022516072,-20.593402838792436,-8.964590025187011,-25.4818082219599,-31.01356301116146,-8.258272073062708,-8.430725051190663,-12.027754813628105,19.351318627931157,112.92458184349738,344.88539159530166,449.35490963606094,-33.81120429973291,-652.2511556611437,-508.2971225900151,43.90282833569998,117.43332387745642,-51.911481291907116,26.96054715203094,96.43960870229425,19.197657646416168,17.46864030909363,40.60279061621855,-7.116947246189163,-20.15519606721133,-2.5484041680077425,-12.787212081444839,-13.712778325409925,-17.726629968313375,-44.8456210409374,-44.3130175004246,-22.421566416416077,-21.854941089850197,-20.716466365551113,-4.1599658233940024,6.282798490212722,18.734486513810182,43.268541241870366,58.91057279675492,63.47485600159938,72.0414401309751,73.4223733778618,56.48816711925049,33.823614736389914,8.77550819623459,-21.67376880200738,-44.36452417274839,-55.128418463831736,-61.587408271418425,-57.18067158955111,-44.78965552957962,-44.1228828820132,-46.792818053505854,-32.45635479275373,-16.583424141363615,-16.677644668760003,-16.386375072307228,-4.57968850753587,2.9694118748410574,-2.0157957460764564,-7.3897857772908075,-7.587062190422959,-9.336271715665303,-9.37758211305728,-1.9575631235577369,2.0826877239023176,-0.3153125992051429,3.7474070066414367,7.287911540105737,-1.3935295923676456,-4.9000150605586885,2.8709005493740563,2.477309960795786,-0.9086637417096348,4.63359523825035,1.0226083394841297,-14.627956911113532,-19.96215259251714,-13.998366370970796,-8.35032005597863,-9.713806791927208,-21.459352525451017,-23.95375601609598,-4.704293793601307,9.105205618784904,6.512644264188772,-0.732396776856822,-19.673437379856836,-39.52600857831601,-35.71610907228428,-19.59474186351975,-10.62592775979041,-16.380243728269804,-25.768771769655608,-17.128802282592893,9.698704824118892,141.8324266054226,405.31475914072377,359.5934814667977,-264.0221301341962,-697.4430773679981,-329.1170506495405,125.07097649940229,64.5374986035705,-34.94727877990054,71.84777423183738,64.74007024821323,-11.71476912306927,26.083169866800414,43.47074921649931,0.5025860107424371,1.515414853318445,6.451530554429214,-18.025058188044724,-20.677756061643766,-10.58226536608782,-11.08913887126674,-10.207225940323672,-10.789154250737772,-11.091806921957541,-3.5031969727913173,3.4100624545267326,15.071086979217437,34.822445175663034,41.86159779149476,42.13713330496074,58.51257220569795,72.25189704758039,62.6664101536187,46.81482871998548,29.162792287378444,-3.390270902184932,-35.13909492236395,-46.988972671188414,-52.21433718926134,-60.33108738950684,-58.814130221179575,-46.0583387701217,-32.95511554017968,-22.873895043478445,-20.22816218735541,-26.76025096634998,-27.10256883655276,-16.50718727146449,-11.920221972058457,-12.444997519964275,-4.475077331694296,3.365335572062822,3.0476515388532093,5.185938860928564,12.5595993545501,17.16637794386414,12.68846874523507,-0.11010124116668152,-6.4327991245616545,-1.8951421597020204,-2.9842006990485075,-6.097998650545733,-1.4579786352942534,-9.966718409421947,-31.51808985014123,-33.622857918085685,-21.268916165009568,-17.868102264371487,-16.61875118023202,-13.321031645126048,-11.433906400206837,-3.454406904793167,5.74932408492089,5.942645758486638,-2.7433156202576114,-18.11086897437275,-26.673493752413478,-25.947470649801755,-28.477015737799693,-21.106197759917812,-10.422589147365073,-19.801342994675835,-23.882316039143205,-13.231812460528687,84.85378267131557,369.736200605238,461.9847171747871,-79.80288891503844,-626.227906112779,-373.74499286056584,109.42191393715653,74.16887333747734,-71.55586651957688,30.804035909073704,57.832074697750436,-20.952000626514323,6.349464234618388,33.05050947734038,-7.222550583339196,-5.388357894538505,11.812074361062285,-7.118990275858435,-15.85863796863465,-10.24467102284066,-13.206564983707942,-13.614636881929185,-9.886576651570952,-4.530351947573008,8.007120936551866,19.925960195391937,24.100959115142317,27.064073663661866,36.72000208465896,52.48740515239305,64.00539369579943,66.9937629312433,67.62921386651242,59.62703514109414,31.306205865580875,-5.5767606034052415,-31.227300463789444,-45.265859342398734,-54.7991793267323,-59.803824241512785,-59.71484661168964,-53.2697487146915,-37.557333586390186,-23.23190216446671,-26.586370076717188,-35.03141436903021,-24.910029390380075,-8.357276684135549,-3.295183455998586,1.7877546572874223,3.516200817171974,-13.283222787171969,-23.801063612562935,-10.403598221709952,-1.2594468080429344,-3.0381490559667785,0.9267913506519285,-1.1932819120088212,-11.10392669398427,-6.8245437288153585,2.56510618553804,0.6474980441613951,0.5481169604181666,1.7481578606809425,-10.544823286433145,-20.774355425239023,-11.927312040781313,-1.9133844034601992,-3.2929782488895114,-1.052841719019872,6.402238614724491,5.1853970940545615,-0.7154896941827698,-10.249983319484652,-27.84317863756484,-31.566547180456073,-23.816603134167874,-33.46807575123102,-34.24214506386529,-17.683029225387543,-25.62427187314216,-33.55263622914292,-26.260805731810528,35.513774209023964,307.1991496775542,525.6483327312327,110.79221498956213,-535.4403202753374,-448.55403228570196,54.78578697035981,93.18566444220008,-76.85274408989758,10.868415734616862,60.2630352884745,-34.543226965099265,-17.973145926902838,31.067619304571878,-5.966044282104754,-10.70328127034931,12.617813568715713,-7.34474727036769,-17.082876621810172,-4.534637246179361,-10.243718715252305,-17.802336890476358,-17.30489524772605,-19.378295494670887,-10.803545960269762,7.779332786471051,19.667275153622143,30.639961202783592,49.31392298791073,65.75934503125018,73.88738884293953,81.55304409701388,84.65746126404284,62.58082267886908,19.594792682165583,-13.438215582251196,-29.840308965551426,-42.63334521782651,-49.866512366148484,-52.02256203085999,-56.72544030060668,-55.922158028747575,-43.98360998365794,-30.311076776959204,-18.456954801905628,-9.727553104838094,-8.581558522589802,-9.176409776555172,-6.058079673391086,-3.96205546677567,-2.9940284962588564,-1.088286074170318,-3.0561618345008448,-8.533889239562804,-10.328022158113928,-7.84699311174103,-5.012117747606425,-2.5286074915678096,-2.077651126071448,-5.986632198204758,-9.419847491342775,-6.336177709070002,-0.4947691926481905,0.7684734371304778,-5.021234652498386,-15.362837969001003,-19.655634087394123,-10.794842938553229,-2.648194168965917,-4.288129755682274,-0.5279882709698196,9.019610671085122,9.191751455496707,5.944343627433804,-2.4141994475938002,-26.835420785955336,-43.51434304295955,-40.76323691686861,-37.4679231940192,-30.55647715378772,-27.717296416693067,-35.93660492334219,-35.41646511943511,-30.784798981810262,95.34903720203492,434.16303403797843,495.503178578838,-121.09739246551685,-632.6444935120437,-317.67444478627965,112.84501962846521,25.94836542261379,-79.934541904445,41.05459237909118,44.54559873234693,-24.390767586804877,15.979413215315958,28.774330999954135,-12.264713035145487,-4.326776858727008,3.1769097911049826,-16.3875742539983,-12.893685259525133,-6.948734230820641,-16.15828954254232,-15.43590560579771,-11.78505757817734,-12.61748638934717,-4.172527842727038,10.016764383032198,24.081653735541753,41.37411026970956,56.54883362521043,65.56387392065739,72.06171181887464,77.50395401903967,78.19582720773718,60.18721996982418,18.081165661916348,-20.901284910643206,-35.80877806232477,-41.43453374599489,-46.868221846948884,-48.0703410448913,-53.64615806036329,-59.10926455302727,-46.199631733694005,-25.613590018251315,-15.29806279690952,-8.926337040722604,-6.755700418756348,-15.42496094376689,-18.544332693814667,-5.437777980196003,5.892936077730075,5.216531015017008,2.0106691378161,0.36895254339629524,2.1751648981188705,11.436578175216951,14.68306498279506,-1.3166173339180105,-17.92748161838288,-17.54242264355144,-13.653991152713804,-14.65333223308194,-10.698885180760506,-3.551639110786848,-3.8107311868434053,-13.907800054966739,-26.48394052740662,-26.42879464168778,-15.72614872837925,-15.26320427781559,-17.762332377442902,-4.4900911113179145,6.083008024429926,0.12455052116484211,-9.928815013610778,-22.03602626920343,-26.647806461484087,-19.477040415751915,-25.438801362104073,-31.93303896583963,-21.57148437376651,-25.917404153319765,-33.968792883451535,-31.172233461474136,22.305198036644256,289.30282447263414,546.6898816373204,171.33428540230312,-540.4303054953552,-542.5784328280454,2.2327637798348157,119.97382077363301,-66.70477585887286,-2.120154971263755,82.69325980998457,0.5175365908274525,0.33809670851907825,54.252984793436596,12.930606922969732,-23.70286393350546,-13.76583832179614,-21.511609166090295,-25.186922285367707,-12.13266527317976,-11.829495418189387,-19.79559285768513,-28.507004600245008,-31.365874211983332,-16.063246803490323,2.8564747889194173,15.732940528772431,33.855947151817475,50.521618177687174,58.754412419683206,70.23674961458921,83.008942345135,83.78245529648963,67.36678576243212,32.454932326962734,-6.486292934861229,-26.324462171572197,-34.422587115679434,-51.20794169314287,-67.05551190591869,-66.63149077928148,-57.969362275242545,-47.98466257755119,-33.34629421238627,-19.423582006367987,-14.655983905758937,-17.097471856203974,-19.787363575426674,-17.33162170322918,-9.896299010749761,-3.0272149602769787,1.6841796410813377,5.483624921135229,5.673983324875406,3.869920687003665,5.924733715707515,8.883866537582948,7.5571734791847405,4.8535608505315455,2.7471398209827402,-0.05900495426658736,-1.3422875774991674,-0.728098514703996,-2.6650368699271105,-7.720992625006428,-12.341839004432963,-16.784099572316226,-21.708903440330204,-21.303735673671397,-14.762147290437618,-12.60427297044323,-13.866021810989901,-6.8115970535354755,1.3632809338064913,2.0385871670527145,2.020539164641354,-7.420471197958985,-26.05292385667073,-27.793469953036528,-26.06327518425679,-35.96224148788575,-26.939805417279125,-18.455654571150585,-32.21287521263091,-26.719879786743103,-3.866950459294614,128.37998046297793,444.5475780200234,453.0028933443298,-201.97401943663652,-680.2430915263521,-304.8902302950458,131.24984303467937,23.38993602493738,-74.97518420851677,55.599517665610286,51.40511288764129,-15.583710353861095,33.409188376739785,38.467534865597145,-17.847238794039626,-12.475981110611114,3.6235383464566837,-13.585143498226397,-19.999563413570435,-23.038143713004224,-33.37500414902823,-30.509113274964086,-20.495852340451023,-13.223496063871806,-3.9303435069368837,6.116521708875182,18.26626677695137,36.241896297647585,53.90299081516115,66.14884403840165,75.47258538601622,80.35580355798022,72.16101046208722,47.330591401360394,13.657449586133762,-17.684956915086865,-39.18825166298029,-49.40031124253833,-54.00654739695561,-57.76703879140307,-56.67533372127296,-47.32099734374966,-36.271954660369595,-29.25877613389055,-22.139820647291195,-13.509067873655798,-10.153671175904655,-10.705236498087455,-6.155252950012592,0.7833555045930183,2.3573157431020135,2.4557241870284248,5.0521942057976945,6.723375841028917,8.916581543440214,11.740120312860448,6.693891735816078,-3.5135879743112923,-6.263020457081748,-4.09184625927422,-4.367259996081982,-3.0891352829907817,-1.3429565815828326,-3.900742918882191,-5.797831388366209,-7.376019454819165,-13.271130272659725,-17.778600484726393,-20.457121839370092,-23.58316688950108,-17.951005392932466,-9.027602993292358,-10.408002198927537,-10.043189897052637,-1.4124512290250557,2.962120805235614,3.8360016577940943,-1.346720653791662,-16.094337078872485,-23.554835499482646,-24.299372342802826,-21.984965255595093,-9.20842117344258,-15.150984475626714,-37.07410996356032,-38.00445574179036,-12.332920079028398,170.8818163190515,494.0719631984589,369.6149216612696,-358.01787177264487,-695.5534546085388,-219.8391507191863,130.80729763220353,-19.69221529476201,-57.203966976889824,73.92107079006435,34.337341287926904,-22.04538577314962,27.017724304947297,18.671028952447685,-14.565588755781503,10.456444945944021,10.039920360654492,-21.451545374291648,-21.24013043383901,-14.211027387406668,-21.959713518104788,-21.28582891460693,-12.0419392345427,-6.314067650739495,-2.2631066111791496,7.761548805271085,27.983052848308485,50.80474844198269,66.41469027963286,75.68228863603782,80.49931995109029,78.70049677334094,68.72091358792485,46.024336658279395,9.485655711623963,-26.811774986887382,-48.85797791822651,-59.27713312536295,-63.44431533266108,-60.58490349493702,-53.36482583535853,-45.8513462772831,-38.76077973856968,-33.18924958530707,-26.789657076824888,-16.24487643317179,-8.726415731755619,-9.851022131944832,-9.00671813217032,0.14197638689212155,6.636005552529182,7.508774567135698,12.630321291196498,17.52589117123899,12.807051063633965,8.448818668859005,9.178392845970027,3.5748313204256092,-1.9753195153518597,5.37573681148721,12.222193165155886,6.01867628319531,-6.361884824897228,-21.201989500156028,-34.37493406604108,-38.17610907087705,-38.56667343563254,-39.32584071392858,-31.172351107625232,-19.40245647502001,-19.000652841334706,-22.08505057623698,-12.390944639125607,1.644520499150051,4.057438713852893,-2.5240119083450026,-14.922771343268758,-27.950941772714085,-23.53761777604921,-16.068095061074132,-27.447786020366845,-25.156074888589295,-9.378316840797321,-19.2481148752021,-25.78270928695369,-2.571822212463502,113.74740212931319,399.2140296677084,466.1050337798655,-121.58349327505886,-704.0885213561322,-436.0158053872368,97.75143546815352,90.06570922899454,-52.88558237867788,56.84371783005474,82.01270663704835,-15.736204595423462,4.399777795534668,37.22118870043117,-5.5320707907781,-10.713976173350996,3.058548404382842,-18.667134850129216,-22.759560586519257,-7.12235412758622,-12.813435522765399,-24.97584556177695,-24.72329952397391,-19.91732089339478,-11.308156460257642,7.543518638072792,32.228075904424294,48.75060402295052,54.714475344874444,64.57003203995544,81.70351054921606,88.68916149003287,75.8450194553985,53.93295858976967,29.63634104318868,-2.8541835522175365,-36.570224743920576,-53.946971163405195,-56.6997593447049,-56.93896820146233,-53.81882725156275,-46.74525366421345,-43.14078585235213,-42.12203226722309,-38.111414821660865,-32.819799018418905,-25.74802022105287,-14.323467614956481,-7.061643554239488,-7.198372834939725,-0.7393301260185368,9.40342288782896,4.421819892536245,-0.1733853700771224,17.052380741342162,24.397370124541762,-0.9344852842634097,-17.64746143500873,-4.679276114927291,3.3671302883076564,-3.203301922328894,-6.765790317507076,-14.512361994169684,-27.47156580004799,-25.93264639896688,-16.722626151383416,-18.591316941594048,-23.105828858016558,-21.29108697087531,-20.577276451281676,-20.442734962596663,-13.527160485799378,-2.599081578997893,6.445883859247509,10.421875588209396,-1.743366100598628,-29.606119316465346,-39.60266124011781,-24.49691354676048,-21.265302043962485,-23.1413455650093,-12.319043972672063,-19.49244344751004,-26.975061927306307,-6.173547553489975,55.02644855365973,274.6314756380268,489.8394006952285,141.8730096705071,-567.5624262117251,-626.5190273012429,-57.45937814022978,153.90439637951374,-27.323899527771776,-7.592647048706919,90.55410199151497,21.2682175947693,-6.864935364985321,42.375821844094105,21.54138006674703,-10.30898161974288,-2.523544540456104,-8.990962135953023,-15.333805723206826,-7.716924728130441,-13.075306965949158,-18.595414135772742,-16.052631219709305,-20.930040071488946,-18.016170394494097,2.457835747079522,16.515146596450947,23.48501898303058,44.00475840376642,67.24670128596013,75.93965255162908,80.56660739507603,82.52475858684195,66.50175292504697,37.06957009984959,7.424926705292229,-22.197339933389802,-48.52895203177033,-61.934809702741745,-60.04303524210967,-51.034204939991625,-47.31645640981748,-48.6385594612944,-43.707455437336506,-34.749979398881514,-28.399136204196125,-16.36119558219866,-0.8051277314490441,-0.8228413757815751,-12.529397041044557,-13.787986088847141,-6.49549069219287,-3.8050198886403734,-0.018818512574306112,6.263474133248465,1.7951467454756607,-6.205657743205258,-0.22926077504831177,7.3399626022403766,1.8343238352100695,-3.5786272713335343,-5.471644937523791,-14.9811562320533,-21.24515269170493,-14.456437552517233,-9.998770606665028,-12.745880305365667,-13.654267274243065,-16.19038966096263,-19.965917001591155,-16.84107514546418,-12.730064001601551,-10.138407962847719,-1.8925857433191187,3.7832082108202156,1.2167597663052572,-3.3864407902743654,-14.631178715415011,-22.62932481243488,-14.500046092788839,-16.787020255891697,-27.465003016839702,-16.833669695835027,-13.17432570025711,-19.62929494311073,-2.5326895383097323,50.03048711095228,245.45480358438104,480.07359285364277,208.70075797684598,-497.4432867201338,-645.3372337616078,-102.14425833234296,153.8585363715763,-29.631302390662455,-31.577440345260793,85.57248717932632,27.461764296748793,-12.232966808829257,38.01022320918679,20.758243798073654,-10.445846805086099,9.59361720107023,7.282375594380563,-13.139278815558884,-9.466051484347982,-7.104400082984517,-20.423519009784624,-29.988391069327683,-24.070980374578205,-9.95886507215269,0.5122919160797448,15.278870134687107,37.835973770093304,49.82541276544373,55.13435804116562,71.41272001121254,86.71137929527367,86.57070479504874,72.3455770350196,40.11622699062797,-2.4316469868713355,-33.34542364640882,-53.98889327407925,-75.11202894834439,-83.80312121915114,-71.74260638071453,-56.55622700438657,-49.340258873268375,-41.76072634278511,-30.685261390360232,-21.32070510132263,-11.486280954115106,-0.19667584454661124,2.339387260801356,-4.639284911739686,-6.2252051257735275,1.3489387954878929,7.853879433318832,8.714725226041633,4.432601046656385,-1.8613312785945926,-3.4633492723291575,-1.5766408585980614,-1.1932429716660131,-0.451177922823744,-1.8293776759126796,-8.042240212963609,-8.516990412231813,-0.6849300324931953,0.7439523888777586,-7.687201889308831,-14.81633086577833,-16.918602972177354,-18.091531611828792,-19.2668058651483,-16.729374247436077,-10.551047011385451,-8.58260246895033,-9.622762374691016,-3.68565579531076,2.739540555979737,1.2296038135803578,-2.9077907083421977,-14.606956719101541,-29.223684003293805,-26.966739678552493,-23.94572019612605,-29.01801801052771,-20.146548967737118,-20.337740524357557,-33.42338256976873,-23.891974753895088,7.347175394267026,178.07284111171577,489.56258431962175,388.905266854613,-302.2121707968157,-642.80794048098,-197.86870600221712,140.13206607255765,-8.53313687373987,-52.9396513959084,72.38581466216051,37.181835933446436,-20.938749063762398,17.569726451505872,9.1004576064766,-15.984148351200343,4.724318064276748,-5.599723045010091,-33.159618240235865,-26.167119832975665,-23.86774388970518,-35.423477076231336,-30.726842881736495,-19.3448556215554,-12.299302048111905,-2.0772075647176966,11.282546854092418,25.668945500626194,41.227263597353186,56.9649706717441,72.1122202255826,83.01555674012121,85.16018923946723,75.08413204686147,49.73384492550332,15.413372590534635,-13.511115440244959,-33.21215247776176,-50.476203767019555,-63.301040961145006,-62.794972211506,-52.79358047012309,-45.089290383915944,-39.63613970624831,-30.393046626185452,-19.767771639407826,-11.870744405396273,-6.911691613049889,-5.03364801044769,-2.3901958882130607,4.565441916096393,7.978073369504781,2.3235362161280904,-2.6001870678123815,-0.9003043237463011,-0.18755582107337254,-3.906981111958709,-7.582162955842124,-9.371733482288905,-9.563404559716014,-8.236418171991991,-6.486991938608941,-4.473595234501124,-3.2504895345762694,-5.828524140326067,-9.479921919831988,-7.203269333359506,-0.9878653551688732,1.107448376641047,-0.36461993727313313,-1.9321244392840526,-7.26967437176755,-13.079553022984397,-8.082763809923382,-0.43869102806792526,-7.285563163149543,-15.173091764801793,-3.81607076421194,10.416621886587631,9.78822461050584,4.958492735702585,-1.7153875109002392,-12.864386092810822,-21.977872976348294,-42.47449848814715,-64.18373197709009,-49.463804149785176,-35.56959597299194,-49.78895362316282,-37.79176519603513,-5.03657067208286,123.70321116771247,448.0859816093223,505.6417797982561,-122.13358630987453,-651.6319907642874,-328.51199814748196,116.1667065506275,15.981507213098546,-99.76092266988638,36.39954916495976,49.27281063308341,-24.272851849864317,15.68354596826957,30.36522273449102,-10.46030485909913,-1.057018917610014,3.8496838929895634,-20.265823496405087,-15.603080367209927,-10.325900873885455,-26.573960205314577,-26.58754843305502,-14.57460440147109,-10.495006566871968,-1.703505913593558,13.59613412771937,23.296256019047846,31.939759338301613,47.817805214604405,65.68171009416224,78.33246114737841,83.305581442606,75.3662735589964,52.49161777927985,22.532581460322533,-7.456202767991503,-32.23102002858865,-45.969774093339275,-53.61894046281039,-60.828478662312016,-57.61208660594653,-41.06985203712587,-27.04049932175952,-21.705071477411032,-17.21670916719659,-11.686858000338193,-6.699183815028526,-2.5595504052031757,-2.386282683642502,-4.748339411610466,-4.681786508710708,-5.486304217591551,-9.84561076018883,-10.183711479307277,-3.598744744957589,2.4876007809104532,4.785740763110185,3.6376269206197662,-4.028349375154331,-12.712067800687436,-10.930051859621225,-4.331591326728862,-2.9395384565572495,-0.22667559857704944,1.0998026314491653,-10.96614182108759,-20.045797213020506,-10.74361547611865,-3.3835666432360956,-4.261841911720847,1.0620529938816805,-2.041434796169792,-20.82122606640941,-24.933756924466024,-12.579002067771883,-9.55062152398372,-9.052808809886688,-1.7307322622130705,-1.1264584786719567,-4.823759675985366,-3.7339499980496793,-5.21996619352552,-15.120464335747423,-29.383946813649363,-33.8054376317029,-28.01637281523676,-33.580022208833356,-35.74598048537034,-20.465380657036803,-24.922316656616324,-33.69756668048354,-18.162611505724662,33.00720457356017,265.82638303207045,548.0660871788228,261.2984800927991,-475.90332705911135,-609.590152033978,-78.15868388368425,125.68913444723184,-57.02264127350627,-25.378417664894705,81.56524011817153,8.416003953549573,-17.246880288803247,35.151524350806895,11.91578124073503,-8.610423129488398,14.503844727694657,3.7831258043530163,-12.094274016094566,-6.4789876954029815,-18.342412162570046,-30.89213981935515,-20.495193730570215,-11.253068358337142,-9.273589908950512,-1.7031922530239054,12.014585956482863,30.342947191441368,49.108152544200564,63.88773695937371,77.8895258031759,85.64554065032588,76.73175652130845,59.94898652762349,45.608888790989674,24.568477797900456,-5.779295583817572,-34.154797704199595,-58.224113438778716,-72.62431267170538,-64.03346303301308,-44.09179380024602,-35.11843665104106,-32.359984046413366,-30.087232972555952,-36.47889249469878,-39.4331461718565,-25.354188855707026,-12.738955402991888,-11.539907775497987,-6.468389067082136,0.07521281184303774,-3.2409997819367966,-7.0564568759489905,-4.513755479212907,-0.5827984796062005,2.6294384142651612,-0.24959402305287348,-8.208935505750926,-7.552934243592439,-2.3150293482433035,-5.734705637774022,-8.251271727329815,-3.5386494684048433,-3.9734515462525763,-9.05061820840997,-9.302117667703746,-6.7407241078988385,-3.2378380371855346,0.5785393526886864,-0.8931646971765588,-5.747651745331638,-8.066015410452477,-10.906763678031746,-15.302652659348084,-13.858947814173503,-7.395540192115693,-7.369380465825131,-11.88379544968663,-5.4700731868474035,7.450125824014557,10.989897875353599,8.361195871481362,-4.156960012746483,-30.820867698452954,-38.970605537591396,-26.279741643984348,-29.522725690439195,-29.450643438993843,-17.50167697623839,-29.40096799749424,-34.30970063365203,-10.341617890743251,88.92998539097428,383.24066062404114,543.060518171023,28.014892920756694,-632.9045198740415,-480.747369717535,52.5192560839782,79.97320023635791,-82.82409554718339,15.847375690560721,64.5462733001416,-21.46431592660048,2.101914625884554,43.30847307616715,0.8159054496404892,-5.794779318599742,12.241475294666815,-8.427997388722805,-16.022311470434047,-5.0790987069123466,-10.815982013152741,-14.675104305127682,-10.88975164692856,-13.35310104412018,-10.141990252836052,4.865474259283781,20.427098225926894,34.394518466827236,49.97591357336904,63.19282454234293,69.95303354626193,73.98293832206407,76.31596605858226,67.40189771133234,41.95633239968124,6.982715349994056,-26.5299424613545,-48.931634739141785,-60.176336241715696,-67.56428434165551,-67.78356445710412,-56.61926507189864,-46.19773124112338,-42.25828763907449,-33.897339225916184,-20.995307791932657,-13.548382441632768,-10.197280314367859,-7.0157491268059395,-5.942222804125844,-4.3639549585801,-0.062286524423564416,2.918246316225714,5.389144749292857,8.025570236509342,2.727801219613685,-8.635675788800881,-12.755871591259364,-10.412317905584434,-8.508529624311521,-2.3405930352560844,4.4550165582700405,-1.0555458143094008,-11.417273923911875,-10.742987663514675,-3.570384356321412,-0.07486084941943183,1.6276944886236748,4.877183642684321,6.138372074677012,-1.3004266549555759,-16.02803980680118,-23.98621927461327,-20.259835384085967,-18.041213826568455,-20.884585607126965,-19.899925029904345,-16.57471082302873,-11.223630889828009,2.68117208907484,14.34384509315161,9.66363856642434,-6.462566671535173,-23.506648654948833,-26.844310316575886,-17.185912751050395,-21.31741127796591,-30.940641696303715,-27.37634190549681,-36.17666566906796,-41.32779493575228,-19.38070539597429,35.382836280452096,258.76716007211184,529.2143338792246,249.70425697839687,-481.44701119561944,-627.6010325622115,-90.02677657587918,142.36088331900925,-40.79225678190954,-33.284186771982036,72.34015142846202,11.708506173431935,-13.116253982840071,38.5696595976273,17.042655276579097,-9.35865699059055,7.095421230908943,-2.611851343819745,-15.41350903064154,-5.101397547634966,-4.769018269185226,-7.74985417570688,-6.885941301899256,-15.49578112463914,-14.796598556411979,2.5035046173580144,13.258815711721429,20.113527875310275,36.71522173509957,50.76120243568481,55.41176932097599,63.58353866968048,73.04324419964648,66.54305376400337,41.52066125346683,5.571712645153843,-33.668306039316846,-60.99539487390136,-68.26696944607562,-66.0981312243079,-62.081602284407175,-54.87209168804582,-45.042283386648336,-32.758858728017415,-25.123276565579616,-31.19596318566346,-35.357368179748136,-22.024936114925268,-10.892785256424588,-15.236537950340022,-16.14624377381225,-6.587267618461503,1.826683905634372,6.547703857686976,6.591744026868266,0.8265587391890286,-2.8767578040062425,-2.5284894136733858,-1.3758268048329985,1.0980107452122603,-3.328605115838979,-15.904872992332248,-16.037771507138608,-4.045640370390583,-4.619709322170248,-12.258345855445,-7.215302204611488,-0.3601415024697232,-2.30923392955523,-3.3869888685650515,-4.4672966665220315,-8.75221987273797,-5.748576032111258,-0.2804129085141902,-8.995965054859884,-23.086833000212486,-21.70209899999578,-6.318016066681128,5.911713175796917,6.683336585363941,-1.407425215307196,-19.523288770139175,-39.11320377733324,-35.997794898067816,-22.180448484810075,-25.996304482902772,-23.50417782348544,-10.921992684903834,-19.807707474635556,-17.895084664071742,13.492616883301082,106.23983388198926,354.8473091947608,459.16687889939374,-57.40068601549129,-682.632547465183,-505.7805090177284,55.338132082091334,110.9455928248758,-55.76576307892486,34.02320830037004,93.19807443124624,3.3675037193853843,7.050134157876997,44.45386057849761,9.109974841396138,3.2863953090494604,16.873060609115704,-7.466278927122077,-10.210063297326847,5.707408259244848,-13.725561467673709,-35.265710409697505,-28.663547481019496,-20.243811133235248,-14.020786231808657,2.654806307933878,20.076572348577244,31.735757600395296,44.54253846179566,58.44456560742198,68.70291437251683,72.90731708695168,68.05259180204571,54.172825062711574,30.49491525312476,-5.337057168306229,-39.79155026661424,-56.2052713438283,-62.224280072927996,-65.47314478800232,-58.34954236470849,-50.76956349290346,-55.13123511919788,-50.53302703786399,-27.55711722014744,-15.851467346795815,-21.641888975152888,-17.393553800603005,-4.249650997544787,-1.8118866412541088,-2.5910941464435915,2.0847124557924968,5.259649863044501,11.24215090525933,17.28492509972333,3.901268933171739,-15.08880520741716,-9.899324848692455,3.9071097077507453,5.067300542082087,5.418375142768319,1.9008285045491853,-15.389256186533492,-22.835427793110632,-12.821742080903187,-12.519393924937084,-20.611333422954594,-15.77008450071581,-9.257022302794326,-17.14935175444915,-25.06288828166956,-19.808684679782488,-13.111943277076087,-14.790600413024983,-13.79115964813294,-2.584343960283686,7.624642682087638,9.65739631036431,3.4221982261184625,-12.460095618957602,-21.74124263448358,-15.207290134099349,-15.884002156891654,-17.124378699062973,-0.07849589247538447,-1.2846263444853143,-23.473269897823396,-20.05603517807363,42.37047512572845,247.88792207545998,457.746555130071,169.2830069979521,-515.7990809846203,-655.1609321154885,-113.29788121418223,174.48336424442158,7.656169081436282,-24.621131942836126,79.32779944029565,37.1845526719022,-5.933506740275853,30.539096804055283,14.643039068587754,-15.342802419325286,-0.30908353956854384,1.1860098246258324,-8.426771950757642,-6.265337604621568,-17.373013867820216,-28.473238401264027,-19.18733246337193,-9.258769293203958,-4.170035497207632,4.4892309347145,14.890604542658965,30.299523774540607,47.54716554638162,56.8943635030619,66.8359224853862,79.17544948888509,74.40312714222136,54.373123048168445,37.261404502309546,17.04497535213882,-11.3863747591982,-32.08344348582753,-46.49849510147655,-66.7258035331056,-77.69541391063541,-67.70578817581773,-54.61096541047429,-47.166454410013436,-38.3548669109546,-33.27332647602622,-32.87135245826912,-24.9952549131403,-14.041754772919209,-11.17078102583907,-8.08590427738023,-1.2833818189219102,-2.366999307854595,-7.127230305086947,-3.745169105787845,0.5825045375960638,0.7224666637956219,4.4772842936643915,7.632663171318512,3.704135950641316,2.9929882403148973,8.611513849447682,9.815534988872681,3.8109621303247785,-8.27464293964277,-22.758008221293288,-26.81752496985097,-21.056986888315848,-17.820225613280037,-13.682226315795464,-7.345551020683223,-7.391794905368444,-6.000444769742069,0.4075653765713376,-1.7469897950651188,-10.295255260425009,-16.45570586358302,-20.524842372521753,-21.86716344551962,-25.993068029012896,-26.006974494783208,-13.379315228333795,-12.846857289918256,-16.854126867924975,-4.022710328725996,28.95895549136344,204.28766490929144,452.7409237054525,236.1033871322752,-440.3554770362241,-624.0197546631648,-112.87955314278241,159.25535634934974,-13.556785792737884,-30.05505270580545,84.06652987281089,33.254264864515285,-7.533559815013906,37.926716888500685,16.726889897719758,-13.732507729242947,11.127602916805401,7.0105217286187385,-15.33837062226522,-7.533206913448463,-8.866685753411616,-24.780961496143618,-19.96374328016841,-4.739716835367221,2.013058838601986,4.850344358132472,9.322491150164328,21.675027552431736,43.18744545515143,63.82391049651943,78.96516633556635,84.72527977001477,71.65009576156203,49.64114982752504,34.10557185927787,10.891564857651492,-26.19970878141307,-50.72430282379677,-59.13357529683884,-70.57046872930012,-73.53470478653693,-55.56965450425137,-38.194966090315205,-33.34913804627823,-31.98529666700258,-33.14985911079797,-31.971995326577343,-19.382966425985757,-7.9352889807871705,-8.418730143785648,-6.594731969021183,1.9783152476004204,2.252395498703965,-4.700378230508017,-4.890101451913797,0.46753395136235376,3.072822780165726,2.2110890892560686,-0.8846132790994048,-3.5294511166019085,-2.193802614233011,-0.6353010262435319,-2.735084322180004,-4.099361432916801,-3.3395062060509026,-5.673690952702334,-11.270864158369642,-14.04584196713923,-11.404008429802138,-8.85038966609795,-8.994791974913044,-4.05927687137024,4.250398555465312,3.0711589508632873,-4.9854259528075,-12.23235639170261,-18.213947673557442,-18.801307306712673,-23.149625674427064,-32.69084168830094,-24.233810537401244,-17.66141211472184,-29.62530381590358,-23.615914288635878,-10.477836128068745,89.14155805528915,390.0429542080362,473.88893117160444,-91.22941364225417,-610.7963324568254,-330.2560178333546,109.35173702173526,38.033320289371076,-78.73944428504154,40.330486383558764,51.9125888538772,-21.62666723348828,15.509148359311176,34.39488639246658,-3.050335928456132,6.326579993126593,17.22629391672867,0.3626165211361885,-2.7621366533969507,-17.432471847725115,-40.91893119231562,-30.90251818436135,-14.800151956782454,-15.452176985736344,-4.158197056617727,15.906025923931253,22.80495348778759,28.7680180289721,46.42666624816545,65.21173780625712,75.31153631011391,76.12660379990953,68.57426212729308,52.7554194211652,29.19952073354333,2.4971861049240776,-20.857047668113715,-41.67896858182097,-62.72259708422924,-74.0236329300797,-64.93417374269576,-46.1454502400082,-34.429610310486375,-28.81715428327489,-24.212611460904682,-23.13847996848365,-21.049036221221506,-13.015739804294405,-9.02378345764565,-11.666671078914607,-8.328408414687956,-1.9396548429611897,-4.306803596360226,-7.3487374891787915,-2.7176237021683587,1.0127485940613123,0.9018940799744275,2.572261400679647,4.325108342172927,1.880239597018349,-2.4589284134459497,-2.0180308892408227,2.9911810006401094,1.0828301670715028,-10.20243488905271,-18.372933265817377,-19.18295290758133,-16.423107800964132,-11.916880626399127,-10.68101180641106,-9.674237151156273,-2.512197877392989,0.4399661997372153,-3.0845432744019625,-5.886501466178149,-16.425979418779928,-24.88553718293217,-19.811339165392415,-27.250424120555518,-36.05479810914786,-22.245031467057817,-24.378262423219006,-35.24910108286444,-28.27571429896868,7.314466048604942,232.84888359240244,539.7321739948347,298.5146858542012,-409.76511878745066,-548.8236334883422,-46.92604242271787,124.81265265582866,-76.10526413025188,-48.65522480538462,63.665854628889186,1.245308015067014,-23.431881028689197,15.25463375639789,-15.923835418426151,-29.802827455304364,0.40141149617358707,-7.018556669911881,-20.359335033552576,-16.247165662282967,-27.2049623981099,-30.341111266574742,-15.00646222119273,-9.85827502821024,-6.965593155723978,5.498800534275205,14.738709878156254,25.830860571626182,48.65865432949154,69.35635267704382,76.56092499283336,77.25728687391063,74.63196320080219,60.46217393249053,33.67725691670712,3.3974708628962342,-24.239486134823064,-44.62634051678023,-54.268043401467764,-57.1488786950665,-54.06802417469706,-42.09021468610489,-30.363687959157676,-26.720913678907834,-24.30461949809883,-21.01566858473786,-19.773545214848966,-15.223705923570554,-7.346299901059583,-1.9380438658334853,3.1884743366168333,5.970389721843057,0.6825422863938648,-4.091575791772039,-2.6635920061718252,-4.541902570488041,-9.38689972783356,-7.421289029812002,-2.147021764180087,-2.0050661369268337,-5.732350326927719,-7.502272214404732,-4.547870211258374,-1.2998118207338045,-2.517624467778454,-4.543594961253458,-7.26337684703255,-14.678769945044117,-16.32061623513268,-5.436885710021807,1.1999607029745611,-1.2581513314632105,2.6730083141427095,9.779073498637183,7.094564672307373,-6.973706580219524,-30.06984964581387,-42.15557628325287,-34.22630878846638,-36.844861765159834,-41.75872171425651,-22.93365598715218,-18.20268501666363,-26.855613776499766,-24.463035186760738,-9.009943681288533,190.12968063050033,530.2673268030279,366.86960744602163,-368.4923354703837,-628.993531239877,-140.96051804005447,121.43286818578747,-57.463354327982806,-57.082398913887516,69.26165704729719,11.911170850218753,-30.526696736376387,24.006785624294086,12.237686901612847,-14.52750354059127,7.311762573367354,2.847981561673887,-14.627717576582057,-7.56577685606153,-10.749066287274008,-19.42933727549408,-12.695777054899883,-11.696597887183092,-14.777020284509966,-3.29829662098995,11.411364943450543,23.805573756074807,44.42684553249206,64.42479778256633,72.46656736642794,75.56965575614063,74.6832378169983,61.80805885010833,37.18033538152271,5.301132105036744,-25.31268145791246,-44.246071095256475,-53.864667019635505,-59.408967361854515,-57.60610460219853,-51.49555809525182,-45.651130332664756,-34.458852649303985,-21.024905795027564,-16.0656858398862,-14.001848572685455,-6.64344762187282,0.6917809796971603,6.6900626168462045,12.620071997262798,11.831003963673322,7.767041362424428,8.197211742422343,2.967908697864349,-9.484829403825941,-10.48738731284552,-2.9445720720502795,-5.763003506001251,-12.904635737389253,-12.75019249792479,-12.007700105711631,-11.559183657591413,-5.369220998189284,-2.35894119160319,-9.267693374062542,-12.97916599970192,-8.187338237322315,-7.274299917577583,-7.313618143878353,-0.9483837219022639,-8.240359508626774,-28.024760294361627,-21.683041766887076,2.3907560421868244,6.535565224463333,1.7792551083116699,-8.310964707889035,-36.22206472597208,-46.41181579288198,-33.736091542865964,-34.38246428341756,-30.56091795332368,-21.802261802685486,-31.80954926183722,-33.939236904951244,-17.574820950064435,124.40341560729142,460.1105779715317,480.81375265534336,-181.345093720771,-677.5317303832026,-312.11886804013295,124.5168562617937,19.937069175018028,-76.6015279700276,51.47397936356381,41.83368367948053,-29.75363756163583,17.468441739048515,29.078178515853754,-13.052801390648433,-1.128367593645601,8.137315795017852,-14.838020878809077,-17.01972622438534,-12.984057292335333,-20.929912232627018,-20.335857557980976,-13.67596431763607,-7.706314557289814,3.461632398305639,17.004314906014333,30.123783323529285,46.08961024355308,64.65751209385101,80.46529924772736,88.78684417814813,89.31244986204852,75.60448680620254,38.71336416020813,-5.874352042901027,-32.955966038959644,-47.06505324192395,-62.958782285429535,-72.3597136092943,-66.84499290772413,-56.693583091267385,-47.97563156959935,-36.90466103061226,-26.664006556660553,-21.12941159019605,-15.934862420042524,-10.230598419521536,-5.444176595319314,1.7933947262031307,7.402663698943636,5.919640704605633,5.9897039306672,9.828275702513128,9.448164064880018,10.791216274831344,13.585013328070769,2.605497804347463,-9.99617855596893,-3.4148172034506796,6.0326069835851674,3.9835700377734806,1.264414534220144,-5.514373750497619,-21.76868556254513,-30.999640757445327,-28.37173277794618,-25.41411375564893,-23.111350010648913,-20.67581254059403,-21.727986692933364,-22.97246134230412,-19.181772870944403,-9.873587888613827,0.3184958271123648,5.951883013825029,3.7994996861830757,-12.48542083242631,-30.692236094250003,-26.128510977728155,-21.735776984726314,-36.29145672305044,-29.993961125541652,-17.7250198731564,-34.75283803878837,-34.97581003047065,-13.345938622771726,98.27993008764324,416.9087705477733,516.4068842408462,-82.65870255925292,-663.5778735809826,-378.9485212226028,115.86428375307396,58.88224863324149,-74.94186961694102,47.99513745207646,63.830879590619176,-20.310414544174794,13.825734096976499,27.347162725700677,-27.431122187054225,-21.311437739204642,-1.6624484377451294,-21.46711852491454,-23.86537913722684,-18.43471710373013,-27.131796810259523,-21.819359011979365,-12.119368188583579,-12.859101378636424,-3.85547831573009,13.47954801876331,27.040243997538663,44.81001601813337,63.341790917272235,70.42984339323148,72.76049824142842,76.64021476353417,72.30858623446053,53.15800425405345,23.62480917565973,-9.862847143083592,-39.88633058252154,-57.62322046976662,-61.74334440293595,-59.25743708371964,-52.72163074044294,-42.02660862166161,-33.7733740242611,-29.424061918349388,-22.971876319246693,-15.127287804882208,-5.612709540566197,4.109560447270642,-1.7491969481300522,-18.481888569322834,-16.52513832956057,-1.160961847230606,1.8852529021408788,-0.353385040913766,0.40292248261473596,-2.5154026393421187,0.30912751220796153,9.453181177742229,8.576432726592166,4.631268678015816,2.960518022041235,-12.47754599531028,-29.135851297970056,-22.10408695754994,-8.465043923405785,-9.648610515778003,-15.196811913402165,-17.45887359312254,-20.349785361431525,-18.952783587834027,-10.53497277404866,-5.151290584172809,-6.7606194834748266,-4.976514918421977,2.727139239905341,6.161961285410227,3.826318100685018,-1.9615436237938368,-11.758717976103483,-21.989615012609022,-40.24706017411181,-58.5587638240342,-44.453657032067035,-26.913970490637503,-38.58560913925278,-32.23633021408247,-6.817918449595396,99.85385985243045,409.975213734093,514.9985786119425,-82.92072932040193,-694.9387700058911,-427.6915475377132,101.41163933205273,69.84408173253172,-79.38218284973942,40.61709950164393,71.69508967220318,-17.63915057518873,10.676039756033362,41.42779251512527,-4.569479429585851,-10.120207950791503,5.216684762176291,-9.00555681111928,-12.715448542964289,-12.527646730704909,-26.22869527307261,-28.56424919634302,-20.35152669702559,-12.865835907089416,1.4056799978374501,16.276187945040874,23.81034578312681,35.33714116162257,55.270853079493065,72.5198671701966,84.23596654844425,93.46565985850664,87.20971318381766,53.797934712867814,10.077480568351149,-23.06737726606242,-43.58956786363389,-51.383592650779136,-52.000577313189304,-62.14344868688822,-74.20284988105557,-63.31795909921165,-40.42986560974549,-30.924424866340214,-26.176543582535707,-16.74209161066169,-14.776596928547782,-15.235560336605154,-6.024181301922624,1.1294359096002786,1.4854415279056035,3.5517395258324083,-0.06553786209770607,-7.631936922488208,-0.6371781921132396,12.254570026190088,12.854635122723574,6.000980378928414,-10.24670889000221,-33.71777370484975,-32.755914535297826,-7.938760239699347,-1.6412467771931247,-12.36951722345578,-10.136147923806998,-8.49468325756835,-21.553489826786514,-26.154122666097916,-17.387656204629398,-12.190830836033697,-10.999229606850722,-14.67041109086028,-20.015769937546008,-6.546195890061242,13.533172121609415,7.954849812453563,-9.731169260750086,-16.808283324689942,-18.635771528651276,-19.81813914835015,-24.33825243182922,-21.82882187408127,-3.7727425858484125,-7.835801201052657,-31.12757941296817,-23.247423972581295,43.19396820324515,256.1176278851458,484.2061897256516,195.21852281012605,-517.4787281504169,-661.9652262668321,-108.61188843479982,160.1349356661058,-18.277984285008728,-21.486370479114182,95.29216333911269,37.074533889408684,-5.268461185555051,38.824695453913506,18.03637385321972,-7.807193244484387,16.630995047632464,9.77900936435014,-20.633232275785318,-32.96839312960975,-36.84200702813207,-27.942063120990845,-17.570821536721034,-18.86389358150016,-7.276151542820129,10.390922766265788,14.730355522375248,31.567423229799488,63.79951840850148,81.27946161695041,85.54157431873955,84.32167528262215,70.88333049599822,51.41879345820381,27.876729327074738,-2.7024437226637534,-27.901905104259654,-49.259476750820454,-75.75878648605581,-85.71304903113264,-69.01335202805122,-54.6511567897183,-51.82412836329596,-42.072882169657646,-27.74893764603788,-20.30078870400476,-13.493733899258338,-5.1799414236174925,-4.609007588071005,-8.495007331743437,-4.315367354332455,4.882949255949839,4.351564151085004,-4.75285677548395,-4.015196432321927,8.476421232661492,10.581349639576022,-2.559754243605381,-8.671524763862227,-3.3455918091899797,-4.066907515129341,-9.484996990286168,-8.273151095341824,-8.151473645062275,-14.662151209795613,-17.80234272393941,-16.826621863036827,-17.4304597568699,-15.641163516635139,-13.687760428871357,-16.30363098958406,-10.90840763128918,3.614531096391211,5.776848875280738,-5.890925078012833,-15.841865905699374,-18.17223502477912,-13.905530918447013,-18.403360695406846,-30.23177071685408,-20.174767351123002,-8.902166341527522,-20.032995093163798,-17.53613056605827,10.76806138327403,148.4996290108022,430.41349374375596,393.67340329364936,-248.8185428249762,-683.5445015403764,-296.26587741886385,138.58743031117857,42.76781976845862,-55.01364854347426,63.78940446084188,59.6501803949608,-11.904523736371356,13.446419499048705,12.33470780363979,-20.139544424004065,-3.4831443949691687,2.1591556651979316,-17.651350520260294,-23.77461488801937,-33.08558322196334,-36.19066588809738,-19.397752509436817,-10.79411722393481,-6.432460100601119,5.411766038701259,8.331463662450945,13.88752826200245,38.67108711092237,63.77306081074255,78.87704557364191,88.20542927578867,84.9607436506945,68.35451569546659,43.78082272793436,11.195237771918068,-20.301735926515672,-40.753118372524455,-55.553607857093,-65.61153801995326,-62.32943064091582,-50.643152557997574,-43.65056826235715,-39.64589809331865,-30.096580568075474,-20.635227110431618,-19.17397865791265,-16.226137854858415,-6.057620483196743,-1.2915746829749217,-3.3898256465989576,-1.8327879672623304,-0.5141219116413183,-0.5214026861765912,6.7644371566039485,11.295244377000113,3.738023569720557,-1.6050471435121771,-2.1112648872920925,-7.821000512007561,-9.681938264364154,-4.132569629882093,-6.170649385939294,-12.090065711216331,-8.978086232668373,-6.42343769839545,-12.052795416129982,-14.81081297337907,-10.800998722897953,-7.7197898114153745,-6.197525546104428,-0.3243815703471462,7.902302414354896,10.399910123379353,5.530084534949382,-6.96048711007078,-21.32568004584828,-21.969079800863227,-24.613706579491087,-46.320052150305585,-43.07578412943686,-15.618128756052613,-22.42105934859112,-29.047574005912967,-10.136339689535632,48.04434438074965,295.5587166150209,511.51985380006977,105.70364861991472,-571.1784516761852,-512.1395904085018,25.229903364748424,98.10025049410967,-86.79574682212419,-3.402420106851377,75.85501755537699,-7.410928136618594,-6.864039159655555,32.76221365034155,-3.2399738048421654,-10.013359095453776,11.896237551234574,-4.333527797226127,-14.195867210542811,-7.391616323261522,-14.896267068301691,-21.20613463514337,-20.377494776880617,-18.776264409854075,-9.031565398994434,2.4810178179499083,14.073336347383698,35.575759261080705,57.03446709470771,69.12704384776899,79.8557465132788,86.39723167637356,76.84907660658403,53.0081016542542,24.02682087595249,-6.224461483126542,-34.25421791242059,-53.04810770447702,-61.147487029840136,-62.867109396154135,-57.0682124060611,-44.863952154591324,-36.19044566490353,-30.886489328006192,-21.783342256071943,-13.88678135698079,-8.881411533819591,-0.297300101777612,5.335990541098498,3.353907581286066,4.131493205793379,7.256065079407083,4.766068095524076,1.8413168843997951,1.4944898080068771,-0.7611152003289892,-2.1702243027977115,-0.4616759780823365,0.2369327988904839,-1.003998882623799,-2.974646585001919,-3.653269537644082,1.4349127981605978,8.99579999417155,6.631753288946317,-8.840708100740759,-24.00469906786876,-26.80039769546432,-21.401827642198374,-16.716978650807437,-14.856674447190251,-18.92054008845339,-27.068708994469638,-23.353031061178097,-6.8431430008582375,1.544288016445016,-0.10104522111465286,-6.0839432194802185,-24.73559268972089,-36.73154969642237,-25.686781478811,-24.10170449715615,-29.369507577614236,-18.31382470418186,-25.008112814528168,-40.27684124265416,-31.519339453590497,15.356224335533852,244.32209054868392,536.349836265433,277.96404733988004,-443.4199692872467,-591.0152543666065,-74.44899545841756,129.457506353428,-56.84917922248372,-35.19073181296663,70.17010789830827,1.5235237338784948,-21.287808000186274,35.1341359364456,14.957133228282858,-9.801750225090544,6.733983570761702,-5.789308349851412,-20.462197424612913,-10.930563447552547,-14.435128184963293,-21.39084432444718,-14.832468454098604,-13.102158738197774,-13.464221350473249,-1.0231395505762233,18.347971446077,35.64117488953806,52.14198311539239,69.20806847158377,79.86329278487477,80.13888966683282,76.40879121700065,66.17210554680925,38.928166943132275,2.123794818806843,-27.392683076152977,-46.00905914135087,-56.13029688192119,-58.640992774147406,-55.481152555847814,-45.59770609629097,-30.346650723161297,-20.17311870703314,-20.37811069342395,-22.92938414974606,-17.697920286821862,-2.970146846968934,7.878313080871493,0.21904446289526547,-12.876911131481089,-9.896443499441443,0.22167957538183813,4.383304291275701,9.793467158703043,9.906665953216852,-7.331325941346243,-21.185025504461997,-16.15145647493133,-12.29562118653795,-15.462607769590704,-10.307782178529465,-5.585177198265637,-12.955597493554357,-15.468604713538578,-6.819260482551487,-3.3599680684457667,-4.683937951414995,-3.229733589136007,-6.690947688207466,-12.130841060758332,-9.659548048676564,-9.854581638824454,-16.141539928549403,-13.12687160695996,-6.610459540300237,-10.237888214966462,-8.809913456336083,5.790500434813538,13.592036139182488,8.023491001222709,-6.346411912542408,-28.63495119325778,-36.22307656561752,-25.219760519830714,-30.323550995459186,-36.70405624752368,-22.970576615452863,-30.924996177088442,-44.22100799466079,-24.952044989677013,35.72586681856288,275.1264155906191,562.4333675622335,282.8080346584085,-452.64582718515294,-596.8613138186611,-78.5516155237028,120.73500176145411,-63.35590628643883,-36.02449689427314,69.59145778756879,1.565374752963411,-17.502729417533665,38.22915943047269,14.121078723826189,-8.687076497255623,13.269367632651367,2.389801633482752,-11.646848502591045,-4.464587139192835,-19.512501434485056,-35.05267951310597,-24.736573646127862,-19.413611593378803,-18.840845688928038,-2.3941822619282656,15.035752866042294,27.644272230805562,49.586648571665,70.91338265392072,79.56411495344958,86.24152280265128,88.56451363108224,73.61463980814878,50.35814247242197,22.880577147205933,-20.74833516351885,-64.05772183933732,-78.42481078709979,-73.92161125299295,-68.48733480385843,-55.11967495263565,-37.477873698680995,-30.745954304340216,-27.444564077982402,-17.897021001753057,-9.510751659252414,-2.0189918894899,7.870893817844257,8.133380639586287,-4.359668347411279,-12.74342069362488,-9.591315622373031,-4.935821644388033,-5.467460908902272,-9.062080979955386,-13.252764377423382,-15.08396835525199,-10.838724517054473,-3.5060666842860257,-0.05417718198325261,-0.6709500074521362,-2.422378668673341,-5.885389760614567,-9.01993262706254,-6.591430819381339,0.08174080566305264,2.231491637383801,-5.178602968011248,-14.991674902873408,-16.486227237832278,-11.055379699755463,-7.70350828952631,-7.014154881511272,-4.270437636255831,-1.5687621972738341,-3.323183432860743,-7.02637759670999,-9.268145096621357,-12.358886367935906,-14.623908622059908,-9.21187347204504,-0.8987775336010078,2.8939356477286804,10.140762501665872,17.35509498100678,5.150538468332003,-17.85493847390412,-31.37678372602251,-36.371851066684954,-31.94400662228933,-27.442169177458936,-35.289448631290945,-30.948489303278336,-21.919741270898804,-36.79509184149212,-36.258320323501266,-9.505998697140086,99.08956934840396,411.6873153618345,557.8054958631499,9.061882671602348,-634.8756621896896,-442.6692335060808,73.69232575854977,66.95232086141382,-83.9372442376729,28.476836945797817,58.132777139199334,-41.691594018282295,-13.681801559662322,30.82621510881898,-8.797232153736882,-8.716478375894258,13.168808470669687,-7.8363702698926545,-16.032280667310896,-5.279961594618534,-10.873021997611916,-11.17088379897569,-3.5199140842688204,-11.668070627603655,-18.702331478306277,-4.253394207823801,17.141663003865,34.29389094907307,52.54763010249718,67.3193002459128,71.20890244316507,73.53139136619549,78.48780795825228,68.94404336520118,36.26522109039392,-3.5311027591717843,-33.899477364228446,-51.488764787603856,-58.47443768965661,-58.62854621981316,-54.99392450108808,-48.926317136389144,-43.684356874684674,-40.06606869975288,-33.65016394783287,-24.541904655417774,-16.229080605754994,-7.074310535475497,0.923943562921206,1.1413015860978746,-0.03933269839741982,7.72111442320936,13.452560005605067,2.4375133359145345,-13.635940501672197,-17.370543074701853,-13.57926917276107,-10.72790374540842,-6.171382796629434,-2.1979211954319737,-3.5517857674097755,-4.898530966598052,-4.128586689390449,-5.379690445967897,-4.632431891970382,-0.9118874338158705,-4.179676062367433,-12.489754164933355,-13.850265545992329,-10.72843441333901,-9.811338409436912,-7.796971213346101,-4.905776961500164,-3.661537436098346,-1.2623303972519277,-0.7511229321236996,-3.3624262409115513,-0.1086615588908817,4.705411306566573,0.7682026791088656,-2.6876194405869462,-4.7547130188371405,-17.198393497088187,-24.113574821448587,-13.30766922863721,-6.152394860519413,-1.315069525001821,13.780581222891744,11.469572411862732,-14.347155551000856,-27.93145867754887,-25.689863325989528,-22.48187097138598,-21.329039828084426,-27.90337861484722,-30.828224195980106,-29.797506462393976,-38.761144999665206,-34.908831933307816,-17.022088211891543,81.42639933446681,385.7211399998297,538.0900465295368,12.24757320796553,-631.5537055260833,-459.99761412909675,66.85146606509932,81.06075577635522,-87.37040292778265,10.724636695233453,66.69677547673243,-13.1723450695393,6.350472602601968,45.85595697535988,7.0464334533189845,-0.3363080129116778,18.981965917769074,5.528602860895097,-2.8567167364588535,-5.622215302934653,-27.510528368027288,-36.78935097308217,-21.617877641899625,-9.836179954581606,-6.082041991368204,3.440087354625163,17.015434616673907,26.026661317815396,36.9024911122825,55.952438572113365,68.92168215363198,66.85498751900218,60.52796900199977,50.43593376819132,27.01850947786508,-2.123709087233383,-24.14301102436381,-40.74374287905953,-54.37737990799084,-59.79216837010191,-56.70165948051698,-50.11650493724591,-41.65114432084518,-33.21163007661068,-27.41545944341589,-21.235207804318318,-13.620015471656135,-9.716213798851236,-7.913490538872434,-3.1424958960654727,0.020176791546530737,-0.8695509094699325,-0.01856911199441491,1.6569727268837315,2.1601885653583484,6.061783647556918,9.13036097619316,7.056677457318495,9.234131799535568,12.206848522516747,2.243395560617973,-9.268333078298188,-9.89818398908114,-11.546472930693094,-13.7963661758065,-7.219585195614259,-7.667609205616664,-21.542155125856077,-26.039825900692705,-18.64718954622949,-16.210511851863977,-13.297598030650962,-3.8469689863917846,-2.5228845249227803,-9.41431826857298,-7.93759146438987,-0.13654116919120263,3.061932427820528,2.4134047296385255,-2.6626372849134405,-11.409090408989895,-11.885876512299511,-2.254242187334711,5.427432029428622,7.618623312763285,4.464693186333941,-6.353011009483554,-14.339134960461479,-13.930372200967895,-21.500333102321306,-31.148444010841853,-21.55560715192015,-19.085403697256304,-36.50164482503376,-32.03931515057631,-22.84712356947304,-37.71179400334398,-29.992371229525588,-0.03765913275874766,117.37274754176516,425.7538024770365,501.82984367117234,-98.77815873918539,-660.4574268630954,-376.60927416292157,102.40632551991155,46.37149784293958,-79.47571873621355,43.7883503603341,61.58443264311424,-21.225575541556893,9.695213117713237,27.402311037858617,-17.72895211299382,-9.700256781629005,5.802642669083471,-16.962696955974245,-18.100243613888928,-9.115232865846952,-19.467317970113996,-16.82414329886189,-2.0442614701857265,-1.2756245477093988,1.200852902142512,17.846461089082222,27.316044537881737,24.949858203066476,31.25946574349179,48.2596933513839,63.979336763738594,76.19723461722324,74.11748068957826,46.27951629290163,11.580952740184292,-12.050759266003368,-33.293203469498216,-52.00678619794163,-58.46128206059221,-59.384399971840914,-58.59892975132615,-50.20923867793074,-40.15177795430638,-33.32606923128475,-23.705209454403704,-15.153087693513381,-13.775403185343926,-10.762449917243778,-2.627742359741445,2.414576080591356,6.484640026837912,12.2297338160283,6.501751998161442,-10.859301012059742,-17.28726881837632,-8.957167923236273,-3.74488912035833,-2.8056045787846653,0.9378175077396804,-0.007729594017071406,-6.943413965501893,-8.750185010284122,-4.68495472512814,-2.0739538999723166,-4.852590847513568,-12.289461780250077,-14.552657969296147,-7.1966102665083085,-2.968118159691958,-4.4491651838434905,-1.4184463489772412,-0.31878740180505716,-6.627704105427943,-7.425229725181587,-3.1073171913281854,-4.006009927200173,-5.259248582774729,-8.062711669520123,-18.256948708393523,-20.26418071008547,-8.840698145364332,-3.955678755703879,-4.0080447404382324,4.945510189555071,9.118894371897719,0.6936678244613557,-6.233271013961867,-12.84881790274256,-18.701639354963746,-14.21809608439236,-14.669856279685575,-20.54196009286409,-15.584578854864763,-21.505237420690865,-29.68036887461423,-8.320081803806339,46.648469077284645,243.02891695114909,508.91788327454094,296.7039698697945,-423.9181425828639,-678.1649571021685,-176.61907406475464,140.73975921243346,-24.01354483009253,-64.65689515829206,56.32497083484927,22.607308722218832,-21.94090547026446,27.83348740753928,20.826142120202924,-15.791580381194851,-3.018082441420323,1.1312109171245863,-10.644076135814725,-6.1209628620315755,-5.410913807309643,-12.751319716722037,-19.32822080013857,-27.77478319506361,-24.176313029042287,-5.7876367610176285,10.398957506132007,22.980371194257067,36.365494225501976,49.89590458693628,64.00732340893133,71.92737164826445,71.41721453832028,68.15983810626497,51.003431733414374,12.807271331369876,-21.894063000502438,-36.104790787143635,-42.18644026535367,-49.66512001081156,-56.94626184194309,-60.09892760048364,-52.647145079090755,-39.20095114662699,-30.95497572653804,-24.737485254101678,-18.3726213609258,-16.611488224969868,-10.878975427919718,-0.8410661954574152,-3.1378783237360857,-8.896321286576594,-0.3730513479395512,6.661701345040855,1.5225514224620458,-0.8095252424362549,0.37176315004063554,0.02870426897192324,5.105057082036889,6.637550989132659,-6.4870863534555685,-16.263134992544636,-9.225519261297372,-0.006053701253303956,0.4146048384304635,-3.265743679324574,-7.012525538174518,-9.63144297694138,-9.738730480702472,-8.016770112432113,-5.500048251160713,-3.40649886997741,-5.983160314148508,-13.38263094962244,-14.754202004975156,-5.944029244448853,-1.4118803119195533,-3.416859372081827,4.451784238199186,12.187828718713664,0.5638741255158148,-9.986599824359,-8.280342072854971,-13.137901212883895,-11.411943458613399,2.0301775793892958,-8.23255975463443,-31.801124297552143,-38.61682220103333,-35.12548282408238,-14.374266157865081,25.268587617414425,139.45244576533315,384.24536927557443,398.8225879841437,-181.78049844067192,-718.4363022724093,-441.6624242816442,83.02847714163009,88.2313537203789,-54.73639673144103,38.35700212889731,72.20283241948718,-7.130289291228232,11.518030138925212,41.903291066061485,2.001498675809227,-10.069799992526553,0.09738320245877663,-12.061300261020685,-14.296662693495183,-10.907274128505946,-22.817724587128332,-26.624053348523507,-15.571451359802612,-10.528472174481015,-10.392779945288169,4.498301441057916,30.090729838805004,41.478775098635786,42.25319201956813,56.15946405003341,77.64261196053549,87.0590030150495,79.82281502532503,56.00647195550374,23.165529807866193,-4.9271751393291225,-29.096579586077326,-52.15560652262281,-63.51530051392642,-62.49831864922408,-61.97335365045683,-60.9419562262742,-48.64373245293671,-29.604057241099103,-18.03589884855279,-18.608521580322382,-24.324454724224324,-22.9523355354551,-11.410522872689935,-4.362460157530055,-8.140662690485176,-6.22042238462344,4.867879227806805,7.68805823214956,4.222201915712123,9.792853424785601,18.163288107842376,19.68599317856538,18.800995202303458,11.840700538739299,-3.819371113365751,-11.289547687384603,-7.328957245049551,-9.327147204662838,-14.933642752054801,-15.341943762117353,-22.23657921477303,-34.035304114749195,-35.41529385635784,-33.00818834317664,-28.272784465772027,-9.766210439092106,1.8459190495383808,-11.015275130482507,-18.71363244295603,-6.379637574428132,-1.0710044852627583,-14.169988609046063,-23.993714003712405,-14.825743369569201,-8.67402429620428,-22.662952729044907,-22.804250604017952,-4.855004342557002,-8.110893382960832,-12.558343942380926,16.277297052851523,129.1608649192685,367.1719000651441,394.17721443046185,-154.9211582563455,-688.9026340368973,-430.5133228281676,98.2310168909973,111.92967140033113,-37.07306989360687,55.45483013718639,86.28889835571346,-6.0977216027349534,9.388934275250964,36.833960400300626,-14.446647875993548,-23.456821323808377,-3.6629446668774026,-20.123976984249353,-27.37036037296521,-22.361154054114365,-29.227806786662008,-23.985930759874574,-13.68890371902096,-14.729063040467771,-6.819217620256493,6.468396573590795,12.36918762278777,30.05129056184594,57.960323587965625,70.14753075791594,70.93331685281171,75.44586368245407,76.46074553303768,63.656651854093624,35.23306751954897,0.029043671803212767,-25.047057861266442,-41.81944451465403,-59.211900538303524,-60.4695423500572,-44.32673480477469,-44.07842752210115,-55.439884235344564,-44.5252848533446,-29.209155719605086,-36.43904616715189,-37.04795676911439,-16.07057868793219,-4.967131700033725,-7.769410793990488,-6.965475790723783,-10.964592517136929,-17.767521744163453,-10.304162632491957,-1.038204139084968,-1.710172846048735,0.7147444454548122,3.579510054422279,-0.8573553186455847,-1.1798826664616584,0.6704838285293491,-4.368447203933766,-5.025141747315665,-0.9834037741328387,-7.363694907454711,-17.108030300218232,-15.653926315527563,-8.913241300133645,-7.214116674821744,-8.453833379413442,-4.093598761299059,4.540521870715173,6.700883805582018,0.6012297527667503,-12.423254740338514,-27.439481910920435,-26.4281227908532,-18.982964226952472,-26.57682453391645,-23.791758294369558,-10.060531780378591,-16.480908226470596,-15.056546688704493,3.025449802116846,80.49561563119325,323.2726583183995,420.0864516934971,-79.90954367334402,-635.4569498763785,-415.3098123805768,96.97354072740958,100.73491243695617,-57.895540761723574,34.99825433914005,77.81135699167284,-3.23094799018497,12.00079170726248,40.14934257488667,1.7590946676556012,1.9189649681987557,19.592610107197057,2.6170101998388233,-1.4570958930276738,4.310716692352599,-4.522129694395409,-5.630191159856054,-9.609741784597567,-29.685998485500342,-30.061561539723492,-5.197427507563463,10.62397580092392,20.210819255628763,43.9818863385464,67.01788270629791,73.53163745046486,73.52973203078705,66.4785040213181,42.77272559997577,13.640025006831145,-10.587784797139989,-34.20990044231807,-52.363465190791175,-61.74587933587633,-71.36176153581938,-74.6107991635349,-60.08683413274981,-41.64492209527678,-33.16915926705716,-28.964703036919072,-23.190475144738066,-14.450641222433923,-5.866586882754735,-5.090910169024248,-5.576308079463082,2.8288079875838186,8.965536047042544,5.0135766990609785,1.1132962094158287,-2.444777054094345,-8.623259310200602,-6.33124352380398,2.518754850752334,1.4528894126821559,-5.2180573008113225,-4.195282061960741,-1.5989281024338808,-3.6447040059530273,-5.81568537294406,-10.771564074280757,-16.95156932955681,-13.06930902639717,-7.325515096778014,-9.91249665133012,-3.3798364957520626,11.678112751964422,8.668403372198831,-5.635247146615509,-13.889659970836508,-21.779443914695115,-22.47111122514525,-18.86917098739276,-26.808769688915024,-25.118420236660818,-17.50800589452322,-27.742566197099492,-24.19000240837596,-10.95228727374544,67.21639306609985,346.70421797854254,487.6368647877446,-5.8072144564631145,-574.0875059825202,-376.1330427655205,84.67096757486465,47.31272443711444,-100.11312533882254,15.0705929998906,57.75534522610929,-21.75853874408192,4.441258477973314,36.58574435209526,-5.827311028501043,-8.854961968049826,11.209416312875696,-2.021981592048416,-5.502331910301033,2.358573203189085,-9.107246347713469,-24.202276115051838,-26.700353329839437,-18.403921711006035,-3.524969346040672,12.310992070534034,27.140517731355036,35.048573813912284,36.69900404991417,49.53064408200508,71.06183686811767,80.22869551950201,77.31237900958867,64.32474899157563,31.514423234752375,-8.731351199259622,-37.513204734380224,-57.338298528849,-66.6084842132895,-60.40236657716815,-50.587231042137134,-42.475678348545316,-32.2611009542245,-27.306183429298393,-26.255184556802,-18.4447479650129,-11.793908416608915,-12.153336430639598,-8.988523450233915,-5.546014777450424,-8.722293687834004,-6.791951881763357,1.352238857762842,2.0858374888933398,-1.6037430084910564,-1.7686456965580248,-2.168413529260855,-1.7359371715078442,2.1284140277898738,2.7727885385982542,-1.181812972708828,-4.119481247063504,-4.240245652557572,-1.6353649339215952,-0.31884547015941145,-4.1210832721004405,-5.976142930093159,-4.800095873599899,-8.87799545398474,-7.828309890586329,5.91622616773997,8.602164732491003,-7.62092390638167,-22.512512696413424,-32.187649419237225,-33.999824467267146,-25.944700169775693,-28.326345579260753,-30.99609123137266,-20.50001525172314,-29.52805938339887,-40.26291470453297,-30.93826268718756,-0.5938053273411299,213.4627998307511,525.6322101034466,313.71658757415486,-389.79516691627674,-566.5777302379324,-74.79956411210526,138.228338615431,-41.986563659999305,-38.52736745937877,52.363830050821164,-10.598922081931349,-23.415237175366045,33.06402781817117,7.964502603236074,-15.008601003100173,7.434741991648811,-4.931510608704437,-20.28563631872551,-5.56571692957141,-5.236140424570742,-15.607679927483927,-17.626384487199388,-21.989748216527865,-17.097413983945813,2.726229228474949,18.33635941910115,32.57483565621284,51.14438073755153,59.081006945493186,60.16248079217397,68.30378018111912,70.01569999010886,54.10230991305097,32.125696573751824,6.243168822091382,-25.717382665081537,-47.57278441199978,-52.34147704004942,-54.11985019179657,-55.51480085034758,-48.69896326007,-38.87864019903451,-31.535897149730413,-21.99342234751339,-10.838561177606895,-2.4813401490070977,3.592922593714844,5.852866508117248,3.681393583372193,3.0550879972035965,5.981280029761374,8.738815365265717,7.751622730436361,-0.6845500040556765,-11.133047474201952,-11.31788194623513,-6.207632682645972,-8.819914256180033,-12.065878099237553,-7.3185757623636025,-5.649136234856828,-11.836946767764065,-14.097650980718015,-10.096782316509564,-7.8067571514534055,-8.321962333291694,-10.312260912351302,-14.115939692797223,-16.412505583425286,-13.853191343301742,-6.454314785366705,2.559005172642701,8.14620166381512,5.981893269094774,-9.060396826934799,-26.490270006839417,-23.276139572276165,-13.912017913838657,-20.33100866150437,-21.98390924207142,-26.84295000919053,-44.980675181633586,-35.3102028163702,-18.90125291768451,68.75030060572922,386.1871990797125,541.9860784520765,-8.797320353098968,-632.0379908654834,-413.077996491218,91.88238357053112,67.5770338090112,-81.77526072603894,19.264354246155936,38.728454821386066,-40.36578301712987,1.298989589922531,32.523450801732636,-13.492091644642485,-11.611935215720168,5.291462152192775,-13.6510783510067,-14.613307779670475,-5.883879229899168,-13.942503749957316,-15.137511642808468,-10.850870437084954,-8.309118787256708,4.949513177743018,20.731073429385894,31.904199408832298,45.48017328434082,52.90390304959948,53.75527017521164,65.19665181559404,78.3062378675279,72.68002185151443,53.602683009255145,24.21117744072514,-19.742171898741866,-55.909317629616105,-65.11633948746935,-63.983330285630274,-62.9202299844081,-53.15242922977282,-41.74951094983916,-37.458071203596795,-30.237178796629685,-19.415391351778464,-15.342055640361671,-12.881574173211021,-5.383685166649659,-0.960554484756214,-2.6769806199059527,-2.9909295904367177,0.7570595222424874,6.130673567677928,10.668501435084146,11.46044865760098,8.444695621384044,4.66745707882254,2.872225778987853,3.8463800469811646,4.086337911764483,0.023936499921024534,-5.707195513501102,-8.918216703946024,-7.962968335498857,-4.557438230003314,-5.317829913674299,-12.159067545031112,-18.402154932836225,-20.464499154594783,-17.129186124183626,-9.452256352423603,-5.433478871066363,-1.7036499971851065,7.686906257465148,4.7304919462471275,-12.00255549760871,-18.18140602305823,-20.848351519838978,-26.27595238036171,-19.486621813811702,-24.441868312984127,-45.835718053912906,-44.196458369234044,-36.490205056414,-38.44243566025194,-33.1466939911744,0.4276196019775682,216.6859128786655,539.1340894567818,344.51619147751495,-392.51881163821713,-632.5004807629543,-132.20522203545752,132.77745098194248,-45.53051154256666,-49.52982995232925,73.59453348257989,20.20636331755166,-20.578857189674217,32.410177518221296,21.012458173349213,-13.683503065898915,-6.111438782379725,-12.611422312270856,-25.150998673835062,-18.329372574703537,-18.03605926570049,-21.1720522274586,-16.84433901384962,-14.92267864136672,-9.569146011837836,4.143225227668032,17.057205449071777,29.78045800458006,46.14780352250556,61.212136215689924,71.71575242077766,78.85595091760865,80.21001378974078,68.46371057387782,41.063403466067115,8.10262453088449,-18.341540230263362,-38.590014457100345,-55.641575163108406,-63.08001570592627,-59.607654321758794,-54.89566077699541,-50.061990419570506,-39.702322899530415,-28.350121536482277,-20.42989081990928,-13.902677028443366,-10.819209959934554,-10.240901303315312,-5.453630415210217,1.073221056951219,5.074611711376088,9.220122677489988,9.070331633395588,3.1724238953709296,5.479109195097866,15.035068298111396,15.150572737770519,10.273857763177025,7.4933691686266926,-4.073435969939748,-14.48106937354902,-5.095711259181927,4.66614292266288,0.19015194050188633,-0.10698271066849152,-1.3775445126685106,-18.469079735151315,-26.992845360577284,-18.475141926448448,-21.453670468026047,-29.987666437510423,-22.70558426181859,-19.78218133838974,-26.799926438750482,-14.447201524191225,6.8906188603779,8.220227886756902,1.3907916433619363,-7.608374401552004,-25.239348551320717,-32.814178643584896,-36.3714194229773,-48.29344861847287,-39.34188161549466,-27.99366522828909,-41.74992115238848,-38.05255765086986,-15.994708747541893,109.55115889421394,447.59605690964787,531.8592631058253,-97.96848096978601,-671.3091739968256,-369.21551183352926,107.4490383835384,35.41245021454981,-83.31032246866823,48.09419785712995,58.891930082200574,-22.909585435012616,13.017395025405236,25.90012315452401,-20.37196286597395,-7.970231104932353,6.780599435731132,-16.497682005934827,-16.75183212261369,-11.015644000657439,-22.954341048156504,-20.050934247926136,-8.771274188562419,-9.586539957339564,-6.999697412943265,7.083334872639872,24.396756551150677,42.541508078858875,59.39426272876686,70.5482592359058,75.16358386299939,74.9861346485942,69.57995218102056,54.30248955768421,27.081177045829154,-6.709330785238735,-37.278064967689254,-53.96108065553685,-55.34293996967163,-51.1487586165147,-43.07887114064907,-29.497293710050037,-25.354840210887986,-34.41026140163769,-33.58093788487314,-20.76477355561055,-15.659954850317853,-11.810612272335401,-2.0929528524921217,-5.792374860669508,-17.50473125085164,-10.379889871205108,4.017864942289734,3.451361801802353,0.6166161790006974,5.582092268170751,6.061334906994524,-1.1426168640422674,-9.191478213034369,-14.300043589922119,-13.441295961008585,-12.093803551006758,-17.93729757031484,-21.05684852029965,-13.666081111170396,-9.472756418552304,-13.145851465286736,-11.136335936220593,-5.23673312937462,-6.7944806385056715,-8.40058311956014,-2.8257831582481217,-0.32712715998111364,-4.696557512741542,-8.833717466855155,-11.95419612667293,-13.430680445692618,-11.769032758036989,-12.484237115567637,-11.288621594287282,0.2747793321467462,8.513928735990124,2.9075088541146776,-9.040446677200588,-26.116913080473704,-35.137015512605394,-26.675147490646918,-30.49345489051472,-40.59035593244636,-27.991237197566313,-28.591745869883006,-40.658491459982585,-25.171859298355034,28.486232617365673,256.7984972726299,567.9304701410931,333.84179465739396,-432.05864864203477,-654.7808457034639,-127.50911508955136,135.27028919186978,-49.04808859465338,-47.32287556047554,71.81996829892715,12.189516387967899,-20.24590974780588,38.056222748744894,22.57062743076117,-8.594533395871196,4.410346908169753,-7.193201806758987,-22.958581546202662,-9.673762334470625,-7.128776911198873,-18.81675718538299,-21.008756031557848,-13.888705543071646,0.4257174217366586,17.663438707606815,31.142213550982675,41.44436800775763,47.72645141149424,50.386197166407264,53.738288351270135,60.875727048094376,72.20701976284617,71.98328686426225,40.10261469709408,-7.1902765453274,-37.14736911793447,-49.965926547637466,-59.13567495511863,-61.47523490036474,-56.69009361820342,-52.69900640740401,-48.13104237855093,-38.526675897048754,-27.421130119347154,-19.076998784173995,-11.898907273726017,-5.232739482681538,-3.99092057296561,-6.867510522417714,-6.074461231489366,-5.676689689097106,-11.223699109818817,-12.85650676081395,-7.912975963742518,-6.313993212318092,-6.292738246797629,-3.2507265506974896,-1.768157097811784,-1.9084752041084965,-2.56325532971999,-5.382361318127169,-6.1978998612804155,-5.358668869036219,-7.6681700059554,-8.218330782826763,-5.480845916346951,-5.315427876298614,-4.9942440247271325,-3.488373749806339,-6.105779816212355,-9.15276914130989,-10.473254921631458,-14.675741238223376,-15.655407253002995,-10.071980742702767,-9.319279692517064,-10.854097340532903,-1.4938932288547173,9.695700928051014,8.211429798071869,-5.553777207769102,-26.017317565654118,-33.05515413192451,-20.94999336077029,-25.379905458822464,-39.05312256336744,-25.679248648450287,-22.277304241183295,-35.52952642668419,-22.25319461731193,17.278493406823983,210.300543904511,539.2165236676422,399.66415645031134,-356.0094074967629,-695.5836352832962,-203.19848309750896,142.31229214750303,-27.681071522435637,-70.749171337227,63.588539853540745,25.20209848385169,-28.335387418234703,26.567555169334145,22.223028064737207,-16.320655838941143,-1.6712754139226558,2.762122564681234,-10.141669559573913,-5.7139460028648354,-11.252258907180625,-26.14682532786112,-26.068028803693565,-18.665612734609958,-8.820023244186599,4.810056523255442,17.782141251314513,31.445694097889998,41.88268626357395,49.76671136826306,69.06193312674328,88.5351740735554,86.5228212325316,76.77952943878167,63.407287907976624,21.503107682569446,-29.6111295134747,-47.52754400059901,-47.07396785551855,-54.357639486541984,-58.13600604425328,-57.41458869165773,-59.76180692536394,-53.25516382753119,-40.59039899551602,-34.94249632395337,-26.735635454266934,-14.585975401537517,-14.986143862372035,-21.0626473344768,-14.36699965891561,-1.8394297256636136,0.12817025721482622,-6.703400122157667,-9.843559104285234,-6.20029545916217,-2.036216157113813,0.37412859059954684,1.2664125390308723,-0.5211489260755364,-1.3590517339813566,-0.7782559662892528,-5.450621302980146,-10.535205412445443,-5.730461987677511,1.5906415959655025,1.0233873436319563,-3.0338599925318928,-6.347005380074755,-10.880826771562496,-15.369930250998918,-18.441725607931563,-21.87251264406932,-24.093503959080383,-20.445115619690235,-13.12477419436371,-9.509552772419177,-5.8346764272991045,4.90390260380892,11.429906423350076,2.674912894114941,-12.553855478109572,-20.159857936173744,-12.23117728458136,-2.2716327752896532,-11.130459662310152,-24.3571092160196,-31.41171713863799,-40.05161868971194,-28.024407256782002,0.30586918404183194,90.02511738889537,360.43513015862385,502.6259941142546,-4.371533683778523,-673.5901177912679,-542.6164124038662,32.56442446293802,125.07600523038698,-49.99326962910277,8.875331733940882,67.04532847914253,-7.598157069600337,-0.9796575512290353,36.460481461007404,3.1470288988301753,-8.552487715730717,1.1834115215588943,-16.081458717057036,-17.937409014105427,-9.08234383218526,-19.96190050968641,-22.1118305628512,-11.624053088017952,-9.712530903808199,-3.783011978952019,12.564165404859782,27.34268388867347,41.399910400676916,54.69200408305818,62.984330735174,71.8496619178517,81.02769686098416,81.14139226550647,67.70135852425956,38.45292403521747,-0.20536416911520394,-32.12557976552198,-55.319336485601596,-72.45312835974535,-72.73369478335607,-60.48068231292753,-51.99041837034,-42.16968465554792,-31.970915091739542,-37.631466564728285,-44.016271149869944,-30.264491837496983,-16.897950428409693,-18.44033111883932,-17.09033424658854,-9.345601905381045,-5.825263709122122,-2.251198686148726,4.5404079070597945,6.843186043131455,3.369261800508303,1.3031706828387648,5.060011678189163,9.375421058984696,5.816962466084273,-2.575096719049272,-6.193859985624147,-4.508430859751945,-3.0834145832867055,-2.651381106302015,1.312594754580081,5.953768326496363,-1.7825511312290772,-16.59589035379753,-14.835315253004044,-3.1576728558364326,-5.8277731125316485,-11.039949888166301,-6.741231521608849,-15.093830755480933,-30.31540818250963,-18.804388944071984,3.653314809917511,5.178527052666299,-0.3440776561921304,-8.619828976605579,-31.256737660757793,-37.0186405278231,-19.49624363531243,-20.879498598472136,-26.54236492442324,-18.29957809275821,-28.37761519693174,-32.23721719281195,-7.222881066879999,78.85734878777595,345.86732839345945,525.9241101535068,72.83602992980124,-599.8007570716333,-518.814224286826,19.89257184755881,101.62333205321838,-66.46443727994978,9.440359761667658,72.38899704085775,-8.101147119975455,1.5879970034698871,41.04455543016886,2.8432480682975267,-2.1232190763848475,18.223813586784104,-4.25746217353254,-13.418601648593445,-3.077414574099726,-19.02533684764587,-31.82334028720614,-20.225574973974624,-11.346226195722465,-8.966277850003864,-1.120907792967179,13.7802032309449,36.688428489211745,61.52829276258461,77.42797437545002,84.50679954004514,87.72306717559928,83.28661636474564,61.52669261098322,23.36739280220838,-14.62706873622362,-41.689035876074186,-61.56061857210226,-72.67673119889506,-69.00714392846459,-57.80682975288909,-49.92394181326207,-44.61480533494325,-36.368703890683975,-25.660488053394545,-18.131718923315283,-10.90317397497754,4.524544250589983,14.058728362278597,-1.374486431704554,-19.25433990300275,-12.103176664338966,1.6642893535399175,4.505157756898171,6.526695926294341,1.7057271582265372,-15.190179883169336,-18.59190601092016,-4.794320238721291,0.009827195764419372,-2.5258523256035037,0.08799518404532236,-1.2552187195094522,-4.649232430743364,-1.895547500040843,-4.9885113200730835,-12.40208888182536,-7.661639393672765,-2.080602289888729,-9.137087827824518,-12.703506104756915,-5.754772059300116,-2.9672103111529076,-8.031385663044755,-13.850660019929956,-16.490446180221294,-13.903206615952076,-8.118410185346793,-0.9353893321866993,8.38782482710386,14.100112437485075,9.437030794609564,-6.567562652821686,-22.87481041371238,-19.076034378533926,-13.139187023026416,-36.79975548795481,-51.04502395564338,-35.247709789919526,-39.6899105216481,-46.68920909563171,-24.83540036539538,56.390040722972486,338.57757128506046,591.3124541551042,197.2467694014831,-538.876057545859,-563.9712469361382,-30.90828796403595,94.61839015372293,-77.4370672258527,-13.69449091754283,63.38719326201078,-13.185845216252222,-8.912683835904357,37.27903276558756,3.79912820979788,-6.031115527658752,12.619260044213593,-6.534621115025878,-13.736794634135466,-1.6293392295521105,-10.485566514566925,-16.513157387873225,-10.835978108606433,-12.543018391345239,-7.091914079324877,11.79516274171528,30.269233763880976,48.86048783106975,62.09353043170603,60.38961024195734,58.74975192548729,67.99006181633591,73.22047390664284,65.54600378449803,45.97723256671598,8.147965075085397,-39.57393061793692,-69.90919454238474,-77.04187586797069,-76.15371702791151,-70.41979272002924,-59.71766230365755,-52.25342101733893,-45.61430831377475,-31.786625346088385,-17.16945761552887,-10.656684764029482,-10.286452977515967,-11.26675331631619,-9.888080294368667,-4.361067243489451,1.5453257262170972,4.1980117572220585,5.188051359336246,5.752865344099206,4.488589909950683,3.172001592183081,6.518021799167624,10.309532136862334,2.375462153948096,-13.484600211420366,-18.376434546834194,-11.146978443348871,-5.850347201285473,-4.304305291947003,-3.6916600787982627,-5.3170307772734375,-3.9779669289518527,0.39467083671377345,-2.3586541334991864,-9.579666649169486,-10.735013453733046,-8.528011048418595,-9.902232338744689,-15.297766634443645,-19.697860854162602,-15.625550377332582,-7.979212699121128,-7.691624272807562,-6.219390837424443,3.8182826353858133,8.632805069877396,2.966477326153326,-10.292316607934184,-28.15852718235024,-30.11684429293655,-21.932206226809754,-32.6541502052656,-36.614794732221576,-24.611074848002556,-35.90060535553048,-40.40451817385366,-13.885109243569339,79.77718148168715,374.89329007386345,586.8678047455275,126.12640651967307,-581.3634903700766,-511.0728528983075,32.59666576110952,96.4107322882378,-95.8379393730517,-18.90985243897138,56.023987768630825,-20.588531591131993,-4.609379407691833,42.64482084111136,-7.864098911115505,-33.93883144009608,-9.392141701035351,-12.314427040374047,-17.347188576715784,-9.248311406733992,-17.096164696044774,-23.323960253506097,-14.49399747119173,-8.735130144708965,-3.7657540592886405,10.837795020930301,26.94810830326891,38.16185663629259,50.591462311165685,68.85750089440039,86.56510156621613,89.89549869508792,72.43276199536373,44.353275388383636,17.391208366399493,-8.296141162324622,-32.73274335548642,-51.18987450763811,-62.70330805553115,-67.53328649657779,-65.70657098272991,-60.624700694289345,-52.64252454645164,-40.123398193619494,-27.98796795312347,-21.463212838481944,-19.49513717409358,-17.083691683234598,-9.095482756416764,-0.06893572989691421,0.7697176369064884,-0.8202454998636668,2.7883120216191486,1.9525797701023464,-5.71401003775194,-6.320493544398042,-0.3402478442113406,0.8205153766042628,-0.4180173177657238,-0.21293360270957784,-2.6747739809588182,-4.727306559883667,-2.806415408463142,-3.703330223538142,-7.526845200493595,-5.919129828446032,-1.879478055914813,-2.18467963133069,-2.7196154326796407,-2.333304074497173,-4.89504593843132,-4.233122756582814,0.9445230896602812,-3.5369039239933358,-17.492944971062734,-21.479186228510954,-10.098024588746181,2.7473836327420926,4.494762018199133,-3.755350889979482,-8.07241397510903,-1.784915844730957,0.12886175268073785,-13.90599005981304,-25.767195780511365,-23.195066129512984,-34.606200770730744,-58.44613908462326,-46.15504424887007,-24.21613898037657,-38.07210484633911,-36.45884642928575,-8.507912914649324,93.09234517588993,402.5659481375442,560.2123707155768,21.364434195389506,-633.4872328635896,-460.28438887430207,55.64628202727344,60.60919158993392,-91.77543404151493,15.782334129322734,60.53680131038706,-23.79791829781753,-5.456551639972037,26.123945702735973,-8.247989600703105,-2.785588967441198,14.242516648262665,-9.536072950031652,-17.038706614033735,-7.651835621940659,-17.390099670676612,-24.28285674695671,-14.193114787998294,-3.6766358345198165,1.6225884445134324,5.260265557076616,12.566251481573733,29.62152823411499,51.36656866411506,64.82610719587804,67.9771401974275,69.08803384885117,68.2182621905453,57.13581510167981,32.498385602173435,-0.670925783203856,-31.081879319154424,-51.88533103202874,-65.71887142914353,-69.15419668245374,-58.61558788612453,-47.79113283543094,-42.985070243654135,-33.744314900193615,-26.101342802157596,-29.072796317213992,-26.110973479075096,-12.74937546206613,-9.308989237504285,-12.987424931896445,-6.255582254372886,1.7735925168115543,-0.8354660914973095,-4.589743574388976,-3.4476710091895626,-0.7697030025285976,2.870806746564382,4.1598015594942215,1.0464762173614517,-1.2867539616743304,-2.197625007951334,-2.10537208741799,3.8499018481956977,7.896099710333116,-3.7002657541626007,-19.316824835590193,-18.57818206172972,-8.88964367273973,-5.166160294947366,-0.5888916964847439,8.150407905052878,5.422276553436639,-9.62901024078807,-18.339232706633098,-16.453113454296478,-12.2201962726785,-10.643020740159194,-19.952041269653527,-34.04185014621142,-27.613946939859254,-6.348003707933854,0.21076598300380311,-5.633613398511372,-15.541792938812984,-31.80834549777272,-34.11450345040104,-23.651439461395388,-25.762898593520795,-23.85516834665037,-18.24665700411972,-31.15680902524882,-27.619642427195654,11.696488734440933,144.88619031652485,426.75187322593763,456.6877641448717,-149.69413527269268,-697.2245934832962,-405.50238578187555,101.47655769245284,74.06392224110849,-64.4118642720735,37.492996714934144,63.361380736532155,-4.455850851515955,28.45795406471665,43.63316295318665,-4.654106931536559,-2.1010925520020356,6.584799510702491,-23.330113076456968,-29.107221197720044,-18.79811002391091,-25.26453374822821,-25.580040500566096,-17.72577888849491,-12.85583764565714,-1.2983059406696449,10.729067140005577,14.82085718682098,26.68316503764641,48.65978608731757,60.14756563317289,60.242291572251915,65.96279929739127,71.4640966092286,57.67915356094385,27.389026044337633,-4.890977231617342,-30.84915182023897,-44.55847290070489,-50.38456385032366,-59.15958150695041,-60.82576146173287,-39.97973576387648,-17.883320694266907,-25.939930831726592,-46.67542606853598,-41.73233015256936,-21.368423372515025,-17.542298773939777,-21.959472490648203,-19.288299145949246,-22.407220610452423,-29.20228992008511,-21.249255273923612,-6.27262581960732,2.0323509074485777,4.0050084026039094,-4.3077480386488,-15.341662488182703,-10.548768777908426,0.07475782259102459,-0.5972414442280076,-3.27554345146428,-3.2475597324358834,-6.184478236085194,-5.1384037473843165,-0.9079444838718977,-4.470161964624705,-9.02285050128016,-6.991038490495809,-7.185090841998948,-10.828863044768326,-11.265756358128174,-11.321665188000551,-11.958938047772442,-8.652956218025146,-5.668947113720618,-5.206892585140714,1.0362383994827713,9.09670501169046,5.368798111351863,-9.417211910757231,-26.813175160053213,-34.13510029566169,-25.312134401183286,-23.493835247195015,-30.417218261643928,-19.082137682322557,-13.582536632640632,-25.996356602505294,-14.505479811784305,37.13050218537772,211.79863534322538,468.88155260407734,313.3365536207039,-369.7295939828507,-678.9550026043278,-212.84773865423318,150.4434363290116,11.263617093180123,-45.288878093098994,81.27502419636345,50.91581610489584,-14.116450750198588,32.948820925712454,36.09174110435635,-0.99814097331832,16.660653098907403,21.793671928435117,-8.399015017533985,-14.281263828498876,-12.739340953927822,-29.709247036662084,-35.71143241796971,-21.872978295641715,-11.218759395888139,-8.74330650826303,0.1788050974314066,18.821219259277,37.561432665851015,56.54939924247826,74.45588275701303,75.2809843856557,63.17756091158877,58.99111139383124,49.45558874764257,15.952025967001724,-17.549494310856662,-36.51491729853898,-59.58307257584897,-78.78775625800257,-72.51185481239408,-56.261106103261156,-47.61571954394512,-40.78866932461164,-35.46794764394109,-31.392001612600374,-21.781291191469094,-12.350816352317743,-6.591343593542334,1.297679240570428,3.660151836659889,-3.126644838935743,-3.7778857045127108,1.3664132417446702,-1.4538706304951745,-6.0175827837099085,-3.9519088201920454,-2.5751085571339054,-1.6622613697111532,3.5570213909111716,4.195650734541612,-2.3772434458396123,-4.358055952203534,-1.3863561990058315,-1.8493576908996765,-2.9453365791739703,-1.5868626198576514,-1.4887961150131002,-1.9033809899179133,-3.5468131345354017,-9.949062741514126,-14.280623889195112,-11.731558569038484,-9.314306792382332,-8.229810383522942,-7.052285028490825,-8.203858113018265,-4.121892206153461,6.160025423963003,7.859174623594871,0.7196327603583743,-9.150276242893485,-20.65265727766282,-21.313263399228354,-16.29292879701169,-22.05956612326198,-28.309727639083267,-38.770338564409755,-49.482446674698735,-31.828783681889966,-1.1584868216404942,130.18420609389193,435.4729195368424,458.60704204268404,-151.16641223448283,-629.6779488885018,-309.5613420628407,106.54612448025101,22.407876505817747,-74.25060028564593,45.14971869338542,49.49935286160175,-15.959382494557051,17.332260785638905,22.947671111366777,-13.390034399868693,2.1893049163385925,15.022076300257261,-1.9697521297460856,-7.980861603861573,-19.179089167414396,-32.84598379090162,-23.73620886113891,-13.657836011805543,-10.433485196201946,0.7491162298480867,9.045622030410549,13.411040415717247,27.31951588662836,42.95057700962645,55.51415726520661,69.35764600107044,73.10750240421784,63.870918641177816,51.549034134438855,27.39049485659155,-9.393056889665235,-35.01345110947593,-48.75610375252236,-64.65971277477725,-69.48801864665381,-56.26122170048713,-44.13984582809161,-37.231408844608495,-28.014924259592217,-23.050765449265644,-22.777500343192727,-16.88979053584805,-7.999475607715716,-3.8409817638546997,-1.8485087534005658,-0.4697489004945581,-2.5596220097085727,-3.3938899220507217,2.007542918833435,6.507076399638014,5.810377725055668,6.389783119309541,6.956163602760001,2.346778403609415,-1.7235016668112255,-5.498481767790414,-15.238599497084333,-20.389606148929754,-13.801249645802795,-9.895220599596513,-12.099933874539618,-8.965164978054169,-4.077476439558378,-4.396838660732726,-4.071873655120838,-2.670798816787059,-5.238936236573119,-7.725392044988707,-6.513160174366102,-4.296367658436444,0.5329109413751958,8.587779687698536,9.737510228279339,2.236876978336331,-1.4717294908191025,-7.538380757573547,-22.749688618073606,-22.569336296837136,-17.35273371094309,-42.45766504285961,-57.3896501634114,-38.97061515501226,-39.77868263771587,-44.554938987134584,-21.515390924577176,