ECG,-9.05998472874592,-15.198278029988742,-17.298939731306902,-20.07720500106754,-21.901177249844586,-23.184616695269405,-28.44958325239118,-25.733842478919104,-5.978230418444264,17.81141723941603,37.53257166303908,54.42610416518637,64.35700339782318,69.39976221625334,73.02130500661124,63.764166796095786,35.61294942248432,3.882672129324479,-17.661001532074927,-33.038685261983574,-47.440914080979056,-54.091927184895226,-52.138620420104395,-53.5417673280473,-56.55139942196187,-48.084548065507384,-34.0272341319469,-26.901747852000142,-22.939640562281767,-17.178633010898622,-11.289717808622655,-4.988077047326158,0.28143761757626606,2.4085978512423694,3.3182152956726334,4.287095167177146,6.310628695028409,8.455332828957932,5.631103364149563,-0.33716078735688626,-4.438663312245545,-10.146172785076754,-15.402004941453235,-12.800148963344537,-9.256907110412183,-11.20489371958653,-12.367738928186427,-14.942978943907178,-23.031687782997366,-25.353095308661565,-19.19675239773251,-17.96116859621275,-22.105988218883784,-21.79996859848383,-18.80416403227791,-17.766434990114323,-18.213411601546497,-23.338962739559168,-31.33700382399099,-27.968773822830805,-6.879907143951922,20.292627232108458,37.75606315435232,36.79162561456012,21.934058514696712,5.087858887936376,-9.504700827938086,-22.495550090359067,-34.002031092680156,-44.46304559287482,-49.79769289870718,-54.05875473410372,-68.11599291656148,-80.52492940631086,-80.20892890142518,-66.85862271385932,1.6126952510379837,159.72545522891141,338.7984449224053,401.3231915520725,229.27860779537542,-117.42937271937977,-325.87169000551154,-221.44768192284883,-60.27797464430674,-60.99128260738274,-84.94238547699965,-40.90971169462935,-26.3841654425365,-36.907286783393985,-14.775120089593791,-0.7738673500852968,-10.087462562839988,-8.794366213905882,-6.997992626159277,-13.31734594839449,-10.613695607897395,-7.1701706204548685,-15.752427330566668,-25.76551018044856,-29.464873357106825,-29.903574747396036,-28.29709698456127,-24.085674055232467,-19.35476173771358,-15.35854156739327,-5.780810307334978,14.614760212766488,37.652938638356055,53.72571778869821,64.06735768466379,69.26543521583108,63.51072830232114,48.4961603768054,35.29303824180809,23.94842183765973,2.1533031188841916,-26.8514821380295,-45.15692040355474,-50.33695024476549,-50.7550495570921,-47.378998932921505,-43.3568702310864,-41.37773570023626,-33.566623354925326,-19.111990483332495,-7.440048877706182,-1.7086423867698102,-2.9222072950925693,-9.332248278284098,-11.17045096624864,-7.490045420315521,-4.308909810391562,-0.20615025185387026,1.6188872384808235,-1.2067555782194042,1.0969022561432382,2.9300629931283524,-9.625143095805004,-21.4663827487223,-18.272901178555205,-14.712832931687288,-16.47651926211765,-14.487385474095845,-13.58120604238712,-19.344365113318077,-23.872245105620067,-21.85966683527627,-16.31180034235841,-10.649871238243733,-5.950141016800885,-4.3716316549002485,-7.55631365975999,-8.99202162482414,-3.771757647812837,2.3276733570864128,6.910277399049644,5.41602108502617,-13.446022494071407,-34.280471405012236,-30.87658993392703,-18.01073252386667,-18.616368906003345,-23.426537455162126,-25.991329735449085,-28.470120725642506,-17.914832269169324,8.717055954486227,30.952685736220698,33.57178850684313,20.866841256590096,7.0441633954614895,-2.710379237975383,-15.950253589919408,-31.629617672911355,-41.543049982219095,-50.360702010361486,-63.779639566523265,-71.25526259182354,-65.38364516876926,-62.703393180820086,-65.05236175412938,-16.74529319660737,124.8603741177903,300.0178575607839,377.5711980469279,237.8372141626346,-82.19010364805173,-300.1850528121721,-218.56248287497,-47.87874669446928,-29.809950085868323,-61.96184098147823,-28.680895097361663,-12.416269659956143,-26.773981479307995,-7.88092114712186,11.067107259212056,1.4979291246381976,0.5195523518685512,6.176659890418957,1.3965332857693866,2.7405474828084557,6.068174816270451,-7.679192006664529,-26.949692802488112,-35.10754632860157,-36.25897673047548,-39.06585465830113,-43.98954492274906,-44.17713638087494,-35.35643957550939,-22.089738173461754,-5.697321527455308,18.45871448464034,44.04621131264941,58.131297383485055,62.49893993526591,66.67107778624231,70.06841528565903,67.02844624148153,53.28375041625735,28.463773211809983,2.5658745197844013,-17.640237363712608,-35.56292962779048,-41.924743327006766,-33.764384166750865,-43.284384662926435,-76.36064749864244,-85.54253972792579,-60.968701918339974,-42.501709867837626,-36.12027009697867,-26.176500010239867,-19.76537722326821,-16.172730878041087,-5.891737726944907,1.928305511698749,2.7193216692986333,3.724640346404641,1.1505337704487033,-6.312949883933808,-7.634209797167578,-2.8468931537758557,-3.133390535919215,-8.452218597888887,-9.993333440843966,-7.4893287051055495,-6.496830495477777,-6.989864570204048,-7.538545966056482,-8.767069502996568,-9.237036058556939,-9.895804829986648,-11.951153002071106,-9.894867028201833,-4.0672197602677365,-3.657767568800029,-8.319724805044245,-9.827886838299769,-7.215640192360986,-6.501744452224534,-11.082224667770234,-15.340541749949551,-15.448647347966336,-16.415265157362462,-11.779265801656596,9.003987425024398,28.761829568724274,29.314379706069293,22.291305044109002,13.92310083353421,-4.7949668620974375,-26.350495305041107,-41.09840887535915,-54.10354722305627,-61.45402746910424,-59.37023685032962,-60.92842776614847,-64.8615867940677,-62.45457509801432,-63.248315011273974,-35.48364010096039,93.25329613501196,297.70905818175856,420.3021382077843,304.28270184019794,-36.44619981570616,-326.24829518080355,-293.252771997334,-78.19851260507346,-5.146299439698218,-51.28462311775745,-28.621148958440273,16.83912197312463,5.479480917914653,3.3287351998511667,16.323598319286724,-6.348903676191249,-25.2973350208093,-12.342484722093442,-10.988507833252509,-25.81507984180818,-29.730042453886824,-30.442109954923797,-34.478114152541096,-31.88986200485501,-27.914660805770364,-29.33731869247386,-31.439869618334185,-31.013835991341328,-22.25752849232983,-2.3381996598196073,16.66049611314012,28.77704839822868,41.99590235458871,56.023319118669605,63.80557170820976,64.62220871900509,59.792238656139894,50.08961140855537,35.21916299611774,13.602907481908973,-10.441602894190675,-29.88361796766747,-43.96576018336229,-53.872135279283725,-58.48835148316989,-55.72411352819813,-44.97433411200751,-32.62782534953548,-24.406781698881126,-15.647246386957544,-7.559465996061139,-11.053695193086547,-21.02657854613311,-22.447585428638636,-18.057549814343158,-15.694940367648343,-11.414428168440853,-5.0396367734306615,-1.649924199696489,0.7915932862686859,2.241219243202469,-1.84938273125762,-7.14621332288656,-7.016713604321783,-3.845895787960817,-2.1624197272946546,-4.498952368778124,-10.943386212088626,-15.591320885712364,-14.188605912392216,-10.814925665139153,-10.026051981545047,-12.666559393171731,-17.54409693999653,-21.897421729440513,-25.03921977184627,-25.454555514164035,-15.7423583133399,5.65794234324642,26.432378729807276,34.79269112981995,31.747317639087505,24.55037148592851,12.81866131279492,-10.40205075069931,-38.80394248687692,-52.91563518875469,-50.00899660525728,-46.855733825143176,-48.292563281648675,-51.35137147016347,-71.03672711564424,-96.1693367725108,-49.17420083220632,112.36493464673613,304.23973254736325,387.8145343136093,254.1480185497495,-74.2613358698097,-327.0281130674007,-260.0139051948495,-55.86652933770473,-15.756930672855766,-66.72164960588583,-38.118289447992325,-0.4189544081709897,-11.047641874353388,-3.3459904908420715,13.464302823124843,1.3436102190981565,-7.550628960970467,-3.4493757655472095,-4.6871893153694195,-5.269437519075691,-7.879338689817409,-16.943617574007874,-22.454731566971326,-31.37114538539607,-44.76187040433288,-43.73172642002752,-35.8023737190115,-36.38826318598926,-28.721356468706087,-3.7097999336639305,20.54209598876357,35.72156942614843,46.37473225446414,52.646564135298334,55.64279503504685,59.113894485558305,61.27184762753281,53.41656161364757,29.60429412785826,-1.1489592135834776,-23.893181129655936,-37.0050486588984,-46.774428160120216,-54.33587703694843,-58.42336090767293,-57.75165384611111,-50.45654186790668,-37.80279545144207,-25.207128108131947,-19.283107701885175,-20.281624913919963,-18.76735499437386,-9.149447264148364,1.9499716983715167,5.634827601738465,-1.151486961068663,-11.564065550248728,-13.709861528881598,-7.652198993160315,-1.7660840237582391,2.2367381116427936,2.76461479289161,-1.4118387388829738,-3.622946022346351,-0.5884631686379826,6.228943918108838,11.936565878066487,1.1563504545464411,-23.05780894083574,-30.077015123433153,-16.210830851971465,-6.7335621432245745,-9.087740890695866,-22.088944679166296,-41.79399560148124,-47.902397164678305,-39.23765105522541,-34.76079000315486,-25.414149642105304,1.9267478571133303,27.757284923825857,36.91222918973959,37.113674284783706,32.190425723147385,19.172064081281146,0.6646939564214023,-19.482438662088118,-41.94124723434308,-63.47331986875544,-75.8997082018162,-80.13865444368423,-80.9242678351294,-80.48679393912714,-82.38354974434945,-56.94818836833238,50.05304103060937,222.59764615581136,359.17863711047767,333.8645989225385,83.64043635216407,-220.13022705306022,-275.3631607110078,-106.32968788778632,-20.182899967901143,-62.90713002013811,-55.78623890416331,-8.811059599167486,-12.193139341664256,-22.029933949193747,-9.344308816791262,-9.601256958976677,-12.305871562674874,-3.0763446769287714,-3.002884770891683,-9.659867147765041,-9.429307645153337,-10.601424184251027,-13.894366731836444,-13.06582842740011,-18.816913182510397,-32.227199323365724,-34.01238740411191,-25.04854838575725,-21.62119914745847,-17.081520282811372,-3.3903516475309328,8.546635588651284,19.814674981684337,37.70958692422703,50.63965073484374,53.54894415230216,55.834115482371175,53.78036906161678,39.05098483980563,17.207785519653584,-2.9713884025249673,-19.322907170313847,-33.69685788671533,-43.53050020466542,-43.7439054185991,-39.80332549314003,-34.89938016342255,-23.85541434566071,-21.11121466590719,-37.42866876171082,-42.840328722226005,-23.406002827227425,-9.16884822787905,-6.778121004199939,0.9301842844027419,6.3509668575140985,2.845903269110174,-0.3261331009172679,-7.3045117414174285,-19.998657002583762,-23.948796300560176,-17.78508701751594,-13.78253838989096,-14.320812627165846,-13.797166286564767,-10.324614054449121,-8.536289072432563,-10.918154945891317,-11.288092008119342,-8.439468147795438,-9.239405727513692,-11.803386369653605,-11.20731625561507,-12.152950919561942,-16.601344388424415,-19.690223363255306,-21.985627177985048,-25.77520387765821,-24.47036339060414,-8.849709441947823,17.708514815881372,38.08270807549488,40.88408753587781,31.40867003716417,17.279262525587583,0.3936992033226465,-15.480595106087161,-28.753658211450027,-43.92532320745546,-59.27284414360374,-67.75764041233076,-68.4803437171577,-64.69680206924465,-65.02214321720723,-67.93296074471792,-27.883108129606484,102.60185240948937,284.1767773196704,385.1253209516472,264.0313544171954,-57.07801282597374,-295.910264591642,-233.0400394015091,-55.26626602470145,-23.559852569521944,-62.02578428808886,-33.82203363708467,-7.613795201677725,-22.408592326417327,-12.745849143408146,11.7324764953923,8.567796426775194,-2.8858707193111304,-5.729679407497628,-4.962425835345055,0.77231285206976,5.161055376447473,3.510781684046755,-1.9975128723228686,-19.887848609734423,-44.526659703104635,-48.202877303865165,-30.67590076687977,-22.666905074152506,-31.41441499001858,-31.428065028012043,-10.049967480380214,15.618261374735825,30.88755150553436,39.44153505043495,44.97842450265447,47.89050375667801,52.02636763534787,52.71256435836708,38.69588968059436,12.735013199129819,-13.302623044652234,-34.579320426702544,-48.283757675235634,-50.754271217917534,-46.62792749871333,-45.35282945944812,-47.98827729238691,-46.17636859139361,-34.9958591519731,-21.09879078380012,-12.273107682406831,-7.25475665114692,-3.688187156536454,-1.7603305282905417,2.26016360367964,7.892152979075291,5.453582421742169,-4.870702391889161,-9.867405752887759,-7.213945188848751,-5.873971683671359,-5.369099749917265,-1.902209698944679,-2.264696211969337,-9.038910913512648,-12.637805583664477,-9.520547792843532,-5.264786576075396,-4.10865904257698,-9.768245732025683,-18.910557287996554,-19.113360542106605,-10.602025106930014,-6.831073593973514,-12.890493570219121,-25.360320758396817,-33.240090239483614,-19.51426122954316,12.011873883548567,36.15175713756551,40.54407372397077,29.705118747721826,10.986556080927095,-6.807297752322994,-19.979950020952955,-30.90176570998969,-38.176396674969155,-40.80202159850229,-46.21570747818479,-57.87559053978636,-62.075830215014754,-53.175718206715715,-46.33147944646175,-15.843290467659827,105.67419007956948,298.69820580351,411.4245536027498,282.53103971102337,-70.13252314490882,-354.3051054937856,-304.35253860999956,-88.40209594361886,-25.86038125364675,-68.93428991097741,-40.6133844131937,-4.204355109530596,-23.094918223373185,-20.901206506547044,3.9229978038119135,2.672289172357459,-2.308315509002764,-0.6390638849737194,-8.785550491826136,-10.608110299072553,-2.530917653796106,-4.457146746819166,-12.610838022140912,-16.986391550732083,-20.239383610478047,-20.792658514886085,-19.759212572485083,-24.1935070566961,-29.944655474776322,-26.524280500952763,-10.862636052273954,14.470652004238927,41.950357316032935,59.90056707420371,64.11442840233852,62.18419788639953,60.524349521415004,56.21356991106788,45.17464252432411,27.48507662490858,3.7152962809736687,-22.399770625085058,-41.9635850938378,-50.748537641668946,-53.12562390198997,-54.12050597869733,-54.70438519480429,-52.26914406944651,-45.05097540908531,-35.93102705967198,-26.275488121001505,-15.146834414237276,-7.699673497892647,-6.963630548535306,-5.501946938750386,-0.10380372279296779,5.696970254803652,12.239423171057851,14.149215816074191,4.034958860169944,-5.520585500238237,-1.516240512853054,4.889622425635428,4.5098812815567975,0.13220014923543033,-13.213354991001545,-30.809933416108603,-31.456745169766876,-17.64411467498708,-12.014961249435583,-17.464201577086996,-25.12047324363371,-28.57566188602408,-14.378030592182418,16.404760006308795,33.777711315680776,22.881929924394605,5.464251196157603,-2.4287296508246143,-11.081076277143545,-27.811395083733082,-44.402251219873335,-53.6635083569392,-56.45868628305955,-59.22765503047545,-63.70090033831106,-60.35618426340396,-55.58650500880403,-59.582901085519694,-20.383915806054958,120.10189184787916,305.2439939865163,399.7425295159844,281.62045334352086,-49.08545588221719,-328.85468929384103,-281.7830843707984,-69.32153733552957,-16.898771601553236,-68.49279960203616,-40.93016097316061,-3.651401555654367,-20.783107673042913,-14.90044849764783,8.905147557295894,0.5392767495837596,-7.883253316781829,-1.4667646208293306,-5.0383402184898465,-9.899031893327535,-9.616211672523054,-16.518970474270454,-23.53226453086807,-25.416458301586687,-29.14450554159252,-29.786034753668893,-26.175490349311865,-25.704977485996544,-21.10559412910531,-5.543221064469043,13.022142993591348,31.711862914631293,51.4427801890982,65.33206434492716,70.79162101286421,73.39299908130238,75.53542811339344,71.1538231589703,51.44943626090674,19.33618176277699,-14.339685718207443,-46.30426378415572,-69.41162342161064,-73.07142723014505,-67.15881537586303,-63.32056107636636,-54.02706079303226,-39.05309900387611,-27.565495437782467,-18.369897119042445,-9.244709938017934,0.7891413375902481,12.37272370236617,17.646632264594224,16.141566902934105,11.314161736126032,-6.911110382683191,-29.028670372015437,-28.02830043395666,-14.271293335466051,-11.253752222996049,-11.77009159901445,-9.039089154458978,-7.533806601970614,-6.588271920943555,-11.938168539888053,-24.186191020585646,-28.53121606401003,-24.117633602936905,-21.380650521906105,-19.486358677697403,-17.389659502881447,-18.833031800572666,-24.322297541780415,-30.583929034731067,-27.510745304415444,-8.730383343094859,15.729677029573288,32.04886153679756,33.208301538167575,21.636791721113443,8.135788115515268,-5.684376255398753,-25.477723023232315,-44.10200789919056,-52.45927549365878,-54.79759178551922,-60.02168870316856,-67.28684535804268,-66.97381702884532,-67.84980087322603,-74.18583038319026,-26.523015363342473,122.74515477256008,308.89288177080846,407.74238474365745,292.5298692868536,-42.10249311016963,-307.3510143271872,-241.17891782141464,-52.5025915121176,-34.45042508508694,-78.743337170725,-37.775882092201535,-6.605082241608166,-17.98031854665752,-5.9788960291911195,-2.020547661729651,-26.33876304963001,-27.71253078492908,-13.498074803382696,-14.950390531901359,-15.092076332749453,-12.104575182591297,-22.148340548664397,-31.519176718911087,-29.43697106103201,-26.722846529381282,-24.763650424527285,-21.682709563255614,-22.10516938561826,-17.735516117056758,-0.07678587375629042,23.087741983615587,48.253807702625636,69.07453877984784,68.1944513133152,57.50110895041314,62.40078682884614,68.36823819348287,57.23465737017014,36.140799451492256,-0.32561782629177216,-47.51659820966399,-69.74405710636303,-64.67796314686218,-63.43099611671845,-66.90917332160853,-62.44158974751619,-54.714121737647744,-43.9012811142494,-27.426330551016022,-15.312787308415743,-13.267857300797871,-12.842251461885994,-5.675318101647079,5.24315578216366,10.901619355786078,8.924397893589049,2.2300621779262464,-7.066587462233269,-13.04920813393543,-10.627142352193935,-4.843765432468821,-3.1589845346407053,-6.989034971757434,-12.485180433071715,-14.333803910903772,-11.881115054262747,-7.482431194613159,-4.893976881400125,-11.712945187175336,-23.609765946097674,-22.804336021175178,-11.488023691389131,-7.894076597792608,-11.263083366656254,-13.4617847213107,-16.592807927664285,-17.198195336642797,-11.351875830738596,-8.159025284365953,-13.808602488607281,-21.60689720865353,-18.31734691773728,4.393199885977771,30.922724844489874,35.196479391111424,19.393483248055407,1.9648105764857853,-15.598303000484233,-34.48624104410675,-45.03521818147516,-45.936082422302164,-48.59168529805876,-59.7482101528567,-68.88275468153768,-64.09303828263948,-59.30193143903703,-56.18256436483638,-0.6649852702234753,140.72393827281633,306.78488679233413,373.84591106550454,222.7518126751796,-98.23602287466576,-297.2272604977708,-206.03538815105514,-52.380135386452594,-44.771984760713764,-66.05956585836987,-22.705457281944348,-4.680287447780486,-21.870192912128623,-10.03539796083519,7.25356165576796,6.573978002515146,11.231256414852902,3.94073218088527,-26.972412722045124,-40.325129056485736,-28.17542377332095,-23.27342042320023,-27.8934512674989,-30.82517785509635,-36.50205101567707,-40.03401667303079,-32.92283042002804,-21.900835366997597,-12.404245471557743,-2.888918512956166,7.475978001627831,23.14021615517725,44.58015972201991,60.76638876417533,66.23126171846567,67.11219768062567,64.14644393295454,51.31713928265354,30.7500741465932,10.556969786336769,-8.862952601543407,-30.300763423930917,-47.03024284801054,-50.52234868430771,-43.89890047119808,-35.08465755515909,-27.535675181140242,-26.23247424017389,-34.17235137762161,-37.76734725822431,-24.0209886623139,-7.974536425347615,-6.591897227040789,-9.34789268359335,-8.659132517159591,-12.287272532046643,-13.158253893004648,-4.283861760305083,-1.2290604485962007,-7.790701308255812,-8.990638955475333,-5.2839035165675625,-4.465796841334743,-3.664812761237407,-2.592355892009561,-4.955563729968926,-10.971597087237104,-17.837849699435917,-18.347571623451643,-12.828010879491835,-12.756765341315674,-17.190371430872688,-16.44168763740194,-13.386709935019542,-11.110107300994514,-7.215646395833865,-6.431522684223921,-9.989040714371459,-10.548726661486379,-7.238359737034468,-5.431965070333376,-8.12171383624046,-11.664715927007343,-11.152002206204575,-12.965789554966427,-16.40666559651103,-2.2496285993963525,22.66838621767141,26.58024230234573,13.50122911298487,7.394920527555799,3.589967906781867,-8.408983598739898,-25.038030347542502,-42.74486843725397,-53.458193548660006,-51.16940718629297,-50.396997260182495,-61.81092782788298,-70.4985370425241,-70.62346618812278,-68.88265635915758,-24.61688933180715,120.07172759664556,318.3510683110974,411.1476446564989,258.52047134686813,-87.5040315081712,-327.85205773784236,-246.54491014967635,-50.00041554285873,-17.09007775210131,-58.94686237441687,-28.18248843526527,-9.771853736615881,-36.40092344815208,-24.95062642019031,-2.1681510350148727,-13.368485985549402,-14.25810634257913,-1.013443435411915,-4.651779996579663,-10.626645106191027,-12.20377817902952,-17.044444127836282,-15.283347665788344,-13.977172791975134,-22.235955081015153,-23.592904650579623,-17.80040419576498,-18.51529677276789,-18.4897988384869,-11.565380536566964,-3.048273379619742,8.927554813922589,25.76193537277755,42.95230906933594,57.08302094300226,64.50716932350797,64.47108732908045,57.337907007739034,41.34619190229455,22.358660162685197,5.001759917696495,-17.09849085507134,-38.705695314152614,-46.19240691526823,-46.08344211764889,-48.289603631398826,-46.413513453479176,-40.24504774004873,-38.39440719779833,-36.16591437320608,-24.378783406067257,-8.68386199757511,1.4093475012065149,6.982514826638337,6.85505663318413,-7.061321986492857,-23.728543280035982,-18.651118991621704,0.748981816711165,3.666840306394011,-11.491145604711065,-21.246117114880946,-18.293285333714117,-13.173892125989873,-11.494173929688923,-10.212202920836724,-8.77260782794443,-9.943121605078034,-11.08621481468995,-7.80102790072721,-3.2286703224249678,-3.973144653492625,-10.043150712576328,-11.972705812846161,-6.602098102876862,-11.31241442595362,-33.010807067183606,-43.23869516552489,-23.849656808706136,4.237838733875943,22.15392999148991,30.10032800919256,25.576567502194557,7.262077437076105,-14.714874343001888,-31.36036978582609,-42.56922870600282,-47.92104173393976,-48.24307228624648,-54.822286732776206,-66.82256721369721,-68.55593029729742,-71.9250913291961,-69.92350143606905,17.47609326328228,209.70768198249488,382.44258190061885,388.9346912599232,156.25669394902454,-196.4608346211663,-341.70364218553016,-178.62985614574592,-26.86513841372181,-56.559443549616816,-73.17975587446335,-13.939333659124173,-3.2256536065400283,-21.53445596094562,-6.537326016935905,-0.25619908455195883,-8.520511909292201,0.4871046147281728,5.37951733832136,-7.014517247774048,-15.746880941000818,-17.264892496937993,-17.165994241823622,-14.278843676156509,-13.442672025550216,-18.43569565466033,-22.52965741429127,-18.11204205869658,-5.806626770077166,7.2044604948152315,12.210887872306447,6.208569614125338,2.2709316752412914,16.959303657642117,41.77429355766308,56.71182258598922,60.92247077029708,58.59023081287877,45.75670863085884,26.52350250614598,8.439711660091234,-8.94284794649787,-24.706064043266895,-36.65944988502916,-44.04658774239087,-43.02422428372691,-38.81576441524112,-44.74147954347586,-56.068407549545235,-57.01227308287094,-47.990934483225544,-37.142701244425545,-25.401563431593424,-14.580287358369553,-9.029668673891898,-7.73216299660249,-6.004322595193017,-0.8253807461369753,7.374285682718046,14.288665741115006,14.094505661623009,4.865218273611646,-7.589353528976972,-13.960978568193532,-11.517996924619112,-6.855847186705265,-7.32866278809508,-12.680136296588515,-17.22702838823555,-17.581123640091715,-14.000178342208859,-10.032451403933635,-12.84957562648972,-21.252414515718417,-23.170956133030607,-19.77166503983613,-23.47435290742811,-28.000485958723424,-19.34378607737804,-0.6073017057779193,19.817576368989027,34.79278067276114,35.84659236456503,24.263975011360138,5.007465321705135,-19.872581482887256,-40.71751079402459,-50.17589258108242,-51.4562908643889,-51.21122332088955,-59.19638148912255,-69.03902309322305,-66.4694117460257,-65.64820053508373,-49.478533796635865,54.52514699533643,238.5620658484785,381.4605240991436,350.9197643551948,88.17478955620459,-235.16868712684948,-299.086217480409,-115.9275180218592,-17.54155983673872,-62.83387610247931,-53.10463896601429,2.2869392071886026,-6.221256066449527,-29.622051602221486,-20.426051611055648,-13.157311446906554,-8.6285123711788,-1.9298222896616686,-13.297229099164973,-27.903089565747543,-25.159407132596623,-20.93949009766308,-22.657292513719756,-20.94197933957931,-23.660902790996687,-36.44245286776727,-42.72266662329811,-35.49584322354909,-26.276302119318782,-15.50687296905011,3.7577627244035248,22.62018323443717,32.161791690620745,42.55287746160842,60.37766096915671,72.78550060174767,72.29176492174662,66.44022965687626,54.05516940030388,28.28255101003348,-1.3953842181122322,-24.4093729726433,-44.599114862401144,-61.02317982443514,-65.90005143184672,-61.423429008310826,-54.09820726724613,-46.53631040885914,-39.79890471907896,-32.52560503907883,-25.22116896005644,-20.142078833097894,-14.270574001868816,-7.704064908001133,-5.276237090336277,-4.08531707334166,-1.216041415954404,0.7452541609505943,3.6793499067439956,6.018200864420427,3.2162792961822806,2.6252295016397227,5.53248853018243,-0.9081587349449762,-13.392487030278154,-17.598004713504885,-16.15623746539673,-16.22396928715679,-15.783090858098614,-14.028742590557837,-12.50382621013307,-11.283764998242685,-10.707811634280729,-10.87352160245294,-11.312459187320492,-10.979871822715715,-10.327133797840194,-11.46402988218134,-12.689909379876806,-14.223546919711488,-19.16504813934388,-16.830392742051355,3.063497613534574,25.14348518335457,33.46449256331326,32.525825655688436,28.137005274620606,19.374627587923896,-0.3331915609652363,-35.15175113131004,-64.97512779487329,-68.46280120643048,-62.195928748929504,-67.7278905885122,-72.64487724056514,-66.5167868782061,-69.50229392269526,-77.03302878956225,-25.239574857824458,120.13673590354891,295.3462109568308,386.59289078919403,274.1361373434164,-41.64678851731703,-290.02383025466986,-232.00069627824598,-57.721174590965475,-37.51270905027662,-76.57502168349063,-37.11550357764233,-8.604424734294298,-25.8546520611413,-16.516194343502637,0.6060855461840795,-6.400691112571401,-4.022511367710555,5.191536105235873,-2.6402760804338747,-13.422253899850109,-17.7658580651472,-20.40281644529779,-19.504618860561834,-20.45040345530775,-27.117998578523977,-30.780812531969666,-27.284299638883617,-19.806039437204223,-12.912669363028996,-8.762049896177427,0.7994725467721316,21.108831331318846,41.563603162478856,53.66141076878574,59.983755227670414,61.880221088432414,57.20099070006219,44.06146317665517,24.61340270946874,6.629828346484643,-8.89427375284997,-28.566824446287143,-47.285510228433736,-54.135741574946564,-52.3688207124119,-48.112697036656414,-39.38057243665173,-28.980742640796876,-22.530659692385704,-18.99790889715762,-19.538407902207062,-24.577544291735006,-24.559638022222458,-17.587005595279134,-14.079203533177417,-12.711541075728952,-5.268005181245535,2.8936719417305135,5.7457132976355805,6.69524758691268,5.47361484548583,0.43678047249281704,-2.5710655086156677,1.5580054153600393,8.465689915886486,4.666799819066586,-16.286554588318044,-35.01357503987078,-31.098863047417815,-17.59675481532726,-14.942479065396359,-18.371055751301473,-17.9488745400908,-15.480954844037019,-13.007882499661878,-9.536950953117977,-6.325203763232835,-6.895120049482468,-11.790493906627773,-15.228910730625573,-13.603700416474325,-10.11676278000757,-9.206416909114235,-16.10936935231488,-27.722902945768297,-26.437341624126127,-5.039141527386167,22.993993144351098,42.76994275979091,43.656212538064665,28.078430546887972,13.76476284877261,1.0765486344559765,-22.916056528979276,-47.95465221372065,-59.296444038449565,-62.74747490191851,-66.63398561766499,-69.22812681603085,-64.69019114990013,-61.31128341544017,-64.60341948597284,-22.681151430506418,116.51562917228154,295.0598018770696,380.65437612304095,256.88154793374673,-55.68776643375249,-289.22660437922383,-221.96907906953913,-44.40567411171222,-18.285959097852967,-56.41754305996854,-26.42708200758819,-0.10496228577059696,-11.31274516515624,-12.253347690604699,-13.700994806696205,-21.8913239758785,-17.033797125269203,-15.284101191992683,-20.334354495836692,-14.388228253895246,-8.375229439141563,-14.225441375843928,-24.55482682176804,-32.06957350025259,-29.616855982896897,-20.31776521004141,-16.918407737173883,-18.889565845900144,-19.446258591738825,-14.013490727953393,2.9703446651407037,23.535506807799383,34.77488250003534,42.329541558553515,53.623850614002805,62.69394081652449,67.29483256105331,70.6596661172293,63.144522688616675,28.866080023676552,-21.732261394978984,-54.89621163166983,-61.06211766766406,-60.07218761058503,-60.357962733220106,-57.89339244847785,-54.57381127843663,-48.48704029252866,-35.59184602216781,-21.440098468520365,-11.396065253443663,-5.755996994230298,-4.818937298976955,-5.898614120879362,-5.607163765704474,-4.408197884828791,-3.642991679523231,-5.048567807991827,-7.594670564547684,-5.571425019537562,-0.28433871830355884,-0.15968512356332099,-4.217958936111721,-5.276370900947949,-4.732108440727988,-6.900507393947944,-9.048847722889057,-7.518933837775094,-4.471665433818973,-3.935013261463446,-6.895298174108561,-10.76697836723087,-10.191151402418956,-3.199236378217673,2.2143062880159903,-0.47103218928436874,-4.654534684309857,-7.488869248724278,-18.728430383445122,-35.55125863650742,-37.39658189387688,-16.72398884698117,10.511064678932758,27.210066756272628,31.190477950751678,25.757162762243965,7.825861485075338,-20.331398005433236,-43.6727519415188,-53.32883996244297,-54.4590565405963,-56.58542203655004,-62.60875154308486,-61.17533453022571,-54.56900558887697,-60.30346709226033,-34.598088729014606,97.37840262121173,295.98304167120085,413.6077113750485,313.6648271251546,-10.407884111476562,-309.9245383094312,-299.42848991528973,-99.14338205548702,-31.653457080764284,-76.66991862882577,-50.21491797645037,-2.7075429782210563,-13.882518586099572,-14.43087275365257,9.994378024292082,6.921884556157856,-2.900056391743929,6.189510633876761,8.273767749967124,-0.40378626519677496,-7.063590231305081,-21.76407724521265,-39.055569086180405,-37.97309520484134,-29.566457301809386,-32.00744787128065,-35.24964889014394,-32.380138640295264,-28.048444102994804,-16.5230692305172,3.1625755573191237,23.84184031960629,46.65703705210598,65.30589208969207,68.69878451640278,66.26744949431833,66.62877739885332,58.54303360762138,37.51694117665332,13.427457880824797,-7.578098479070308,-25.94240464701327,-42.03731008619435,-51.428926640751094,-49.696385709506515,-42.347392807011715,-38.63695641191087,-41.67012995300948,-47.25237883556788,-44.120693240647526,-28.89920425994287,-15.744076844427113,-12.723411399079382,-13.015454935905375,-13.185077975874549,-11.399530319445915,-5.376362258012218,-1.5646970631708115,-1.5221600514885338,1.526699035765601,3.442749054646441,-0.2791784230906664,-1.3646010365495727,0.9643184957207751,-2.1780720812738537,-9.516295788112782,-13.105036126797582,-10.702028198970854,-5.695280997812802,-4.231548972895666,-8.988148954443101,-13.222311705592963,-10.409651507202796,-7.886613390153077,-14.120599199826241,-18.819271526611384,-11.968164023667075,-4.319932182864166,-1.2627342610171421,8.056470859263689,19.199273792767414,13.772722325653117,-6.99227025802168,-26.068196856483613,-39.129273557145495,-51.953397188656766,-61.887216558612,-66.91967967075007,-71.19463951425621,-71.19208541156874,-70.27837477336399,-63.499206753464705,13.810774445681439,201.41000974807008,390.4115139250604,404.2309198344609,164.0456617386475,-196.35352107047018,-363.10318066275676,-214.71565987908707,-33.507028842472124,-34.51273908406591,-65.1435133272372,-18.28371456444144,2.5851666093954293,-13.152808243643467,-0.39268468565415127,10.215018805803258,-0.013286311194288913,4.3963106972478485,13.97753181568082,9.506727356792775,4.183712032767673,-5.097170488390823,-24.993978433678578,-35.036079692894454,-29.857722007532956,-33.32076140125436,-48.9701524029826,-52.883546205504565,-39.843078153009365,-25.756394512409056,-11.680849827243232,9.613739246795063,31.879581285914913,49.29341783562253,64.90425152133584,78.65517311923382,85.19980458390386,77.58175886445956,54.66070161876927,26.42224360293857,0.39795059188637527,-23.52659976250265,-42.539496772895475,-56.1366419948756,-66.7842699905422,-68.19641227769972,-57.808196273029736,-45.99304200198449,-37.34439757241743,-28.962609773061054,-22.774145342148394,-19.01494797879799,-11.097335511040207,5.355844087289341,21.123671064080124,16.57326687495019,-7.94765561343273,-24.675586040051485,-21.086120473167735,-12.191582770886857,-8.205392210123016,-9.490317713580513,-14.000925114771345,-13.468885499361065,-7.106021805454077,-4.138065542777422,-4.76667464324246,-6.407027380150662,-11.349170033609042,-14.02336221470262,-10.450970230164378,-9.26195206902078,-13.578816844808578,-19.023612390549523,-26.568559580744996,-32.91872687795038,-29.018046861008568,-15.491497411869933,2.4102657561812375,21.248187503935334,31.846600820259802,29.745674696159647,22.49456692857035,11.472915055607643,-7.116233884719068,-27.28206172180356,-42.875997893484005,-56.07163538503364,-68.83500822567765,-77.11012694175973,-80.50167992624077,-91.34218904915379,-89.90688106712324,-2.91383612524006,182.97933831507834,360.9349174638485,399.8441809081343,210.1786702974151,-138.79684731232777,-335.2625029836948,-207.93014586308516,-31.269120344366442,-39.08340807207915,-76.14124828999535,-30.78566922669551,-10.921282572489787,-24.8653940643755,-6.424212041708474,6.052800663075423,-9.64802366519326,-11.909849306843935,-2.9877561241601907,-3.0058958027751963,-4.159693621735215,-6.187330869166349,-12.567585081871478,-17.565830542970446,-22.972514990777896,-29.448384750927055,-30.168076157198207,-27.793335430770256,-29.861821727508598,-31.284055870259166,-19.643130587095403,5.827517037679066,31.72620325549265,50.045933662536264,64.4910851275502,75.29389236442385,81.97909821312402,87.73917658099215,78.1852569966523,36.05790675695542,-14.98525015582291,-41.148981200849136,-52.11092476993163,-65.40360443476852,-70.34906671966658,-64.83412246361699,-61.56844653563444,-55.96944617541858,-42.217622927226536,-30.81888475180375,-24.876605762202633,-19.21081235355944,-15.709860065070998,-11.754716619402373,-0.8545081619794672,9.386297358890243,9.512974693032096,7.544522707951424,12.749066692473416,14.480743453827102,-1.1234332689074868,-22.30365401029788,-26.829826355142863,-18.894496059020884,-16.907904266793402,-18.939969322164913,-14.791410370628533,-9.54044391574218,-10.330869859572157,-13.416126458240623,-14.02396877106904,-12.294964367214124,-9.844590635741636,-8.004344943263696,-7.362495135956575,-7.809744278973614,-9.16089780487102,-10.823519336917222,-11.681545464974104,-12.121797884500292,-15.314708124315572,-22.21225590369718,-26.949960029999914,-22.410213719987162,-6.556080053656579,15.779295226703079,31.774247134809773,32.283201110119606,24.087959756814215,14.293704270667634,-0.6758519069811033,-19.74660654389725,-37.53819943340255,-53.33731475038976,-64.50151671647059,-69.68598746459702,-70.16763215591345,-68.73902321384728,-76.52074741785023,-69.46250490704213,21.464745106208092,192.6350387951352,341.7033618100484,366.942271294667,189.75111424346852,-130.03922346703547,-298.53770101791747,-174.1463127806124,-28.494809143404865,-48.871448106302914,-69.91549106978252,-16.409762094185098,-2.824171591139269,-16.788862302626608,2.2336077624183943,1.0536714712537147,-27.50441085547605,-22.89638743840921,-3.6368150802165573,-9.104307680128898,-14.214802832514692,-6.196044277333272,-8.342619555347095,-17.611737466842833,-19.12741548613422,-26.555797559244233,-47.48184175444068,-57.674300638711756,-44.886843125049865,-28.062686407814198,-16.260683245176967,1.3239585119200572,23.850852320664444,41.94250267772681,58.733351730004635,76.72908575623504,85.39370192239659,77.58158754619946,58.427366058017526,34.8914016186756,9.831087653970586,-15.442622193904976,-38.75015904040104,-56.36650266240021,-64.8427920035406,-63.69789322307868,-55.477191216837056,-44.3637621494555,-34.83600865723102,-29.521549334169862,-26.928116503050852,-22.222307841738868,-14.019872301954319,-7.872136867477682,-5.530220249048348,-0.8633772546252736,4.103272278919299,0.2753852432205832,-6.984914733473758,-6.220082707853383,-2.4383178301866835,-4.258389781482727,-7.013288444911595,-5.855951894469985,-4.158632119880679,-3.4943826800169315,-2.8995928308387207,-5.404457101173978,-12.00270209483715,-15.685484680571147,-12.188059144599467,-7.18618184782553,-6.000092900085381,-7.599614243135356,-8.990895931638637,-7.388471038659684,-3.3245672242623527,-1.431632898446063,-3.601854384175926,-6.341182522941622,-4.489420372936875,2.146465456655859,6.9281920866398155,9.378488093959948,12.24131842442046,2.639174114103625,-22.3388726442965,-34.125995036851165,-24.39519508949246,-18.84322532659984,-17.52309326055563,-3.973463488278906,8.409339869533941,8.044745514208612,5.3888757596153205,-1.854921812963024,-21.51078991784222,-44.40050901926807,-59.42134387454911,-62.581035605101405,-60.36921884796029,-63.09919530995986,-64.4564114409694,-66.17351471493514,-70.52218910335225,-10.60230890440534,168.26073084827732,366.995110964274,418.35503399093733,235.35916546905275,-109.04528154383365,-336.57998967473804,-246.64413684318123,-51.85660154144981,-26.684757823534696,-70.77238396514576,-32.60782613690132,1.637079724061934,-12.022061294456751,-2.489460931300332,13.91856840935218,-0.5296749112411767,-10.553532650068233,-4.271603516258908,-1.924698578791542,-4.064015964453198,-14.856206436998026,-32.165139648110966,-34.216700126962124,-24.778330095218255,-24.69287288241281,-29.41067017122348,-30.229054976906944,-30.870788819382337,-26.62915729588037,-12.175958809184138,6.5844262515992185,26.243048027052964,45.0272645485524,57.701996859855285,65.23616634503765,71.49230740485407,73.01959129611981,62.09223240261511,36.85355008628981,8.699670852369886,-10.357312924464354,-23.81565734769301,-37.03009760129983,-47.153525745307306,-53.35768750271136,-52.87781657748646,-43.15802602367928,-34.16769410038065,-30.622734323509352,-25.10657482449289,-22.718521597282205,-30.767180227441568,-35.95597113714411,-27.029895427123,-13.495366363855794,-6.828985323330635,-4.691495157145557,0.6911961530327488,8.041645503640023,13.208752062425274,17.222141593560092,10.830266217137975,-12.741276787321269,-28.188045126858903,-18.754770714757782,-10.28417045143759,-15.599848667927397,-17.246464574673066,-15.893776410979306,-18.8132580979464,-15.096147637310336,-6.504661498425083,-6.2978188320310835,-10.25505823593723,-11.832887255635999,-13.313640188966271,-13.179318814100018,-13.09865468500583,-18.398077281322024,-24.369673172787984,-23.240486209809326,-10.80699116295119,12.966078869688495,33.31815259747467,33.860322399907204,18.86433674575785,-1.6337526917066558,-24.043437400016828,-41.469854734464604,-49.192311906682775,-52.73016524445722,-61.55365358357769,-73.89385884222366,-74.49889229817661,-70.23061496052043,-71.47108451770741,-19.36644029831067,136.27095944323082,319.5290831240252,404.97590643844404,292.0832030185403,-25.85993090340682,-297.8057785246641,-255.15369669333043,-66.46105186104208,-33.565218046944885,-75.51099333474896,-35.69012545364687,-3.402405652708495,-20.461999836192426,-9.478741296164868,8.709817198685467,-1.8751573387836054,-2.762832697306596,6.898713323156478,1.9164727235141044,-10.598206474540596,-26.8242041453228,-38.623666065681505,-33.48911553165719,-29.89301350020949,-37.22132234838364,-37.228931180174484,-29.378554834561427,-20.063853474743706,-9.54858372228615,-9.508292807449678,-11.65567809850978,9.622416370960835,43.124317243696375,64.8692404243213,73.76697830989454,67.56869468048131,51.17480274124905,40.8859858968161,28.523486003447537,3.3757023694120374,-19.860676178769275,-36.458328949084574,-53.007759783912896,-61.82332871403483,-59.56658070189534,-54.60939752165977,-50.39450735762932,-46.95684420592129,-42.08671548935742,-33.13955584823394,-24.497149236984075,-18.826477074321154,-13.611140506359792,-9.2287310764119,-5.415807757614839,-1.8910220955855834,-1.2704885593240967,-1.2522686099579587,0.5949465797309941,0.6774029558865742,-0.6385764915492125,-0.7893533059608728,-1.9557315476125297,-4.359488981650543,-6.366343643905045,-8.29002489512128,-9.426519114369377,-10.000039661836702,-10.419774245782023,-9.014229560835524,-7.5774123114788505,-8.01252953576054,-7.961112421166522,-7.916143449619264,-8.319229712965493,-6.390312545955364,-4.0320395932645,-3.267706322200304,-3.842851820413255,-9.521804779858385,-16.487677180813826,-15.855475068603917,-14.738961154824754,-19.5355987988579,-19.91959383435138,-12.92042663774873,-3.4413079840274854,10.025332741873244,20.627765644285432,17.61325775564093,5.557830317989348,-7.931160209077362,-21.9692219835411,-36.15195081305292,-47.003948327277534,-48.0220949498307,-45.32734398699525,-50.073496807052386,-54.07728420828648,-64.39681808913885,-87.77518518729616,-49.54536853762152,108.67694977641347,297.2607894160167,380.2204320455824,265.2953328311413,-39.48335610892777,-285.19726866139524,-228.2823147437755,-47.936965807419035,-26.985175485390734,-75.85279118930478,-44.36876310390801,-17.065052349054838,-33.84049660094048,-24.876066257306352,-8.314451559631152,-14.622850295381454,-9.507384292714072,1.790652196796458,-4.843460742962964,-10.145323299260465,-7.917143697827338,-12.156899329946414,-15.335478773718197,-11.968438510599247,-12.346490614209653,-18.9467417457546,-27.37561945872698,-33.50938016701333,-31.757707889305195,-20.786826452584435,-3.9737807444896966,14.127129929035759,29.234861255341656,42.261360657125195,54.924893490320684,64.04950194622778,67.88129388404059,63.96584795551816,48.894350130000845,28.888911419073324,8.38816214188943,-16.845101114510626,-39.28726864580355,-49.128021120508905,-53.2640991027025,-53.6354449150562,-44.0834241703335,-30.61926863693624,-21.546668794557434,-22.128397449745172,-34.19972938738172,-39.772650938644986,-27.33981994433998,-16.8921846951228,-14.710461720676417,-5.969174471510449,0.9912074236240755,-2.3727374004928485,0.6488361426717173,10.853845827640713,11.919688475587638,7.324173014046059,6.3031882076961,4.87699949023515,2.8030420071262796,6.744234504741864,12.716857384235855,5.540089526784861,-16.96446519889051,-32.957617028304426,-26.969841187650108,-12.95963900009648,-10.199657774514822,-18.909803150631717,-27.05077598699077,-27.015406779789323,-23.788168297544246,-23.511135450549624,-23.661600379552077,-24.071462149734682,-21.280181595915405,-0.49969078574803305,30.862260859764877,41.63678124927357,29.098279147919555,13.004759625234506,-5.01707011393113,-25.86066219203719,-41.0823110130022,-49.136069034526976,-52.42944547103684,-58.82806621532076,-71.06893642010031,-71.42916670993148,-64.17146091095064,-59.424046173327426,5.531450436419831,178.39562549284165,368.7706170397749,419.81248138038717,223.4504701858414,-138.13263737389957,-337.45068815466334,-206.90343520050408,-32.34521015940554,-47.926149995417006,-86.85912163744788,-32.945349111046795,-8.857283722096355,-32.302638245086584,-19.465582624125013,4.7172280971349,4.531666150575488,9.77633999262114,16.594102064574933,0.5485293185933102,-18.630957133294082,-19.209653866971983,-14.901071931524331,-20.911013211515268,-30.707521643964924,-36.36217187291155,-40.03726499731023,-39.56002422613052,-30.62893188100932,-19.78392509912311,-12.907998117202865,-4.238566000034357,12.934064062450366,36.82932790334938,58.08383512359112,68.38080752175688,69.76166083674079,67.14578573338736,57.7485158218933,40.49934220341617,20.29332913500099,-4.933795670155661,-36.29947125843458,-58.36642594603259,-61.260658258142215,-56.65014812963807,-51.949694789797064,-44.05202541233171,-36.08543424199251,-28.95214567980836,-18.495788609105272,-6.643666826426497,4.532635911104222,7.4184181949848345,-9.761394552569897,-28.389979236269117,-20.193111453025278,-2.7513631254899167,-2.7241446773091305,-6.722484963165556,-3.0027433857090884,-3.3546345683599164,-7.752326900675076,-6.882028308403559,-2.8425262424406252,-0.45796814318103074,-3.048392879130807,-10.802528545220168,-13.844749438318217,-8.06514801731023,-3.826165578780227,-6.19896475545529,-15.115588548140167,-32.140436130205714,-41.771842059509694,-24.52604976845206,6.237990996932344,24.973033403514762,29.14796157899237,24.68261884097072,12.967487132151284,-1.114649590823058,-14.542863442728697,-27.932670859710086,-38.41974484993959,-49.148598497006546,-67.62398932048984,-80.02639015583378,-71.15481440968927,-66.2778260395445,-70.35355367161065,-10.169589062025338,150.5959290095848,323.76672846374976,375.5378065430102,203.2578804852747,-131.4135371852077,-321.68696625530777,-197.3080002459543,-23.96933626822265,-30.528367269373263,-65.89858328830304,-18.267854960340337,4.686100149150278,-12.843807467653068,-4.513908110140683,2.9703181189792716,-11.51253362147402,-17.75379763803481,-16.76321380271429,-16.39857574334777,-12.40298971190844,-15.64225062103435,-24.0080289766927,-25.08778578296822,-26.93799277327841,-30.24927848561831,-23.797846442254055,-15.390216727633614,-11.558480918707936,-2.5546343777112854,11.149245404180366,24.303759725739464,38.74577517763295,44.58852828421958,34.86881426927544,28.74226175174304,37.306602368752934,44.33769205211205,38.46534721376921,22.522970727451057,1.3603445089848254,-18.350253097946414,-34.109848589599075,-45.950058874570935,-48.30843290788631,-44.74134766183903,-47.88330000098462,-54.27313371070348,-50.839539352039104,-38.49209916241898,-27.494100043541508,-21.46956509754275,-14.750351594512292,-4.851068056158368,1.764107317877329,3.87141155855506,5.895867648109473,6.866588230578703,8.37777298208863,10.513717590246483,2.3915132814836504,-13.286807046951552,-18.984885792214257,-16.272878369204253,-15.708306655066202,-14.052120884719077,-11.218280215383611,-12.16497119775374,-12.952644103907854,-11.5737856074687,-11.226739471108733,-11.301717478746056,-11.576062222493071,-11.686300020675507,-11.463223553752798,-16.865581436494196,-24.870295176427888,-21.262252883049545,-7.10411710607395,6.955999777921057,19.50310778240366,25.884176860263455,20.564626283779436,8.280209855221962,-10.054791277067192,-32.52504213243145,-47.35001361690946,-53.292376070626275,-56.398269179684945,-55.816735969768075,-53.96307849988031,-54.53200112066663,-60.83167908230504,-63.285336642278565,-7.163107306047756,146.55062771432316,327.30916797524225,391.45557119020634,224.6397535928171,-109.59333410084423,-308.88068761227044,-194.74490461047353,-17.49883576872311,-26.676636925741523,-87.27525488698643,-52.81067337860895,-15.008829904983571,-21.994871113097204,-14.969518510920064,-0.5280166348127722,-2.4714939902424256,-1.2347037023437153,2.3854827751778114,1.7349405878601019,4.093132293339927,-5.032372814013222,-27.408944342974152,-32.07610456075674,-17.98448981582358,-10.399879016760497,-12.570681398006382,-25.167406345074635,-46.537858505726746,-45.84026047445933,-14.80007724772201,5.620231879572497,3.245737876973166,10.75106539336312,32.4451721188872,45.50504399697461,51.7243981789907,60.16172300454071,57.45691587772355,38.181797455100224,21.234320980542613,11.2964662869855,-8.071599307897113,-32.664125035530844,-43.693367436837676,-47.60297600948534,-56.13533000709218,-57.291159394546234,-45.891299313193585,-37.78784636240679,-37.403637570112394,-33.962727216666906,-24.63259286260434,-13.957555967854958,-5.116724887666585,-1.3770103203262636,-2.8152034907557137,-3.9293994877135177,-1.818391361189125,1.870316380008088,6.407931220254161,7.502571331779775,-1.2976230034789147,-13.194773048916456,-15.779151910914258,-11.130612714997685,-5.677088117751735,-1.2685444055899602,-4.604313212236033,-14.987115824976513,-17.930032032654733,-11.96909065593971,-11.511095446647726,-21.929682201938295,-34.54773714653628,-33.57360910022452,-8.539940818111633,27.366954741580713,48.02614368484986,45.115976832148384,29.16971438508666,7.505711279708421,-18.39151360186918,-37.425116993992816,-38.282027788079596,-38.15991539809479,-62.26960328165968,-90.25499758044728,-84.20890662117182,-65.79991946441679,-67.04129573999982,-25.961884403118546,128.75912612538406,330.26054525681246,420.8198001085667,274.2364040009774,-79.93981676747748,-352.85698547634917,-286.5903704185999,-70.62336258393887,-24.32834638772208,-71.32074609306017,-30.41772233931917,9.74815680188577,-19.54554002664617,-21.998051383609308,8.665767477034159,9.602920458907066,2.8746054712969347,6.538596389018215,-3.418082638198097,-13.217471791520634,-8.27429921482248,-11.248512130929193,-25.21499507541219,-32.3437015666578,-34.19764083188146,-36.211760165925654,-32.698441721032665,-22.214645620366614,-9.054850160651934,1.7509724268668876,8.763825340540514,21.049549647466336,42.29724169200551,58.37073512282414,61.51766717142635,59.57766079031742,55.366276704015746,47.31516744547784,38.02326776129294,24.184012848281835,0.056036469834530145,-26.924699498124767,-44.40850286770096,-51.44071043311554,-51.60511141315069,-43.44793575106242,-31.82188863817742,-28.863577684255244,-31.45852794606219,-26.123694487308256,-16.899524550030783,-14.183586452882057,-13.279811798480832,-11.247455756768094,-12.7252538569305,-11.37993953788849,-1.408152988750441,5.968227876585054,4.373158605413156,3.078907217418598,4.393845949600147,3.8049333191541805,6.386604039751587,9.478821406735593,-3.7460165294597125,-26.998065435809508,-33.66960002158419,-24.273219652191017,-18.495847348844144,-20.45949298449341,-28.981003760143878,-39.348550607031875,-30.79314354140776,0.41359362285584744,24.619484412540803,26.03819126605682,16.7001253960561,0.49893860999709005,-22.8872371545581,-38.603725310402154,-40.57012352115164,-42.689052157042894,-52.5723729258127,-62.069025776077105,-63.28571666555642,-65.98238342198367,-75.00003732767111,-38.00829017228839,102.40663709836552,293.1932747343795,396.9791498664746,292.593645648533,-22.02959354346087,-305.91742787316247,-284.94697403221267,-82.84930684757612,-17.32183113759382,-64.30304479842971,-43.378597187798576,-4.9796093500721526,-19.212378093354506,-19.159552099265376,-0.44704992319108783,-4.511037975175867,-5.88245815867127,1.6815743497588311,-4.28746880088455,-9.686650491881206,-8.990808358898263,-14.625269863231834,-19.633584436723897,-23.463384553702596,-30.43147991014886,-29.02292101089739,-22.37421918661528,-22.158057976298288,-19.508968250133677,-9.973512742305243,0.9455123394167149,18.205554338451197,38.858813303508626,50.26879898165526,55.3129627664202,61.16437208967829,64.28138322308563,59.13478082006018,42.83794608246196,20.636908263954552,1.669279019443879,-15.51247053573589,-31.235810141259854,-36.205430934393505,-30.468914480290586,-24.813357722976665,-27.005915969288967,-36.95614167658702,-45.10757339778358,-43.63865967600255,-34.4683625634882,-22.624622282495217,-19.733610941909017,-30.580139611947203,-33.340317475996244,-16.76967876983519,-2.4186719934909533,0.23565559737408037,2.1101248414287213,5.717840040394854,9.2971611418449,7.690089724232166,-5.033681547986426,-16.39074143083799,-18.226327192221184,-22.859765022637603,-27.182191041920934,-21.023817336861853,-18.46913836777719,-25.59913691510073,-28.949397918148907,-30.46477138992096,-34.7954804846979,-30.298300758293827,-14.03620983001586,6.030314013670225,24.33644550449729,31.47144706110631,24.270431167121043,10.981112078266108,-7.35733195441529,-29.94944504256956,-45.97037745127932,-51.4752017163121,-53.304062963402195,-59.50465609717281,-68.37001604956666,-69.9220197004382,-72.3522745473168,-69.7668617552981,1.3420841179621092,163.99215988908244,332.4380565624394,389.2619378183656,230.08209323224582,-104.92323400331297,-309.90335910663083,-200.60751229645626,-41.32557416790666,-55.74099735508617,-85.629485118141,-32.11513408229989,-10.712851046020234,-25.859642190939525,-11.647507758773337,-3.342091063838737,-14.126486017563078,-7.7773479074755265,2.6541617659660144,0.7240663699578853,-2.3173847269291272,-7.5125006451154,-11.701328691150705,-10.089658117084802,-16.82363148464654,-30.920869216776094,-36.2274148379772,-34.18301189796966,-28.22808977292462,-14.088433049509021,6.107293881291092,27.62023336509022,40.113394657456595,35.25370803894964,30.207548028170294,39.49926110399575,47.83769190736567,45.948769443224855,38.1453329283699,18.854055620067058,-7.583036581467457,-24.287657436462244,-32.93919723472727,-42.21315431647736,-48.54938396554844,-50.004892361069025,-47.6064676693008,-38.94724074442304,-26.028390574193594,-16.293253088310834,-14.584081218772525,-15.041488254420315,-7.250516696434044,2.7556999635675954,2.0420299668781894,-3.3333991181985922,-4.4009333399940225,-5.61244884377545,-7.073567044107861,-4.614253209714494,-2.3745900320841677,-4.12088750267845,-6.817012060113221,-5.763308281045575,-1.2540662727388998,1.1729971493980074,2.904779041911347,6.133731027257465,-0.38632704896824777,-16.22160378189723,-21.631401084617753,-17.4907469673309,-19.14429920307615,-21.851507311184303,-21.611407501120954,-27.971088087585656,-35.742010510583654,-31.532589592964133,-16.271555321799802,4.713243833895289,24.642868314896255,31.695619103957377,26.27783126219265,18.635815338361315,7.4489616988884695,-11.909111667151324,-34.4735548455737,-50.70460070744919,-50.467670542259754,-42.63275036495888,-53.01039418878872,-74.65667323723198,-84.50657354548653,-85.34103198516289,-44.61145946634561,91.07789109016122,272.703991686896,379.6851552422149,305.9615283741747,18.344285936386484,-275.28579714151454,-275.5863586234888,-80.5379756077546,-20.787576236786926,-73.91817212325019,-49.31341522603512,-3.8322586933761045,-10.16998201811095,-4.485964237905918,-0.03474182845435081,-29.513955400138308,-33.5462225634054,-8.926346261414276,-7.6408950030719645,-15.42989429176258,-13.264396468113652,-19.066015502364774,-26.201455118832413,-22.493833394278653,-20.676134634191506,-24.857026324209823,-27.526711279428206,-27.01205569098189,-20.715675228098355,-7.107134555802677,8.685471238383855,23.624300181865184,37.724811093877065,48.4297130595689,56.036614497533904,64.69126480151371,68.86009095556652,57.15011529256169,34.3368247693902,13.343646385237186,-6.2135241956305745,-25.303920198990483,-37.1639025805829,-43.82645592273667,-49.98581659530013,-50.689129923852164,-43.40955683838014,-32.11941518191772,-22.46253512248903,-19.81221463825929,-19.22778057016494,-13.30479464832048,-8.29045086308167,-7.694593092142323,-5.609894208594291,-3.2436772312052042,-1.5650611176896252,2.0502934203544143,5.2526923419578715,11.73457986973237,19.691408142875297,12.071776730694445,-3.410125004521557,-3.177087914340971,2.5870615421411802,-0.7982105326810878,-5.280788210756498,-13.159596726553222,-26.445287820777054,-29.372481990506678,-24.511207548191088,-29.721299148191047,-37.82860225180925,-32.096241699136556,-23.79253830336148,-26.93394171011816,-21.987486747268495,-4.2631433871243445,-1.318673804270336,11.329584466113758,64.9938747545047,89.14387061670118,42.64465235456608,-0.07232910281609684,-23.358766660216748,-68.66163049644732,-89.59202051625718,-60.04745812590678,-49.12281892184825,-68.37541488398422,-67.83912121319668,-58.883145335078666,-66.81142440225808,-46.28469709983052,54.91968745590357,214.63005032211493,350.021079155744,344.20742383525516,121.98074073509841,-168.89343536372272,-247.5962153468232,-119.90214260645796,-49.839877288266464,-82.28222526591298,-70.11279655130065,-26.754714256687436,-26.023246348813096,-27.613161861974085,-13.113612913873808,-13.703143423509356,-14.656288435505225,-4.3719149626437925,-1.9722537195696148,-4.13174791252213,-3.1368559216098966,-10.222076245032355,-26.37234837891275,-39.065292604209844,-40.11365976511091,-29.85165364539613,-17.829643407408774,-13.507666443478222,-12.309084589607995,-3.961951532793891,10.303298502053432,23.807517997289338,34.550192322644875,37.46273650540692,32.675765009905874,38.248571788218605,56.562765001508524,57.682317693212426,32.56108411130102,8.900196087389041,-3.5587514948637793,-20.51360764744192,-40.73077400503556,-48.688204565388666,-43.36668640315736,-35.48033801891368,-32.309194929503334,-32.31756117073067,-26.79086513407721,-14.780354289270377,-10.630506653510846,-17.8246836657247,-16.56468529947893,-0.9593390172543685,7.180305824315646,0.716386907751577,-1.672582479151993,6.319434030782651,12.643856143310341,11.511089150069338,3.5894501654183735,-8.588377856657466,-14.328648751522605,-9.681144928631154,-8.154088464958487,-14.554226592547536,-18.871742777134212,-21.680846820777063,-24.27275216912487,-16.68966263877975,-9.262183771521311,-23.624350320742515,-44.425562923975264,-43.836625047652866,-28.86430034803606,-12.82634247630088,10.383405634964392,34.78372288268291,39.16564060600549,24.086904415255702,8.462529681285545,-4.307695183933033,-22.59802936841909,-42.61164571414614,-53.87174693542194,-55.515272257295706,-53.28095751011818,-49.72610898613014,-47.80292197944216,-55.158625382137814,-55.65721482797438,8.478788736779634,168.2701607908075,344.9384625091351,369.75726770564063,135.94424517347682,-199.68640690069753,-309.05284562762256,-146.2194279406556,-14.055287195236108,-40.26363817685001,-55.74647822463548,-14.22458542860715,-12.144926980883433,-27.501939202882163,-14.451369220274437,-9.623983310992891,-14.77586107251846,-8.4984702523751,-7.311081439745296,-7.39197861591833,1.736470069355562,-3.6641027199901828,-24.10754950283839,-31.2028203002157,-23.85195694319067,-18.156352560568088,-18.3108313317423,-20.533583042676565,-18.327069375590078,-10.419694276996973,-1.4686710854805116,11.502958782819306,30.026448726306693,41.612567215433685,44.18354651184072,51.82834709772368,60.14405454883106,57.272575641718404,55.52553026353049,54.719928940757995,31.442296405860667,-2.705295627232497,-19.635411571649954,-27.270170341232326,-32.364607830235066,-31.696605300056195,-44.3768630975916,-63.77059908862999,-54.2412477931967,-29.532567483369892,-21.629802181251584,-20.144900789162755,-17.09484601606105,-18.09856036825705,-13.415808325813273,-3.3926255985376486,2.886571043780979,6.220415659463413,-0.8006756034505003,-11.61345591622763,-0.4080709845326762,18.685894712360273,14.976540563771874,0.967047582275903,-6.6205873364567225,-11.498982839895469,-9.802046813869882,-4.46574202685391,-9.97102948914251,-24.95896866560375,-36.26718789604203,-31.02087324986917,-7.41792913910796,15.351307296325764,24.045155340744124,23.893690510548467,15.14754906662783,-2.7854103847285607,-23.868614199777745,-44.35210362513772,-55.613745056290156,-55.33451956639444,-59.419538144669865,-67.29774835445102,-60.59413086878988,-50.919221807575354,-59.868284913902556,-50.625637175433496,45.40615523572394,224.72370207341075,379.57564903045414,353.5624440855417,71.69306058201882,-272.60072350186795,-340.0548888461366,-134.28999351905617,-1.7348242664679603,-37.824139417308714,-41.98344044589072,7.295114322549679,4.671216385261886,-8.263523246625322,6.206164153535962,-1.8718292385421158,-19.019899373396534,-12.253421062412407,-8.550783465415844,-15.1703554222468,-15.675699945999149,-17.285832062181,-20.6526060399009,-18.709346203040194,-20.24039894957675,-26.017496926958238,-21.729155390548048,-7.560862269099822,-5.628918399298351,-23.632257916469044,-28.334425228105374,1.4780492386656263,31.111386707798555,37.19151855142153,42.65163860757361,51.535030083796116,50.10663394807934,49.80465544602913,48.45393625089135,25.60188878492069,-2.292898087112369,-13.794903093993174,-25.27110191959698,-41.80172207989496,-46.09268299365625,-43.35371371073987,-43.75195902939497,-36.47334497800594,-21.37596919525972,-14.68148655072929,-15.683101256017508,-11.487122718336595,-4.639131515531968,-6.1017463657596345,-12.733322385318429,-11.72128916547825,-1.8655664783888994,4.209583190943524,1.2626133959656691,-0.5186186014889884,2.5438710138673226,0.6763365983106517,-4.988411218272841,-4.1292667238330125,-1.7212516769558572,-6.411070797506067,-14.703137441774818,-25.250716160241748,-35.035216295814934,-29.43551546964904,-7.2070982440124745,12.726327161480196,21.7888056452332,24.16435293722342,15.649007966110883,-5.339380525654123,-22.939440759168924,-29.411235129864483,-34.951860159973684,-39.506621276323074,-44.41198852676155,-63.26141685478646,-76.25670891027356,-62.4014177975562,-54.73035878663652,-35.56934883136816,84.71334086772185,276.0737401680986,368.0600939226192,236.50983623367958,-72.05544310163535,-308.72755135773514,-254.54048822776446,-61.45758494784472,-12.134956990923797,-58.40899348308689,-36.325055948127904,-1.335485083175179,-14.088023410744547,-9.953343270258951,13.48933179391296,11.208467768946711,5.420231189702115,14.027372111482208,8.246761119241814,-16.003172157535243,-30.682224667921474,-27.322426439315212,-18.189090555788866,-12.817955594931082,-22.857475080342255,-46.731740590302984,-52.50243739238726,-30.999550115685707,-13.455851091910587,-6.220788411312686,4.998068122427882,13.500393020527106,20.581541945229112,34.90085912537955,43.70608900510396,44.56838099005518,48.39129857944158,46.87403268176222,35.09280454054733,20.784482593262723,-0.04086922716439467,-25.59715175101265,-40.96298539680127,-46.25354618941188,-48.9744544528462,-46.317384246293486,-38.38130180634521,-31.761996055245362,-27.137345159032968,-18.65182375396442,-6.210052269832033,-0.3796216126059555,-3.135244238241853,-1.4785826371905557,4.590255146636871,3.8794662151422816,1.9947031406005689,5.508241264686347,7.1733062893398305,8.392772597449802,10.486889073357013,0.23882602498203198,-17.767408984143813,-22.75853629726125,-20.087089454577747,-25.327199383491262,-29.778740126290963,-24.884058139533078,-21.52408404406675,-23.74930100241136,-20.210372377731947,-6.226335801329508,10.117800946346467,20.525220827101975,23.099223524294622,18.50969558911682,4.018580270394166,-20.409807210254524,-42.213881126363134,-49.861025501639986,-48.61898566046801,-49.436712737193574,-56.02160863237583,-61.76057003239825,-58.48202252030425,-51.26794757046043,-27.13585169068812,62.99401576481243,216.67155754963733,330.2203832405496,281.18683301302076,39.425798660151685,-233.53517207945353,-284.62774006097635,-124.39858970205111,-24.21012821604242,-56.769197019537344,-60.188369179280556,-13.750180054099793,-6.879147372958606,-18.241022457716383,-10.400696634095041,-8.047584703871557,-10.181790745401106,-3.3177019029320505,-2.486867900861924,-10.551539248205188,-14.421667886144625,-13.496387941835707,-14.041253568982844,-17.335470520558466,-20.39090534312495,-22.558583701090733,-26.104772646117414,-27.694592841786122,-20.734457697980258,-5.643265731002803,9.202860077012447,17.404632384640017,24.60096820136591,37.89383060267998,52.15779367101777,61.23109784538167,63.21033584746803,55.098494560169556,40.43257198986789,22.269764396580467,-3.4414009717751366,-27.625722524373113,-39.96946720968404,-50.8548719240223,-59.47397206081444,-51.56426837822658,-39.273048520486796,-36.47216964785744,-30.480303170227636,-20.259416066636653,-18.182581807164524,-15.713990160469752,-4.395898904851167,3.133969984746372,1.0895350097402918,-0.5719499815169105,1.342143392663015,1.6957278774876166,2.543984474386452,8.073578181969207,10.301018207934728,1.1809830174135971,-10.792642711600813,-14.318186262473422,-10.804972235301662,-8.160159466804185,-11.262123355155312,-17.72918482386438,-21.16130551758092,-17.518033067665673,-7.638857065081854,-3.475701680272415,-15.773428646717655,-25.144966543663333,-5.914932684932335,29.388293420238135,54.19622658608064,57.94225671550951,33.04170133540909,-11.800142898927493,-43.85697840982218,-52.653022857319385,-56.56085582883062,-59.216506389203865,-57.05131418570824,-63.195695918375144,-75.42170122486145,-70.67621429734447,-57.55932971664081,-54.01958768376337,-14.314105449240003,116.07391895800492,290.1628044865555,366.68695562590005,212.85450698085734,-116.49591112559739,-319.82978922776044,-216.22615919482868,-35.796552182632276,-16.71379215477613,-48.74930776892788,-10.729144011777336,12.270830764557061,-6.802736939501131,-2.0150247390892986,6.537652080255171,-14.614752509676933,-29.71379091203527,-25.56041350902253,-23.862885666524477,-23.605308702455428,-19.104979068912645,-19.2121025232706,-24.31751086882622,-25.454995702108654,-24.428050678898536,-27.208642178020128,-26.492938010776182,-17.99252413162794,-11.896672919991431,-7.55089291097923,5.323642265523048,22.690746285906084,37.64121380984155,48.57372316632112,51.152052992334696,50.83091858972436,55.690845052493366,54.93090461066861,40.72578040260189,22.22259425423911,2.6809554638542803,-19.83724126498253,-39.64637402821011,-49.58086615894762,-47.85303579854796,-44.05186611118184,-47.05742436364764,-44.51572294560683,-29.238203103562274,-18.528960783085992,-15.954807766950966,-8.362512019733163,0.7633196243356508,4.996246544480686,8.380553403768884,11.101447748677051,14.31049353588525,15.951104906945195,4.392628036862305,-11.628973030919731,-8.725216433245148,5.541507712223989,7.564136871511002,-3.155255407417286,-18.48388120548048,-35.748518534541425,-43.645784183423004,-35.31355473523349,-29.058732211361267,-38.114319454961795,-42.368753553377296,-23.636992986602102,7.180624995210877,34.67691253219975,49.437691606482915,44.45124634465279,26.4828739771476,5.902304530822168,-16.627064521775196,-37.752491744730136,-53.24827271886775,-65.17683892114744,-73.55229038184744,-76.53198728345396,-74.62517908296506,-74.39490045999675,-70.08214017413411,-8.457592795929479,152.36392755100348,339.73256934826316,393.96339406959,196.69124556508473,-160.41104199129774,-352.3120043809311,-219.1046879831649,-34.240587829627195,-32.10022109723969,-65.83606628151307,-20.848090898927005,-3.6900848140035265,-24.349381067042174,-6.534761185795746,13.258320271348225,-0.6307426254855955,-8.086802863926117,-2.1318557363270276,-2.7872298691601642,-5.3560864423604215,-7.97286077892328,-16.153766951250038,-26.567725628566876,-32.72760194501704,-31.501458407514292,-28.62733409930262,-28.115989881893107,-23.174806105935872,-14.856453390378284,-7.257598337328058,8.317601464500392,30.825104946471896,47.75062031143657,59.16913303318356,67.45713358843466,71.28891662933762,74.24864611615543,73.24797699211439,62.270501635845434,37.72941190248133,-9.533726031373295,-62.14414940295437,-77.71173536317772,-61.05539121834749,-52.178113728570395,-56.41441553140098,-61.940216831302635,-64.16734552982231,-52.41825211599995,-31.753608052799017,-19.36946890829838,-10.305417604271703,-0.4357965156604955,-0.4524741686456082,-4.777842683420701,-0.9152577419394063,7.1093023905322585,9.498109414059478,0.7099268064389044,-11.727648411985008,-11.917681006331552,-4.513295325259314,-4.798595526095323,-9.48505182555775,-13.132221625513669,-16.01371619999982,-12.359786168603296,-10.149553094893434,-23.77246841301686,-35.98575252971028,-23.831280910976847,3.0555710388212383,26.237513506283634,35.93335317442133,25.84839393857175,4.148284841710552,-14.610497380442006,-29.846549976963566,-41.830537726075484,-44.62441683753805,-45.66964368547666,-54.61298947721133,-58.760652441541794,-53.19165008305939,-55.96323525781287,-42.77816850531582,50.70268736834275,218.26326728982323,358.77575560592965,337.86643653188656,81.98140991542348,-241.56324493674197,-314.02517179082946,-135.2962066366011,-25.611587922884887,-62.68915332776489,-59.830878640018796,-10.451498322414189,-16.425825495621403,-29.10750668635096,-4.073058164669757,5.710341897148272,-0.0319135387412075,7.990759411745854,4.409200565649979,-12.443677593261814,-10.214570121685984,-2.9123027031839523,-11.35592119453477,-18.703918772844716,-28.91840774816212,-52.220891799299366,-53.500525583860934,-25.694704061188517,-13.787999694901924,-12.779491313612843,11.61771689123641,33.44048138202718,31.94664894503513,40.551448513413796,61.67797020919861,66.62824894954836,65.66077786308234,66.44802957009462,41.64691395082494,-2.431577486713449,-27.839730675649175,-35.695762258220256,-45.98233524182112,-53.23600959648677,-52.93305926368283,-50.644171336262346,-43.187364359028194,-33.76750538468363,-31.192280499958926,-28.37364593100404,-19.357684984066868,-9.97864586391308,-1.3283001942387038,3.056900890948395,-2.365647068877081,-5.56447468190612,3.700921770717569,12.975962410119124,11.077213572201131,2.5081731660284294,-3.5726390848407643,-0.6349054240975889,6.830123080118634,6.3912600391054575,-2.832303213415484,-12.492398031195584,-20.984617010725927,-25.4454715273647,-17.846420184292704,-8.393778243076955,-18.353833653038784,-36.023721134633604,-30.3545484140056,-6.206638428815953,12.980680064661826,27.06758650323254,35.45536793135769,25.72149935947907,4.062592126005729,-14.23150734096653,-28.364839703792136,-38.51934633216121,-40.507629311674705,-41.02972406058715,-50.514632148765976,-60.85705090179212,-61.71367264970565,-65.92170426033701,-61.40399487129248,11.833296931612225,164.64204739625384,316.1616395013298,348.3590752029468,163.6154997235914,-147.93248247417642,-283.88703406906257,-155.03278033506876,-37.033281456920776,-59.81973826985045,-61.36626764955016,-10.134682050965154,-6.80929412381267,-18.36721488342433,-1.3188710728486477,-0.7766432190330974,-12.392685054328009,-12.583380112446935,-26.557221251357888,-44.52513397753614,-37.2604242471442,-26.596378952508367,-30.42658200619708,-33.160205530841175,-30.63173944154397,-29.719893688138047,-30.230721507828317,-28.01475400472242,-18.299799521293266,-5.4822626843965026,2.0396300540493426,9.870525846000957,25.48127628775677,42.94346527654072,54.15479529383746,57.48994342751067,56.83082296071397,55.24653399243243,45.76671114171233,22.400519546794477,-4.997804871153251,-25.088936073570352,-39.08141205539605,-48.71877279657417,-49.8999089387444,-45.001216578928116,-42.03422688875136,-38.99053459297886,-30.591107067004376,-23.12919956448374,-19.950048139278884,-14.53164458947926,-8.639103478807826,-6.4080597395971814,-3.52637926005508,-1.040596564357191,-0.3011079085067738,3.7217297294951557,4.834810648904709,-0.995623075492091,-0.281780434147608,6.253740428415381,4.038468711119371,-1.7462400964433424,-1.6651702885432016,-0.8850376336793637,-3.5043345819013343,-9.907378758388838,-16.290535082485235,-14.98050198198281,-13.19885797784056,-20.121760340848564,-25.076617650130075,-24.690004125844656,-27.448138565622934,-23.73999473758974,-4.360747275410845,19.80203884420058,41.87768379590732,57.138657823280596,50.155562203033206,20.313589214166733,-9.358478362274434,-24.89611361511827,-36.434804862571276,-49.613070341191026,-52.81027264425942,-54.61058243457787,-75.27694405424386,-90.29969156969116,-77.08303235933928,-65.69438608673852,-41.6355916257784,67.65400112680499,245.82885371406692,359.58897364959716,268.6942894396044,-24.696554347453976,-272.70466105875704,-240.3091800210283,-67.43327421911403,-16.564067770161657,-49.100268715278474,-32.66960625150071,-13.504912592893639,-28.226385315087487,-23.032524746509313,-4.942968660407821,-6.2810628212712984,-7.827084988460916,-3.327847729884944,-6.0246592254559275,-8.495001982526805,-8.209155754256518,-13.116242312020688,-18.55731773360352,-20.380697263890042,-24.331986115160696,-30.444459084956193,-30.803550176698902,-22.518865953948847,-11.968739299291235,-4.435306623310049,3.653088892114527,17.2456647140961,33.5303654358409,44.85654968890635,49.65647164101793,54.214941539501,58.23248150452089,53.438379737972745,41.36654293772157,28.134730426218045,9.098463945541228,-16.087468865104277,-36.04947166377146,-46.65822623519632,-49.68459445007507,-44.315741277839756,-37.42613851964941,-35.146051588427156,-29.47918031057573,-18.601130218611445,-11.486364957272311,-4.5116364153489386,5.424686878837088,3.1255146681691492,-11.393241916226525,-13.851359360289544,-1.1699559848210122,6.9683839826978575,7.901553892181722,9.71992864038991,8.530861952227276,1.7857073636019276,-1.1557840666740145,4.844852518204614,6.760881957419453,-10.40153847581043,-33.218102360335266,-35.42324015434942,-21.284168318914663,-13.827869302106237,-19.381858307041835,-29.685655220336173,-31.449858322210012,-17.460152716623657,2.7325654888648288,21.242788827922915,35.04700676070132,31.378875669110986,11.305637555468632,-5.746891741705824,-17.927312292843478,-34.70099054826527,-52.225350116479056,-60.958233839964876,-60.493845631287115,-63.65340581413753,-70.12666567646374,-62.67499637233523,-55.29811444783803,-46.554325839651796,45.104587553911166,242.42311059791103,400.1183814590305,341.8375734089022,40.812380971119694,-281.70589427464824,-321.03429411924446,-116.25225145210788,-2.137196567560629,-48.556900082480496,-58.20056863965293,-13.690953950842008,-9.841631840717262,-12.502786965465802,8.8869210798873,12.465048212675716,-3.1666759439331997,-13.961889345845213,-15.223367769458054,-6.738460896216466,-0.33864079783969814,-6.982704471102515,-19.59037754144576,-28.16222700636336,-24.011210751819036,-13.160713521291907,-13.897457625025753,-17.00381053800898,-8.620627891704203,-6.81323794515326,-11.99757408846352,2.710576496832604,30.261213468853075,43.2481081868394,43.680199725883455,45.76241962231635,51.17462800802359,56.681221792997334,54.50806001945041,34.393546498540594,2.257442582539314,-22.610594310218474,-34.82796770266687,-41.6414870357844,-42.195904145853866,-36.46799304281703,-32.53210549526116,-30.784615517080226,-27.586485503355917,-21.85934468720218,-11.43513451372467,-8.525395461085221,-24.502469435756254,-34.19372831857156,-18.96943129152962,-4.248845254919427,-3.035342057157255,-0.3276955184124546,3.2441058792014026,4.0145237148835555,8.089557393298797,7.971371077461043,-1.0925628283786075,-8.688529643530382,-13.909731179349485,-18.546002032350685,-16.45597393362895,-12.205910252093034,-14.347160611935859,-21.26146096332586,-30.52719638955056,-33.89321473578259,-16.555554352217193,16.715542570058084,42.08095385294068,45.57096370119239,31.10564978983058,10.729133392937612,-7.042213485743961,-26.501495361711214,-51.079116304692185,-66.58862039461009,-66.62182921597501,-68.0870982429716,-71.29552920256083,-65.29374059969646,-66.57374428260844,-55.0211202492919,47.33482661528287,235.8151876462318,384.42476281276276,352.15953714224725,81.03517863775352,-249.2507387181119,-312.5818442391925,-122.60727410734845,-21.670778709455476,-72.4880410295196,-68.68819795965986,-18.112284623428934,-26.052746076933218,-31.93043109773823,-1.3335751544348184,5.272488961905896,-5.420684098987653,-2.687297686787547,-3.895826164978068,-9.637578416480341,-8.29817708443598,-10.611227937542079,-15.550028154167173,-14.108625229340769,-18.20236640054221,-31.44554946069558,-34.705369918589994,-25.623889964946287,-19.34281106161142,-12.005613215418716,5.4622407919193465,24.934220605119222,42.75546313100386,57.41829182765091,55.43907775262609,43.15159161433395,43.78594232907635,48.91117491396365,36.6507663714444,14.402190324165439,-5.588443304435815,-26.998306068059154,-45.67787847944771,-50.754825035777,-47.36924909421731,-46.85889856204176,-46.77019106060354,-40.223678869348475,-30.6365885014327,-23.91450769842656,-18.55431052197092,-11.242419356165595,-3.9632750631921887,-0.5233519221485068,2.0278299399502586,8.408208346684745,11.036991835630964,3.0696899625208953,-2.5013253052997904,3.0807048193653372,6.079210797070605,-0.7814559841241913,-7.776603999141397,-10.47602989827509,-11.204133728507795,-10.563484797447638,-10.617969648984891,-12.49083200102585,-13.097073679004108,-11.93273743395281,-14.909762892446121,-22.21901562310127,-19.973361653926354,-4.5252967606137116,6.815898216106646,12.487129651296957,25.14729640267834,30.60582419700271,12.166902096684376,-14.194950841197315,-33.961639948029,-50.19463832090077,-58.465008129517194,-56.03566938477422,-56.61053489773981,-64.55729334191864,-66.00234984035829,-63.61843191263233,-67.19408384430885,-36.348981549772404,81.76794325166485,255.31794484255857,369.4578015200396,288.0895449533386,-9.93688457067519,-277.2298789494927,-250.30955404302742,-70.10013051083584,-25.51013796340777,-66.08216407571207,-34.7319962253043,3.7527920249986764,-6.303072758370874,-4.444300143128668,-3.9829164968898283,-32.873299516399086,-37.754787276201114,-14.163156477367707,-12.041378874386368,-23.24254536275373,-22.497061186823096,-21.204416346542814,-24.181624134621103,-23.668969762182158,-23.324543964198238,-26.789984819597425,-29.410130844324602,-25.541964307930993,-13.599988274743572,1.9850247289251746,15.055751114301996,21.463943687310877,22.83676495743702,29.766132606031206,45.891944449161414,57.89643325327896,56.61974986446039,45.724201297879915,29.056543173185197,11.554162997046596,-2.6663629469126784,-17.83695627332717,-34.81491546471302,-46.85647760886781,-51.28405147846959,-47.805057746632784,-37.876205288957564,-28.239587138320736,-20.40449997176072,-13.617403770605883,-15.436307002594177,-22.614906383188856,-17.410761587737127,-2.902804923148121,-0.120567130303602,-5.841713156714766,-1.0254097714345978,8.841444007732665,7.208557352451177,-0.7512154631539598,-3.681886254649987,-3.4089884931210612,-3.5624245333683717,-6.55253564412164,-13.138590467019796,-15.510172167018112,-13.410425577868924,-17.03907689143454,-20.825401595398525,-14.70306009554892,-7.017506803255351,-4.10926119673919,-4.438870066288697,-13.081113313467728,-26.543619630925843,-31.347366285168018,-26.909875469047684,-17.092446932795482,1.155662394030804,20.915619817935557,26.735050578753963,18.44565338592055,8.771304386217196,-1.6573643916285103,-21.022269605497364,-40.11126665143967,-43.529172999234156,-38.98728626060611,-40.00975098254572,-43.50140036644666,-51.62113637556112,-74.02388378014243,-84.0251451650737,-22.708116025485687,123.13391039968684,282.79821023576284,337.14078561195583,184.68847521613446,-114.88871152970336,-292.4367518888097,-196.63946718507452,-40.39227680546835,-32.73970717761411,-66.8272706260145,-31.110680348811194,-5.008311017080359,-16.45000808138507,-9.222588047261034,-1.4092435283534073,-13.851821456740474,-9.467017021617448,8.443456083182788,7.6300168613721,-1.0841170850283426,-1.9317083929820669,-7.45987908852479,-23.53731394677991,-36.146357059829896,-36.00909096652656,-31.929942885147877,-32.60604684597558,-30.535777810427533,-19.164388760822284,-5.033846260481038,8.221567344513222,23.47882629386512,37.35050686502352,43.76488785686441,45.84482435381483,50.79858387619771,55.098922339713184,48.33233726995418,31.59837937715113,13.35573339683248,-5.75994898257864,-23.678495152702247,-33.53536466047307,-39.7770795891493,-47.88424901685543,-48.886239527325785,-39.29126831037513,-28.334389867323978,-19.431060694650085,-13.205967063918813,-12.029823854379284,-9.121516962326908,-0.7606511427853775,2.1080398164978433,-3.408412348104026,-5.901677720107681,-3.715213812018103,-4.2135234045580425,-4.387157610558008,1.6713100833902867,6.480508783801913,1.3961578514449577,-5.643088071016475,-3.6668603554604484,1.6664194984979446,0.6055828514313717,-3.3744614741198085,-4.96218309914852,-7.441894970075447,-11.45088400639656,-12.41934185382831,-12.250574159949839,-16.672999766314675,-22.999216683559112,-23.575674394386386,-17.856488920889344,-11.860899033338178,-10.796000058035197,-17.63926524940267,-26.887916249338264,-20.585720853223563,6.086768205597349,28.752166762988615,30.00831789023267,19.08754182349177,3.0714096165940177,-17.250772523005246,-36.06995194359456,-53.81865619446452,-68.69727289641895,-71.7400367514615,-68.56036509941575,-66.22121368163435,-62.406072331798136,-55.99678534397969,-9.019775251853403,132.6661025929405,318.2370069047127,386.53933167377266,212.51730999393735,-127.39997443914032,-336.76015830109316,-236.7424477136593,-48.31451883900846,-21.60172597146729,-58.357410841904205,-26.494521068841983,-3.4249350667618117,-19.1004990146753,-8.113591825044328,8.902812989699058,-1.3126760595394629,-5.4796138895274495,-0.828002276257779,-7.72114569485899,-11.919032512214123,-10.864254663162136,-17.801159873617532,-20.994699772005227,-16.33106835864509,-21.27303941123028,-30.1409673461563,-25.703635001274584,-16.01267080660299,-11.329733911021737,-4.990292677574918,8.344339683942849,26.45010920345151,41.76249538943421,47.13370649479789,48.11528329849676,51.73962298037033,53.977107104749024,51.151555314230755,41.05160213997147,21.42515925796753,-0.4924761152161894,-16.466553789024953,-27.43809480276175,-36.2108642217951,-41.6241518072791,-38.35837753576755,-30.191914209065757,-33.540799445974656,-43.277756896423675,-35.603525390599756,-18.22271588684903,-14.801406275484545,-18.483306207330656,-14.190167797834066,-4.39608776347178,6.7765688329399545,15.159451801487851,11.626302705923525,-3.0498850567352953,-13.047676898107722,-7.655769293268563,1.1691892754368318,-0.30463947430504135,-1.3225265495845449,5.4368762984005485,3.0473602205320205,-10.719610951120796,-18.693599273774627,-22.600454034041032,-29.39761228782787,-31.891769877541726,-32.640247598824146,-36.817411934060345,-32.94684482374997,-16.80920002009297,2.9165160223820354,22.076119140355097,32.92735115474568,27.767765581876937,12.703720090058692,-6.685935785307056,-28.8654609373803,-45.274000636892005,-50.45358901026132,-51.146873870662695,-57.001125873425636,-64.2735924818832,-63.452727900005726,-65.17979407011774,-57.30417719368547,30.398232622795184,213.10565454921363,377.91103196951804,373.74185572511124,124.25357047875835,-220.48409006688442,-326.5271611969445,-144.74486893714135,-13.578511880320256,-59.66816061443324,-74.03624502870667,-18.62605506132777,-13.084649123484901,-22.322508309282792,-0.7212159431112255,-1.3536827193166907,-13.731721814964448,-1.8350734564950937,3.353439928420322,-5.879642724036525,-5.347470827740615,-5.784225385821262,-15.168062765632284,-17.444543037772597,-12.32652689315799,-10.13890528858915,-13.885574368707264,-25.103935674608156,-36.226156006510024,-30.792131183582477,-6.203084319393884,21.728944979595244,36.55807121170069,37.03219017379228,37.90237697706222,48.735957392786105,59.30345324257042,58.053962673207124,46.35825744868728,26.870808506567975,0.9911019781435879,-22.408016653278633,-34.904583628092766,-41.11529106816843,-49.548928652674675,-55.63871128735705,-50.178628719435494,-37.47650808839413,-25.550559524117908,-16.33827733307193,-16.543479640104046,-25.487439782708464,-24.044446209751865,-9.05154558939322,-0.44955194415092947,-1.4695863474485833,-1.0435428162085891,-0.21785735880465396,-0.8948488649310686,2.1266948550353906,8.490945752425407,11.80793022324276,8.068812138235392,2.426702191013767,1.671059306065418,0.17014579579292288,-5.569406736520314,-9.501882779383156,-16.400524430755837,-26.125261550483962,-23.0552634286441,-17.893161246601988,-31.336494552274694,-41.76383177375831,-27.01600502528037,-3.649361262023163,15.116843661870305,28.035282099939273,26.54262198430083,11.781427399455742,-7.724632683580186,-30.453244647678318,-48.0783845413257,-50.16096092866081,-45.596255557390414,-52.24871959638784,-66.9199790285693,-70.13015867838656,-66.85919623971677,-61.7258938923524,-1.0557703656786614,149.79840406922884,316.36083402932815,373.1623480726492,218.47903161525159,-99.30801724909544,-291.89686218015436,-184.0883172298362,-24.140581147074144,-40.752207312883854,-86.41596038945949,-40.27005996834237,-8.96055900703682,-20.8483794351259,-12.83742589501804,-4.352549672682478,-11.48335236781815,-1.42182254086633,13.557456218348188,1.3158234058128642,-25.83075277029345,-39.37901428025147,-35.08137940324248,-29.08865138019872,-28.42871036405372,-28.011667340774686,-30.833620395922793,-34.66100338419865,-27.149169473014684,-13.061269435599211,-2.050916024463036,11.400571641359134,26.766203965453332,37.80742469414933,48.64818805911209,58.49823670669229,60.08980382031693,55.612347887720226,46.80456742276449,30.22322702905722,10.93799839829308,-4.451811482444208,-19.007571262217347,-33.62646830679695,-41.72393585287321,-42.065852114832246,-40.63090934798677,-39.55211004396695,-37.34964506890347,-35.79691695837258,-34.43165921227084,-27.481392306518305,-16.07090857719497,-8.4636180879751,-5.1240549748364685,-2.2304875359258567,-1.9400034078704174,-2.3634616446269217,3.183416797680133,9.717419364090915,9.241464233986774,6.9779406144305804,6.060609862341231,1.117207344892897,-4.201160179915725,-5.112681168469237,-8.534029652911446,-15.540642956626115,-18.23677139427133,-15.15213410938059,-9.062704955844767,-5.387913879223905,-7.873920663312482,-9.331965241532512,-13.773753517553164,-34.40197275466771,-49.28324707259158,-32.114253944396374,-4.458558974506603,13.31992956748946,28.362827277304284,34.014072515494114,26.140055776520583,13.49480205833003,-14.256919054629261,-51.93135371645133,-66.1222061312811,-59.701212135340256,-59.315367579030884,-62.469579421945554,-60.41439338185591,-60.83948925614925,-67.92301052559618,-54.248002665363614,32.75603190929655,193.85149298984675,336.2354446508228,327.7062277777988,98.64328364381706,-203.638213975755,-284.8727717308936,-124.63130724055915,-14.606905606863457,-46.45650185708924,-51.74091884992948,-8.931885258455388,-8.345536494361134,-18.138540085705472,-0.8402203801537738,4.66500536459084,-6.172869591805117,-10.944985666626149,-12.77150328487108,-14.099945107030251,-14.611887118920471,-18.686031606736957,-22.65962880816776,-23.07236547369036,-21.990368093155187,-22.039028030979743,-25.730928773382914,-27.7403620158126,-20.901396464407075,-9.725276567586032,1.1324936757280037,13.675188344989442,26.488785515647884,37.46448039268036,46.99470522124215,53.25050260871366,55.66048191854732,55.40931248894054,49.78426410029782,35.78561953026725,17.131182783011617,1.6957438945840089,-9.62960677266754,-23.25783283781411,-36.79173710661688,-42.101123576718116,-43.913257002900345,-48.80623852067713,-51.00885734652934,-46.62767631755085,-37.02052334188007,-22.074962383864975,-8.222682671336045,-3.2056845663801354,-3.1813009306003615,-1.0784201312599944,4.940270158861264,10.732935085221085,9.010877104822626,3.8177590521443534,4.363997743623809,1.8832271791045834,-11.099304744669508,-17.54410217167136,-9.656352002742999,-6.461069924049127,-12.752350420277578,-11.10168445047977,-1.9498438209372715,1.9295947570058782,5.530072527772951,7.075962358270328,-10.887757048280168,-34.49787836884654,-34.393695628278145,-22.63269498873945,-21.11846387365198,-22.57937009894443,-23.286376417314436,-26.732770762243394,-22.358043701190812,-6.269512417726093,11.791462555403463,23.42792184674496,21.126598646414372,9.102217642680825,1.7694569180788307,-4.95570689622655,-23.526934921680827,-45.38360179811259,-54.71136119496218,-53.26045711451681,-53.82332645795937,-56.602660633143515,-55.06257398064899,-56.66716770084111,-41.845444815279286,56.5209206725941,243.8484310505298,388.7698839677797,320.2837987808676,13.650857433634883,-290.6622240039038,-304.13500929548564,-100.94385927003201,2.5569169544486847,-37.68382478787808,-42.10496501723127,-2.2722453137067404,0.050846553532732486,-0.9224157747335937,18.168550415669525,11.95557767446587,-15.01601364735935,-24.098483110216986,-17.02735101817511,-12.620940362483662,-14.426655628594641,-17.067881835173125,-19.640629779037422,-25.83914489029827,-29.82933030820066,-24.417175547269302,-19.67498045787066,-23.84070040990943,-25.495001336681796,-15.825028540841021,0.675670408645181,21.969606612007464,44.14440733510387,54.61719729855834,55.41272826908131,63.23039767541058,75.61399331041059,78.8852197036053,72.7089500546908,49.053187564767576,-1.227404365098871,-46.69868772415786,-53.87731610035648,-44.750255892172376,-49.58240586339103,-57.70142811555789,-53.953831257674466,-44.72635599986009,-38.793991694741116,-35.14697896909669,-26.240690128275077,-13.226708988444312,-7.384143963291706,-3.763724196322512,9.098520272050775,16.83524235108999,7.557647323357397,-2.287570540956896,-5.08100318482764,-8.512701567899146,-7.373902578752807,-0.8421476775585734,-1.9954643931759186,-8.495080305245093,-10.81721791929865,-13.074862455572017,-14.01770577933025,-8.742796102798385,-7.909009569874499,-14.133046982665416,-14.26155158011711,-11.468591739966605,-14.393222913923562,-15.05613386542235,-15.00914922633567,-23.261066263815334,-25.026030450794032,-4.958502078605527,25.66610046231507,47.77827109372539,47.082316652095685,21.450656970792963,-10.035610159699425,-30.129174855486646,-41.70945446789463,-50.77673342313167,-56.69122579196862,-61.98495041525486,-71.41272308771738,-75.43447177429736,-65.0393455199636,-60.69488510355864,-52.59771190723582,40.08893334665624,234.40316122302107,398.57397338381463,368.63333812312965,92.56320620425313,-246.3365948753018,-328.327408922737,-140.933191135963,-14.764641591815241,-50.954090747761654,-55.318465968045544,-9.03678706499948,-14.865771518741852,-22.400800291247176,6.575212189819238,12.76329000985423,3.360567903019268,10.443430259668748,7.959178013936979,-7.151179326681262,-9.628243556071798,-5.091869160528702,-11.557571411630548,-32.19419874369888,-51.21035598820443,-49.87225089274574,-38.53057193444228,-34.722049757442754,-30.366911953975432,-20.103125213129662,-9.846310458495438,7.541774841845262,34.242054580032644,54.54332407397824,61.93157766552934,62.5510680292297,60.58788449555112,59.79760086918783,57.61387298546724,41.87623036596152,11.69234712845532,-16.365563504155915,-32.03792835328901,-41.78694947777984,-51.17284780770301,-54.324415773002336,-47.675055014715895,-38.66714985345854,-31.801672545923665,-22.551058347199557,-12.83820636543777,-10.84669222973946,-11.004241510831449,-3.680097541757135,-0.25017511529786773,-10.158892047093321,-15.218631968615194,-5.645533043134748,1.9087249022231134,1.7153340779800104,-0.1726955024407495,-6.822481394700006,-13.562513897708808,-13.057243243394563,-14.661121214170329,-19.260850140136174,-16.511265656439875,-12.910116627850709,-15.076926512105203,-15.964898402063817,-15.446997721835231,-16.862633360840142,-20.33314503877877,-28.51600383853004,-33.83947151305212,-23.900102317712868,-2.0779509624715526,21.693027654756666,36.61910779480308,32.94286278459848,19.796193046872673,9.069712680093737,-8.155516465136408,-36.397829477155,-58.78788696224966,-61.12275063804158,-54.78008165879804,-59.32338812683671,-63.42944395284992,-55.0843073170399,-54.14793879330537,-28.750525260419185,93.77980197460771,272.3244971989911,374.2605270887304,294.82012618111446,11.722456340383076,-278.0301806990891,-287.2174273129836,-100.14492694828138,-36.580487648232264,-84.8565492866575,-59.69893486025754,-13.567626718915356,-24.178607799415275,-21.07857325343695,5.565274746261721,7.032917992804904,3.1030954805617412,11.422493998016037,7.950768641430674,-12.052581762437534,-27.73986701546114,-24.66262646319327,-15.91008227018552,-22.26080251179782,-34.37554051666341,-35.30591743707135,-29.500357728834445,-23.963949858316983,-22.99270854270904,-26.909779058858163,-20.516741862143732,2.5232093302590464,26.108395324026517,41.10853234731351,50.80358505483386,56.06176909549157,58.39182334402036,57.70365358680377,48.259612191254874,29.292682862895813,7.212598609399692,-13.871911134877738,-34.498178658747406,-51.9608845879516,-57.184466292730875,-50.25477246136023,-44.666384606215125,-42.517143095910825,-34.05228060499258,-22.642230870066925,-15.286632482835344,-7.321978232570146,1.0242271765086315,4.103449282924867,5.383918990198342,6.204947302979097,1.3942355979231316,-4.43861710949793,-4.428506415168229,-5.396400368432502,-12.052508994515886,-14.992317682459365,-10.751524840417881,-8.20520564193264,-9.590360221296812,-11.25368094463693,-14.675767970431668,-17.670137603816244,-14.177022200683435,-8.101977242341903,-7.494735467929413,-10.811739550101064,-10.79483022062399,-6.911020460741501,-4.766642750685808,-2.697691055661366,-1.4509996645743968,-17.840977877696186,-46.10622398269711,-46.14045517014056,-12.096058391326018,18.671024832893593,30.48774017665059,29.566777614333866,18.26836630955741,6.213743861773402,-2.920851664774938,-20.836424097402755,-44.675680285761274,-57.89522785062446,-58.99534471730216,-57.52001986903779,-53.60458326427503,-49.16960960992009,-60.9709998423472,-68.45719078561547,2.816662097334067,167.52299104331252,327.22103303959585,346.81753679182856,139.52174869948254,-179.48677199213458,-301.6002949837375,-152.09359223397396,-20.398627652922045,-44.02723200360579,-61.04532287094749,-22.507313075621973,-15.027369107351262,-19.110224948520205,-1.479361656336664,1.881619906624163,-6.712723713159161,-5.7831887278002405,-6.71997768827406,-8.189507706722651,-4.260140496735076,-6.441554436432238,-13.293864812132108,-18.66424095314487,-26.949079084730318,-31.705354752672715,-26.16896196682314,-21.649462669929033,-22.971056676312145,-19.520598949136957,-8.418524699470542,6.039166248888424,24.855833695471418,44.24166858899158,54.6884130726023,57.48795363832588,58.17623742591401,53.8345862063361,43.78323896209108,30.32498917972358,9.957277538266696,-14.510583147006152,-31.492462191435386,-37.79179543065118,-38.71023792954671,-38.99583617594065,-38.98033466411752,-33.15756117049416,-21.00196751619938,-7.754286087684273,5.9352451953977035,9.797770861825025,-8.069446194522577,-25.300001053113178,-19.929584053585984,-13.17894449424675,-18.400158682774972,-19.84239286859754,-18.925022092742537,-19.99808498449456,-10.628384788709894,1.243807924319622,1.8606449903047988,2.242123085175301,1.0191760875795275,-14.259320562808195,-25.73133924470593,-18.432448538243484,-11.575946563747664,-15.63402838174984,-17.83778614831764,-14.680476207401764,-13.08440376548684,-12.564937769542514,-9.395075178485996,-7.289048632670475,-11.6373789218238,-17.019303942608637,-15.426323836937094,-12.608825721455759,-16.6319970767736,-21.621888909153572,-18.15655763794391,-3.6538102437871496,19.013789257129442,38.81717062261803,42.3293794274484,27.995207303248765,4.860375302464711,-16.873119312707203,-31.021236888001447,-39.62688976981789,-46.868492685823895,-52.41845549090429,-57.55632125235754,-60.78075399026578,-57.87624339558373,-56.9422975585169,-46.96090233658094,27.584593487288615,186.38696826179853,341.8757204642677,342.31997531807065,104.08507947970416,-213.5917321554031,-300.9301416171485,-134.8866496674215,-14.675046425037017,-42.18737198674036,-48.60756326623377,-6.741517897043352,-8.060140472177594,-20.379254141005706,-4.572428164861288,1.3453316241121875,-0.8736341965631276,5.750327117709807,2.6722474939195866,-5.565187700150066,-5.265217516274088,-7.8239865708029654,-13.972374315888759,-16.20718623067259,-19.305517736283978,-22.35069254678782,-17.71865296841428,-5.932476025049668,2.0617712548569926,-2.159770188233,-6.278774214755548,0.5975382729988277,5.354748280727337,7.296185624240936,22.353862743097366,40.70905054433226,45.6573734491723,44.518056595093086,42.6171139755111,33.48286088425137,16.145700150887862,-5.2505468416780605,-23.77270416283356,-33.20185612266847,-36.11284767092316,-37.515448745009714,-37.71211967843615,-36.24433592620549,-35.397960982596544,-36.24409242812288,-32.095381705726794,-20.66351490791396,-14.336629010132192,-15.05259353313151,-10.786297065143557,-6.209002717027406,-8.284021167439864,-5.5928316668731135,1.7701374444745408,1.4119121814855724,-2.153618536888043,-1.6952500763077367,-1.3800758901277597,-3.1999458922732416,-7.166470812538693,-11.88699098031055,-12.243098431094321,-9.858803182651958,-8.675759938239889,-6.8200375199986265,-6.047016793755418,-9.160259713263379,-12.845308008430724,-14.042596328356234,-12.834295546651784,-15.671342068160111,-27.0453867258267,-30.29458736353459,-10.4835336494685,17.53139769333962,35.52312763628457,38.80440457776693,27.487937246853868,12.541868609913376,-0.793600545760274,-24.496089901009334,-50.3630102383342,-56.15436972809573,-52.25596803149132,-57.94436300916898,-61.652792559062654,-53.39706946249999,-50.61923921120051,-45.48755525689198,26.80845768259372,198.97007273538551,380.65088774257623,401.26309817760415,153.7134804373395,-222.18199446697125,-379.4646237989767,-212.03064794635395,-32.092623749943634,-40.58983053178509,-70.91998033338308,-28.25363046564486,-13.467285093129213,-23.298411907240546,-0.6238114854157999,11.217342034966329,-3.4340452831789428,-5.167850570943239,-1.5846940012431006,-5.864633568647957,-4.606631392620315,-4.645709504292757,-14.170112143303815,-21.784076283840857,-24.44428552758591,-26.49913909603788,-27.333305133700843,-26.57099734125503,-23.24460551933845,-17.045461938863703,-7.984554567002689,10.235486094003093,36.89468053994034,53.96680618653919,52.744989517097096,49.872909949935284,57.66473914130016,63.894656245023526,54.99489939777297,34.38460311561443,9.798109630943369,-15.473904864986913,-35.75549084533462,-43.93729691222552,-41.941255918931866,-40.62065191261809,-43.32389559766995,-40.67754144684565,-31.090307159846684,-24.06991764164152,-18.850009380007677,-12.18252522840055,-12.250707619550944,-16.025736841909204,-11.19344623928911,-6.48548458612083,-11.772772275898152,-13.525131594378385,-6.455620188798701,-3.5834818637101193,-4.7230538703118015,-1.0706512449754158,1.9691402737743715,-1.3595365733385592,-4.33246825073094,-4.619985123250448,-6.174319776568838,-3.5123516294613033,2.046892176021686,-8.20746129905303,-27.674559889288375,-25.942035243658157,-13.066119380744482,-17.32538814554017,-22.86071834042015,-13.440050598831334,-5.058367765335376,2.4268595806743285,15.95588190410463,19.530279529279362,8.46305661845581,-7.897884556503001,-28.63427804974231,-45.42108009065505,-48.83868891363095,-46.805972452916265,-50.38135477595273,-61.51264648299997,-69.79323311206038,-69.25521360491005,-63.28174927559906,-12.794002561197772,131.80623929338614,313.32710617479194,386.04408144204365,233.11166978273752,-98.37004454392384,-322.8048390700445,-232.02289663624018,-43.18187944916289,-25.119805015495174,-69.492081174932,-31.79544067942321,-0.6888968885328239,-15.565203586710439,-11.72446153614893,-2.209374445096561,-8.183213698929737,-2.7355845278106408,4.8829023130915346,-1.94765962763908,-8.657149601796842,-13.011321336217392,-18.472430315576066,-17.613183689004863,-15.07138216217574,-19.817119436533382,-26.137337767313173,-26.323819349368904,-24.486585370745757,-24.663941595013494,-16.35444555967448,5.372328105592931,24.691957144658904,36.44781138351783,52.00826268457767,65.92412624514293,67.06525786578575,61.099994297989,50.23512723797994,31.127536537611864,11.835481730187556,-2.1953504513801976,-16.104563987180775,-32.5519522895563,-50.84620635581035,-64.57723191657428,-61.86726463381623,-45.51523882518667,-31.4266705176483,-24.612751644730846,-21.45585468395688,-19.66794105699277,-14.080730546724752,-5.103421895343448,-2.376659535929857,-4.507508400513423,-1.1525845193179087,5.268850932446314,11.034341014449161,20.18567124135192,18.42179209166491,-11.253408330688355,-41.86758887463483,-39.974414400053405,-24.63031627009651,-22.863568355746036,-23.457961989319802,-18.347630364132726,-18.695746728516365,-20.92543537441997,-15.380776321481182,-8.903155448278959,-9.347153636967363,-14.729989469704151,-19.489849940160973,-18.42906211994477,-15.564111781080783,-20.427094904785278,-27.713447625774602,-22.879567591596647,-4.138476007659367,19.67943794453376,37.18782220230159,37.411822857198246,22.3603266087466,4.107405181522033,-13.413027953408893,-29.95224218840556,-40.61386685795877,-44.389590998031,-46.32056544890385,-52.49093270814812,-62.634985764158344,-70.21297712429498,-75.04722681740034,-60.37937296941104,23.444951578891676,184.4315988112528,337.04826338267316,348.50133844102345,133.19907480117737,-182.81149182829577,-294.8897399199946,-143.7276416322619,-18.120101415612528,-43.59810686808644,-54.22236188559031,-9.003142088913009,-2.288941130304522,-12.415819692000575,-5.916400929294788,-17.603362673234617,-27.395738421468806,-10.52119636281324,-5.553670421979099,-16.828985900298736,-16.02180314325018,-13.546534846610133,-18.858194977799023,-19.41552698867425,-17.590159240395423,-19.757986483790873,-20.158087716993872,-15.708024406637243,-10.596641191332804,-7.901005900668933,-0.0940341387324013,18.117274730364354,32.038789659749966,37.01237842601571,48.46301946999752,56.62509388372418,44.20538611345588,31.50051184550071,30.885608333717705,20.846398310525927,-0.48237725112269647,-15.03215807528129,-24.792109161250444,-36.74087342353189,-43.433179929656546,-40.33782551812603,-35.525458362417695,-35.4842670600267,-33.917436981028736,-26.836895080716147,-23.487808446932334,-24.764074158353008,-20.42042245522908,-12.478044797177123,-7.190473672441286,-1.922334805544768,1.8739451100541693,1.607732513345562,2.5402583296504933,5.129312080888978,3.4356331479011253,-2.9948981883011925,-9.407073216522287,-11.752033281386286,-11.752432917033099,-14.00928309125596,-15.202880541429959,-11.086209973649508,-8.325420088270274,-11.094055087300639,-12.562154303566953,-9.29159470434433,-5.287874007147078,-3.700849236563318,-5.429557280855606,-9.186654239768183,-11.659181766234756,-11.240926659675829,-10.399576655557166,-14.922018918558656,-24.134390803508367,-22.035113431929883,1.5212589815098925,26.879262150474432,31.44587337411351,22.629748460952506,13.34085165858442,-2.3747436162302975,-24.967112983411777,-40.53256617036173,-43.87988275499795,-41.54666527512359,-44.27491354055496,-57.65873706181182,-68.90321717913935,-70.12948617430007,-64.0622418784613,-14.30353461878235,119.04994413912078,283.70861146244835,355.3175105887947,225.77047485107735,-70.31167767416144,-274.45338396191994,-197.04803185557594,-36.914290038611945,-36.28167392041137,-87.0022161686881,-49.601263753270686,-13.611378585988561,-24.962953274688893,-17.790903874284673,-3.284909862920294,-9.775397868498636,-6.563230681814186,3.4339142030228604,-2.9552412015926635,-10.7412316422194,-12.889825643004638,-17.625119784669774,-16.543630000196007,-10.280941410587097,-12.68183239512127,-19.391768547636662,-21.415849320173038,-22.83384325694811,-20.867016918114572,-8.243596612452652,4.811423881202488,8.95273693448621,16.504479876749187,34.35250386689655,48.605942471991284,53.00704900063386,55.66294280403586,54.80929901806556,42.08695931390368,23.882296908383474,11.000219075151096,-1.9064460334075335,-20.796220217986857,-34.34059482063555,-35.61755949243857,-33.42158418131393,-31.764656481328647,-33.278925335634675,-44.35239784784784,-51.49690384283495,-39.364203966195475,-23.989899736565455,-16.3931262377305,-4.862431629105522,2.41406644432913,-6.691345903004816,-11.567678480733193,-0.6049210792000821,6.907788834301426,1.5799882612516072,-8.8756452833724,-15.982146421113583,-12.962805106289954,-6.4018893682154605,-7.270125389133227,-8.834695548314041,-6.546819208294597,-9.446599783317982,-14.648362257821088,-12.01844581310828,-4.9243160870853036,-1.9384390874528599,-7.036448493239314,-16.15462301738325,-18.4539089578046,-12.750943653206397,-8.493810656725696,-11.353984595434529,-22.176772281821478,-31.784884642002755,-22.970089377918473,3.7992087091324107,29.987608010492846,41.721383912422795,34.43319334294502,15.772761912639421,1.256699182013258,-6.698793889145267,-16.4105402488517,-29.979507802000644,-43.043082360820186,-51.72686897856488,-57.50676213004131,-58.017634068474784,-49.370369469658485,-47.27815477989583,-39.57281396982597,51.99771425543325,243.39049546025544,384.72962951172946,290.5590696479512,-36.109935896911665,-322.44624840370216,-299.63748675278606,-89.28060423676591,-4.288593497493579,-42.95032163965486,-28.99795318854028,5.602680225281901,-9.801222924196058,-9.574425765281777,16.338641069835198,10.654641748188169,-9.879830458907533,-14.845207668868362,-15.073048694366694,-12.328754016125409,-8.024818049756956,-12.151375728170906,-18.23106616778556,-19.31159404712586,-19.13773759668839,-20.214443006599865,-25.11962630334926,-29.840529457605733,-24.5861612920944,-13.19332376232867,-2.888720741726822,11.917210809341128,31.173484554956207,43.94252064756944,48.86070598619004,52.59895962953179,55.35477836118631,54.09616983734856,47.64045011657299,32.91611266788257,9.075207725873874,-15.45180909489133,-32.14789362525096,-41.995780269582994,-45.81032127913204,-41.43548775347714,-36.70480023085491,-39.68915979850652,-39.96800416465821,-29.158908517667637,-20.648250454519285,-21.804926460369444,-19.799702341759463,-11.54418602139522,-7.033895982528758,-2.925694783346886,7.339786512617607,13.727200043633413,9.262920749466598,2.9029841131441465,2.2542093700952996,6.959132694443619,9.535681749284182,-2.6091375151105503,-24.553531434783636,-33.02336141457111,-25.19950542388579,-20.308810408203076,-22.220856353830115,-21.078522213370757,-17.765736772632867,-17.657722477984848,-18.06954357623637,-16.541271580558988,-17.385341875464487,-22.154010317195194,-22.053005014189853,-7.026347764655714,19.353745313790593,40.017380793190604,43.22710859343973,31.778270704924804,8.816387126115387,-21.135638843255776,-40.76175080333431,-44.37260685545699,-47.87982293814549,-54.48753474960138,-56.833146725761864,-58.73607038662681,-63.47601869435154,-71.91723188119317,-62.929118434562724,23.845480127187145,198.30233866455382,358.0535638350091,360.37793291870946,125.02132300909696,-211.5784503670474,-325.6710414480954,-154.80142731866425,-16.84448223286124,-48.030398570096835,-60.76260447783169,-11.16941244609118,-7.01408748182763,-20.226044941272505,-4.700281045232998,-0.8789008188239862,-5.736601923003866,1.5019845125014246,-1.1344053539738113,-10.316998931260198,-9.59080253066034,-11.262740533892515,-17.60805718610795,-20.263260373478772,-23.45165655845251,-26.523720450812434,-25.06715812753155,-21.349650937549406,-15.726685151288132,-9.41329353046418,-3.030607089296505,11.114542368704981,33.327263437122895,49.45930341171298,52.87676038328607,53.88117571399516,60.69243900892867,64.98207940568669,57.56730457187294,41.865759996331704,15.89530124932429,-23.863314695263842,-54.64624215295805,-57.11359529441377,-51.341631800876726,-52.92697216178365,-47.8425112028126,-36.40400412216836,-32.829864028392585,-29.12060055594588,-17.54779038025114,-12.440988482450877,-14.844539172700522,-8.53817506580948,-1.778420817931977,-11.610559263593657,-20.601121121758382,-12.256752394522465,-6.739078441922814,-10.96579940412989,-4.91458937866469,3.4760072872813694,-5.900377824357385,-17.055363320313614,-13.723365132611583,-10.077884464109179,-13.344696621734563,-13.97441112754115,-12.380345293030175,-15.076872461916693,-18.70862129381272,-17.27521236185129,-13.79852297268064,-14.10047524841097,-16.256398521069375,-18.848968944282362,-26.08127201724804,-31.489598240155043,-20.774512893667254,4.028113211629269,26.637967840482546,35.29736206753725,29.418386429310793,17.50802503506604,5.727387291834797,-8.695887740480277,-27.205307346155333,-44.689760136898165,-53.81984554574393,-54.085562736534996,-55.35162884782201,-57.808904443275836,-56.27489171726734,-62.25742760170666,-54.708672750908036,32.73802958223486,200.71130748433816,347.46066534822387,338.7284136087866,100.20586536601131,-211.95309058218788,-288.18951130392884,-121.4074927626108,-17.040393269036052,-52.58033566168535,-54.339565899027754,-10.967884820587969,-9.868506995473908,-12.980149528995698,11.245594978444593,13.720773698321825,-11.722932566681003,-27.054513591932015,-22.771414538226615,-13.064432196306225,-9.325889957628117,-12.238358539449699,-16.45233111839015,-17.187324144927832,-14.080000625958881,-16.799678736361244,-29.15625613931566,-34.821360783411734,-25.394412406819754,-14.20795169211431,-8.84010290335668,-2.4725947243210475,10.289022690350365,25.644551035971812,35.43830238768266,40.3453189986061,48.51279636021768,56.30970593254182,50.45439820933922,29.76803151688711,6.562886254367978,-10.146175548913869,-20.825134861842827,-28.398921202942823,-34.70252101506092,-41.60368179602963,-47.785750408001824,-48.52528185172132,-42.12288666272175,-32.135025566756795,-24.50834123662998,-21.669767827711908,-19.230128554572474,-13.993876870487107,-7.012723476280929,1.2427850956877862,4.972849970675188,-1.310930947383202,-6.646882787870636,-1.970159513657375,3.3491684712390946,4.169895647732442,2.313182063466286,-6.598765617816056,-16.644533346817155,-15.169060888407405,-8.421113752711015,-6.779272889903254,-7.769757107270795,-10.708665776378183,-16.055447319594805,-17.229076497714033,-12.094725175052062,-7.2283426258179375,-8.839854461075959,-16.49854766089763,-22.995604836232186,-23.005536093443286,-19.18239140750865,-17.590573295434258,-20.60914142767119,-19.497850197815964,-1.8031558617497057,26.256014062899194,44.28277272491663,44.28685278145598,33.6079584166293,21.32880790054363,10.0943310552185,-4.624443915432151,-22.566715501462568,-37.011707167696414,-51.66888277714935,-70.09938923993539,-78.12096146722192,-73.15089246682565,-69.220756577453,-44.90697664987461,44.26813705706919,192.6651058232504,320.75223497689177,290.84326513895957,31.735504091371254,-259.6469680605294,-287.06375870789054,-106.2415563279838,-16.712772635849603,-51.05909933885665,-43.97773501790515,-4.936511624192079,-10.244412018264072,-17.352193009034792,-1.4323494219856912,2.424349722001441,0.021208939030287866,3.7109276344627204,-1.8446596332743361,-11.042828956871055,-10.741538261843278,-8.539659559138075,-9.54391862755067,-11.96258665705328,-16.87796390532413,-21.164764355778672,-21.217434790787287,-20.07988082483638,-20.411902037108515,-19.930034013478608,-13.707720466454845,1.266575610009723,20.45823775406702,35.78007571747884,45.93806515996792,54.503204142918946,60.33476713775684,59.23181294162107,51.743610161919925,40.67651969459763,24.46433450537863,1.5151782772949138,-22.71889439147782,-40.77796853336717,-50.86355590041606,-54.83600818373995,-53.87696020602207,-48.28529639426806,-39.70230998372003,-31.55415978361501,-23.71473939908149,-13.847109523346177,-6.699705488837299,-5.544051652375288,-2.1643298880245005,6.730879794739877,14.46730947056476,17.668242349915964,12.583023996073369,0.3567848229977564,-5.03217787152531,-3.3217313507557407,-6.31329843369444,-7.619232477086097,-7.143866941943312,-20.243612744154632,-33.63104777766877,-28.631306506296205,-22.72098416398174,-24.94106702949458,-20.653311007616274,-14.246331923737856,-14.490946043481536,-12.200411423493474,-7.837249630658363,-11.54281729102022,-20.91429858980039,-27.75266535332522,-24.82083377558118,-6.738044247093404,18.4904942509256,33.02723188760718,31.124782437569472,22.124427995679795,10.109368219632108,-8.48629830321212,-28.08283734380345,-40.006216035805394,-45.40092620527213,-49.02644349253464,-54.05663214322663,-55.44590543221349,-50.95766610414718,-57.85013502569579,-50.964372575890884,54.27990568963459,252.89277554311832,395.6575823718772,327.23919396976146,22.481945266628095,-302.8485261510181,-335.3390348808029,-118.81686397666574,-2.2833924824790444,-45.38910603532912,-43.16284217638642,2.5348013625042825,-4.745628478385964,-10.94086802803834,8.855045664806266,3.3821299187242744,-9.206042523915487,-2.9459248685955854,-1.2594866235028057,-5.318277425795724,-4.7532423545979,-7.6747190001836145,-13.559280507367042,-16.72221614029066,-17.126896965842214,-15.012735007652768,-12.911640736934148,-7.234325744716708,2.7810930398244578,-0.6706274973670157,-17.298247933764635,-15.563546635847306,10.361740187361269,32.09489288371621,39.798903419905415,46.85313800774209,57.77958828789505,64.60584011650118,58.9274507496073,39.559474989160464,15.439782087805828,-3.185430156638949,-14.698147787949392,-21.879032725355984,-27.22547327093069,-38.19942693735487,-59.21710100956854,-73.71195753373905,-63.9106239322809,-44.31474702191038,-36.73274202097938,-34.641222683936334,-26.865702258274485,-16.945624833396423,-6.3279823298034295,1.9949647577353709,0.8544609059727684,-1.8243610414790439,2.6358284283390923,5.207545491305581,4.367912674289116,6.950953133338176,2.7663313791495376,-12.006551367288218,-18.134968093712146,-12.422724770708008,-10.677576042924755,-11.00552769385483,-7.3211974889087195,-10.28560098642826,-19.76494459089065,-21.368466007796833,-18.01305280329652,-21.14783342055709,-26.29010172094246,-24.6229812386703,-12.674385482359135,10.594113325371083,33.21117349467215,38.118677397057496,27.214478924886293,9.618806729428073,-12.99313562889812,-32.351537085162676,-40.625942851111645,-45.14366885538043,-52.242353683977726,-59.49384882078628,-61.21376585783877,-54.66478018650194,-51.785131858961094,-40.14436818935749,46.42057360098954,223.59768401646193,377.08820416229867,350.5572252693238,86.66382339247585,-245.16187610335706,-338.4900998086809,-161.7412912065559,-22.005613785432715,-45.323952000698185,-56.00209812661162,-8.581843882370507,-6.742542632602039,-25.185136198028943,-8.359460791107578,2.9050016058534744,-1.6395774930237437,4.306847787644294,3.274274035318985,-10.285083833458724,-13.258384699345324,-10.472214488354846,-12.646074469472405,-13.236998782285541,-16.397498351236145,-25.19930241327925,-26.42418796996901,-16.559053652968746,-3.916443079895867,4.317381080846077,0.8245839669026243,-4.223115831431695,12.843648985622204,44.00529544161019,58.03588933649408,51.262652264221074,42.76068497211685,40.952045259380924,38.83089874216522,27.112579866464095,7.889041109002593,-11.98849681688394,-33.54712869036614,-51.664384935757184,-54.83853778702553,-47.81138456132216,-40.42825172519387,-32.36276466211477,-27.369428878478665,-27.283601302289874,-21.79094114933747,-11.32941519032481,-8.924311267764772,-14.066065716002928,-16.43588849529205,-13.946331957047494,-9.394211393719264,-3.891262559889899,0.7410940968479878,1.749854173111327,-0.20844071227933014,-1.1328974096357207,0.2063172539473861,2.852151647703325,6.786882079028235,7.265839164395068,-0.3694226237625742,-9.368963554387005,-14.814214795523213,-22.63770333707285,-30.496717137414056,-29.31559298234063,-24.580412486895646,-25.34193019816562,-26.006495517698546,-20.90986365786316,-18.16854949499251,-24.786151022249776,-30.39165015145412,-18.56814006767385,9.237101054901672,33.115606201526425,37.146410804793945,23.940956523939903,7.030878755041728,-6.226915564952236,-19.10051990554502,-34.529309688528514,-47.6605124445257,-53.407325923851815,-57.11834172916883,-62.33943083190297,-60.062691935608974,-55.95118231733902,-55.98047736709547,-9.27458524290747,129.74430513641482,299.0210622502368,369.06854432252373,229.9678345149511,-83.65226944272189,-299.1230754734331,-216.44666791150243,-40.933806199478646,-17.665846499892147,-49.605781270947716,-22.890209538462443,-16.674475487022754,-38.90214757544387,-21.622471975431537,4.768754809891551,2.600969706113915,-9.199335092488113,-23.966886035310047,-32.38684995436157,-24.432006479106054,-20.573237225603307,-24.67596622835302,-22.852614453024735,-25.22566684246213,-32.62432020846681,-28.142594585247117,-19.094849513065498,-17.249890355845945,-13.498870255604126,-3.4356114261344617,9.822336585797212,26.528335224760145,40.95002700445927,50.21231111479693,58.63183317860944,60.26870429163465,54.00439266690589,51.67389153104416,42.500493972263854,10.229532990275104,-21.577678707285088,-32.10181165690547,-39.979398116990296,-52.09409081490038,-51.80583361583814,-42.02318670598758,-35.896404765682576,-32.5090046350863,-29.042706150351975,-25.778698672787712,-22.972894422028233,-21.74195795715899,-18.301125888241998,-11.582812453643225,-8.707779735129016,-7.586664181053376,-2.629830822958926,-1.1916539175637553,-4.3710124037300915,-2.8956440015032108,0.23794221157467277,-0.32983680983547714,-0.6035516073519425,-1.4246819591445483,-3.433658070785068,-2.1233341151798726,-2.3152208027483177,-8.467153552377155,-13.261344224111518,-12.89209689165197,-9.539348915558152,-5.762793898591195,-4.853812926211159,-3.040619336785454,-1.5283861956018399,-14.383354880143443,-32.28740504132007,-30.144987704824835,-19.508109849205574,-21.94683331274434,-26.357984985134564,-24.845932095089502,-25.057681543447245,-19.651243074096193,-0.9887041474571046,20.36750625620666,32.173004323921255,29.606955718476847,18.215225451570497,8.212473770450483,-3.626416426703786,-24.074035595154907,-43.76213897202001,-50.72889168470135,-49.875363183556985,-53.2455901975044,-55.784280516429206,-50.15474700137395,-51.96125389690301,-43.65702006289723,44.64674139821281,213.54074539080642,350.0953591955651,320.80171745748385,70.55640523877207,-236.19765262756067,-298.0035692205729,-118.14620206685878,-12.205047971428506,-54.90752134656849,-58.37905926345245,-12.403930588656152,-13.000281817793226,-20.537571729469846,-3.0198939019454407,-1.0224797013563958,-6.532506320405707,-0.9156121265981465,-0.908046027099914,-4.0019821393351975,-3.8990163800156203,-11.021081082859828,-19.230457020375773,-18.511079831330655,-15.421068660163943,-15.059220506717974,-17.68069452551414,-22.844693393661597,-24.9777872263005,-18.764840300856907,-4.044064777686724,12.815765697397142,22.436883407744062,27.089876736089934,36.070903351886756,47.61421177367974,57.94920726171027,66.82861026836986,64.02548344447202,45.43189364557828,26.777347747360267,13.178108906343855,-3.770472557603961,-18.8826400475777,-32.53286019099128,-57.771682954038454,-78.56898632258932,-69.49921923603239,-48.12724020492499,-39.62649445330288,-36.17433762755737,-29.400086118893284,-22.715393829561098,-12.978211207138894,-1.67662970825846,1.8585012101128484,-1.4592635092641117,-3.564828291081337,-1.2232680111281642,3.0107477195231596,4.654451364195715,3.432666393273397,0.8550776814043495,-3.5973891774146978,-5.834089855600151,-2.2221189121064437,1.680004000287738,2.6700065903559462,1.5503854120879481,-7.026129285213251,-20.7459191782195,-23.855248205082475,-14.065911864526736,-7.684659260042274,-12.714684635077305,-21.262834278235,-24.2346607592983,-20.26977468563782,-15.792158491835579,-17.133995278310994,-19.349594500904246,-10.332277778233433,10.815447590712454,30.097954615422392,36.3080473496731,29.020638682470643,10.92791761393819,-11.104888755307835,-28.128744124351797,-39.87623461542613,-46.018475601085214,-45.13966037501885,-48.4803279178402,-55.88120733323568,-54.451047180650896,-56.368908189286735,-44.68761394631592,57.887207201233096,248.78379533048187,387.60746284415745,323.65885335651035,28.765793781875402,-288.202309194841,-322.5327835112624,-117.51264393161219,-9.34914827707967,-52.54479868199747,-46.226167059613715,5.741888042921417,-1.410429595174083,-16.820687506708786,1.828884581843779,7.4101808430730856,0.2838157762479714,5.930956706315793,8.186486400650937,-0.6448027347355314,-6.066979445379108,-6.0983470473999475,-4.857179326030236,-2.5728344158536274,-9.431014563592413,-31.96334727791856,-46.62525433746352,-35.92930375272094,-23.324510615387023,-21.307877575723808,-11.114072066316712,5.307967841799437,17.5261060812339,37.47359101998555,61.441813284765594,72.47776442732501,76.37001085428236,71.92802350392381,45.5435158145538,15.757199117772558,5.8077244795207825,-1.9938379960715622,-26.159205571325092,-50.70198310707706,-59.06711642561995,-57.25237028114762,-54.45705766150406,-50.77483426934404,-45.40766165585055,-40.06735163515982,-33.631204443026725,-23.606705157206342,-12.703951296787139,-6.2988721363792735,-4.502520469325116,-3.1875066462542705,-0.31160736879724027,4.222418705197562,8.965695875054767,9.103878187083328,4.63709446511673,3.02695571914124,2.543345089813343,-5.721148184295981,-15.010429162883279,-13.927112680358427,-10.820434965166802,-14.957303406189585,-17.32401766703112,-13.28277830574038,-11.713304742023997,-13.72427275371204,-15.73839831077635,-22.92630809933783,-31.318162332138485,-23.80203087230441,-0.23783705310660075,21.66613952299994,32.391048607610415,30.409716759442045,16.04112317459297,-1.7204702302667254,-15.389246443580612,-30.289373608418856,-47.178033320776514,-54.9468819151601,-54.8392911517774,-58.527210063969946,-60.95637316282634,-59.63993763323046,-61.4114377383524,-22.41517587004381,118.63644551331215,313.4218465338404,411.96234413576656,283.02234669024807,-50.59842044940294,-317.46052177329585,-261.18472806811167,-46.84349924744354,2.0968631872103387,-64.70689702457902,-50.54952729161618,-14.676508873407535,-38.33721440295116,-42.229325379309714,-12.69741983337768,-10.5648679767422,-16.938980574651108,-7.675492531330935,-7.86086426971816,-14.222730876580457,-12.264469533215024,-14.904379117637607,-22.534355506834856,-23.428033146784188,-22.006395691589645,-22.690567095489328,-23.070810102159733,-23.182995648387752,-17.430028800882138,-1.256829836995756,14.815876882453397,23.160742630850883,33.70879916852002,51.735255693209815,62.6592013928703,57.869649639758904,52.6855217622104,54.059359264176024,43.88034577428484,18.678496646911135,-3.4555696660210273,-20.799063581664573,-38.118175721096854,-45.48819596910544,-43.75303001119537,-44.4369972842775,-43.59489821883433,-36.65906397866766,-32.428028962120464,-34.31954651816503,-34.372481103250436,-26.689468398994876,-16.556518422863455,-11.785741005566464,-8.76923634325609,-4.366361397822768,-4.272039345060676,-4.343633484739037,1.8783330261120632,5.257218565758656,2.3242149899888247,0.9585213783068909,-0.9396498313475767,-5.130746828480602,-3.778013882141007,0.3509206894906036,-4.557363894483785,