ECG,-2.8133636789263727,-12.122930315360971,-25.300217143113066,-45.44283646127449,-58.92138831778861,-55.8933703261127,-49.788101858923284,-52.87871748598338,-63.00035995046087,-75.69060650944326,-85.48548168611028,-68.44937440482602,23.6094740031337,211.0984956902886,401.06500446997364,390.975865423655,86.22766817954445,-259.8369327903734,-294.45912181646554,-93.17214350034105,-5.898104550577404,-57.39534471177874,-49.47013110541179,-2.8988601756682897,-8.59336099501957,-13.520997071047503,0.1963894813845375,-9.902957284099514,-17.523373866907818,-5.220144339839037,-4.760513545044077,-10.22170161163277,-5.65893793539124,-7.7809217745320325,-15.862567525394127,-13.712839003332558,-8.843837523819621,-11.946043141424123,-17.12234186516273,-19.1546459597283,-18.493458033798227,-12.879111143917113,-2.2565801631885365,7.629184224651677,15.393714967711045,23.96637792439151,30.687582709101974,34.331251548348924,40.43922598528766,47.47369407049416,47.127031254223226,37.81811270630497,21.91098664143965,2.796135443231531,-12.642890586013884,-22.863893605629077,-31.418059397831694,-35.52556864683436,-31.799249936304577,-24.708331717757755,-20.494338951411052,-21.3309296446052,-23.123651790351687,-20.239745359497167,-15.049039190372003,-12.144611332182524,-10.578866934141619,-10.21853094019995,-10.815988485136508,-8.372609363523676,-2.625164774486187,2.2596211709623066,3.195295920544009,1.2546141662804438,1.9750535968748828,4.553267487879475,3.535232176275449,3.8247627706045417,3.6739172339324284,-10.709482361852977,-27.366948847642725,-24.08468249285661,-14.011838197626489,-12.846425096265092,-11.272201338223653,-9.862812374550142,-13.104027305055194,-9.357556892823908,-0.7711685939032211,0.9917947186459415,2.769660889293295,3.627755265941275,-9.892204462846871,-25.394900777335767,-24.659358667559744,-20.634220468278116,-25.06520810336031,-22.838049486967744,-4.1919624100977355,19.011802845799053,32.969258890476844,33.64161436689011,25.522743804873116,13.116623958410372,-6.003508097828185,-28.434852271053902,-41.63214411975231,-45.922453158854104,-52.33770613472774,-60.20259458894777,-62.62951320269042,-61.28201731043609,-62.19196852932303,-53.97854285491988,15.903179974602836,195.76371473837514,402.9546649016199,407.74290862216196,96.41563812229317,-270.3187523886031,-323.46243321150496,-114.61136225907967,2.882602746232319,-40.43300748437367,-52.28542084477416,-13.49628949910361,-15.001650572054253,-21.656064624728835,-0.11483218766056957,4.668820297362631,-5.505873843465464,-3.7772399751761228,-4.248806422578022,-8.141771352830727,-2.4710268252349916,0.7957913017460445,-1.964402358900486,0.860246763490796,-0.46162246792651196,-15.289209705087112,-24.974128689298,-19.59238773694345,-16.227124449088137,-19.725429406979092,-14.585448430593392,-0.5182065040144876,10.108224473190589,18.893408307960613,30.818378638384893,42.65607349712498,54.79735588040042,66.18149376724291,70.11953592867658,66.70030279481557,52.105928784522455,17.52611014515747,-21.489051080888466,-44.03260535050638,-59.599621531402065,-74.06966876349414,-72.51539767305337,-60.52328782476404,-52.997246753129936,-40.123128618555675,-20.03459896549642,-12.083249972268668,-14.337277828658184,-9.628384758463568,-3.2598153263474394,-4.8346552091867,-4.467008079120266,1.80186342538083,1.5071813585282463,-5.4885059047675835,-4.9227075630097215,3.2337974686445996,5.7602781190914225,1.054455630760728,-2.3580674978666814,-4.177086083896192,-7.702576194451533,-7.837086505612259,-2.9854819359318974,-2.2462306807056844,-7.3810784728852745,-9.79286972952784,-6.374208912191543,-0.8099156200464073,-0.5894980357280772,-10.52998428468025,-18.59085160853995,-14.412208730771484,-11.971352482355478,-18.759328117316265,-21.177555785241648,-17.514461469839986,-11.667610489486943,6.766288562896582,32.4464176411023,41.499501715998974,31.01725364614466,12.495516024810458,-10.78489242632557,-31.277050139929976,-41.039870178974965,-45.90126826310755,-50.661483272267,-55.64715831462484,-61.689740704076954,-60.52548030773063,-53.3293063541581,-47.024956016948494,10.849998319564989,192.94492513167864,422.6286375433478,451.11119537904017,130.78907310468912,-296.6687768906438,-406.13131382969175,-174.296262623082,7.96862006689155,-13.660194527539847,-34.92986774932203,7.243258141295357,3.5258581827194604,-23.71675671839072,-14.598128124334357,-6.941144166800264,-11.313639273204345,-3.9154020376847622,-3.3382824651462677,-14.352839931534053,-13.989443870424825,-8.664946080211694,-12.278909362665878,-16.15413372570328,-16.055749527990663,-18.92296313473096,-22.73152399228277,-18.7726336055513,-8.08267301826643,-0.6394340641165055,0.6058683223899077,2.701033144389103,9.078225717689008,17.37310057702382,28.563926834328488,40.760649547132125,43.79498715818425,38.565819997054646,39.17550171680688,43.28177571901531,34.52607551688458,12.133412180047305,-13.511525549568274,-35.242026857682035,-47.59273679877341,-52.3717649972477,-51.86576055300145,-40.551085992829705,-28.658671933672437,-32.0273668961465,-33.9445241570876,-20.410187376396948,-11.842433739242185,-11.623263647022423,-2.507080182542591,5.429732415095451,0.7173276396803274,-3.2680903129020127,-1.6279512768344055,1.5630704071482313,6.408342822419921,4.6673887669766465,-3.819263755243705,-5.470379710083497,-3.5892886205883876,-5.304187046535887,-3.0347449847202537,-2.124210870616997,-9.847391916651048,-9.045341161067459,2.1153373309230563,0.9395170614928858,-7.654481621403868,-6.330980510161329,-6.307361613917939,-11.25558497133945,-7.661917138765979,-9.793220348279334,-31.647862461767357,-45.558171904720616,-29.119413655154382,5.243751769007183,36.61876718352234,45.402834628894794,29.68420120679736,11.453456087259909,-3.3810625745881255,-22.477199909335624,-35.56309985665594,-40.71385246209831,-52.39881851251173,-67.69148268528365,-73.63215782097717,-68.62913803709347,-64.5780008434313,-62.16699610626991,-1.566937940150467,180.74244460444922,406.1336672445549,457.76236915413773,183.37055699553213,-257.7965375775823,-445.85997178747095,-237.6246145840048,-3.9704360396604077,-7.746420490960091,-53.33021912415629,-7.299822626975747,7.085106315903857,-15.943381466841153,6.116184370924372,23.05619256181663,1.5048716070488712,-1.6026272154155983,9.52890598478076,-3.8017791030288635,-18.32659743413378,-11.749952149982088,-6.7740628184826335,-13.45251611364047,-16.40810244464282,-15.882040966318392,-19.790494376129868,-17.754329379682936,-7.6588281547795205,-5.496629107113947,-7.490959662908527,1.6842369935504273,14.296636379644227,20.26882538982598,25.931728934898302,32.75226030100565,36.254838971781886,38.33853419136429,39.3410818380441,36.71452665712655,30.035081073746923,14.779914963064654,-10.110737489779957,-29.97405288327967,-34.979750890932465,-37.85076220825192,-48.414108157336855,-53.870042262463166,-42.78987359205672,-27.24305571866745,-24.356969789198992,-28.887019341826388,-23.671965769289148,-10.409247786584686,-4.290678004652694,-4.947229849175395,-1.5178486006540552,4.861606463060232,8.240117926840405,9.292128200385243,5.997088222965072,-1.744836765155565,-2.206507680406828,4.338814002411871,-0.3358186658543829,-13.315312604450671,-14.79685572035288,-9.008596760880348,-9.628349611313723,-14.89981725784874,-20.40180533457481,-17.67058562023052,-3.328339327699604,-2.0720809157795728,-23.605198282895596,-33.74959295530442,-20.229324656616164,-6.976539956630303,7.093488085098654,30.530867247798337,38.65796301657089,19.52586910419315,-2.675795820234539,-15.721265872775469,-29.995234329949,-45.0403470646952,-49.788200033347366,-51.60149832677224,-64.77811922748344,-70.15673887326292,-53.76546533265356,-50.30706999951885,-37.78355466370611,91.90734397847152,329.612140815469,474.011930532593,326.48582690848787,-83.58829543225404,-415.49889407570913,-350.6430123321419,-74.63925362245011,14.595666333975228,-48.81634319332703,-28.08075146737744,25.75918422619792,7.761637217695107,-9.698681303567515,6.821712545554314,12.316886396479198,10.078417066754682,12.024395638859442,9.049853324607477,2.980811846867951,-6.62503888540817,-17.13630902405216,-18.285316114172534,-18.47109544017142,-26.992268863086096,-30.87246070765549,-23.415246812460595,-17.130675195056163,-16.63387247694088,-12.442967651576904,-3.2994799240207557,5.194854005025425,18.616785996585715,38.46066466960724,48.95041356650913,47.03066674838627,49.45294914338534,57.276343946217104,55.21919820564807,42.11820267032553,25.247789004397124,-0.9782468902753347,-36.80956430638038,-58.208164811400934,-54.40343568566489,-51.77647596426001,-60.886016367316586,-56.62133362694975,-37.503581638247496,-28.06536602593038,-25.567143098420075,-16.319278937524082,-8.700870995350105,-7.5061596557592125,-4.83206002126316,-0.5519365147847104,3.217716810761427,6.203880339578527,2.6014653887731303,-5.3195593661200835,-5.546828428793463,0.008053058840406635,0.32081177517823534,-2.346853642652235,-2.961097686421951,-6.418563858624129,-11.14673418036141,-8.447259476845542,-3.1252212830081376,-4.861458618256378,-10.109940231002032,-15.188264315606546,-21.532946744131763,-21.81061286157104,-11.908089014477536,0.48706542465926006,16.94130127676986,36.66642715340148,37.297466366975314,16.589316536239103,2.9635827102102246,-2.8219731747786616,-21.079196665742046,-41.470218434532555,-48.92974550833128,-57.58264386640033,-73.94495097816562,-76.66061026421852,-64.0739382717369,-67.30842594872688,-62.39615209792991,48.84588091528869,279.8383313327003,465.1644414999082,386.9881646078293,8.198964580911664,-365.29870214541404,-361.9577882573549,-94.45751818626982,18.2567886921885,-49.338012705386724,-47.1719357263661,4.510852388360213,-6.683183581192033,-10.29971631318663,17.825815226532775,12.440368503665173,-1.8218729945942425,5.853621076339428,3.371062128762091,-3.930858489773067,1.612118310387265,-2.470663158623122,-14.654641766877527,-12.444184121062927,-6.7067984250797155,-8.597365111037046,-9.814329948665431,-15.633141189598838,-25.947580244034306,-20.75829619203643,-4.022447676681679,4.486063936377296,10.320367865019216,19.46568722461544,23.509310970456617,27.975705195753534,38.79885551133305,45.39029676738541,43.358284520316154,33.95797143744079,15.505700000921113,-4.142016323562753,-18.367388037228785,-30.81066762316597,-37.6328911801612,-35.12876319944329,-32.169380512414186,-30.272361119856406,-22.75831270872202,-14.288417402935345,-12.374927259665252,-14.579727801595247,-15.627737693576947,-11.86826828152567,-3.056441925468347,3.6958882202579044,3.289870588190027,1.731506233701591,1.562149877483062,-5.453087784890597,-15.779491444198213,-14.74610554377978,-8.018588090122005,-10.814580063618205,-16.06909517944495,-12.906831743776248,-7.338750532800148,-5.56098250805344,-8.42079714230327,-14.322746208521682,-15.415346276094743,-10.566488842476254,-8.35529106200188,-10.972240667554868,-17.353571741835808,-24.44762393568848,-19.347315214794055,2.6814195553677447,28.178518334934243,44.046431858783535,44.07913530079733,27.86311175534923,3.1080150667084228,-20.51878542263907,-36.30987435663705,-45.71016605502268,-55.1141927690723,-61.41820673379032,-63.02236462243693,-65.30565871315542,-64.68008129946445,-66.15896253693364,-64.02061800905179,10.19740142959509,201.53859552588045,409.5933152387908,431.00951349428294,144.65174476746006,-252.5027491206737,-358.09356145453273,-142.3751375618102,-0.044881667401648784,-52.23564554708652,-61.768269626424114,-4.01698057173774,-11.96425800785044,-27.349185252937417,8.954826795785241,20.558454517294408,2.8506637760362503,10.180572133990768,21.256584361927317,16.195919570861076,19.995289005816588,18.159031946148406,-18.83091853868075,-55.08059711299077,-49.09141714319743,-29.978246157735594,-29.245968503786557,-27.981914927170557,-17.117283433082477,-9.52290894721392,-2.6319580272526863,2.11879122863907,-1.637678484368812,0.8428150219527337,15.513416963128861,26.878861142711727,33.77465136830769,43.4063700710659,48.700057454728025,42.8399389061008,28.813583625419202,10.223313261152414,-11.368849454349244,-31.6994668066188,-42.89648616426777,-43.75171734398418,-41.856740347115036,-38.80662948683894,-31.150778341739077,-21.95353580449266,-14.064212028367088,-6.5646140391356305,-2.5217329051393733,-3.4038939814559903,-2.9818669803642877,1.5774966062735345,3.7309397918877245,-0.056292564064456485,-3.9184032937285203,-4.747998821174594,-6.022743820126969,-8.003811387481502,-9.770632824141913,-11.6734392012233,-9.893512615835352,-5.32572373702787,-4.743914656976553,-5.712489421689607,-5.884258054656495,-10.413775554881317,-14.061332113288179,-10.54602321174322,-7.778412357895052,-7.839356389599489,-5.92682652818117,-5.901151250705423,-9.260406682324575,-13.01905180852081,-16.096852483541863,-12.712590029748513,-2.56794295526198,7.481671897814238,20.180681854624297,32.376543942402556,29.454827536888246,12.255759458742954,-10.941565070744792,-36.118761881633475,-50.46279729106216,-50.421241085688024,-51.479189338819936,-58.48829820682095,-62.522064024829426,-60.03556977209877,-57.76096205716351,-56.4327789844136,-18.882185876715525,108.54099242872715,308.4253861909803,429.0148650142993,268.9875461484877,-121.68289368812154,-350.4637711950643,-214.82434430043475,-28.107239314708668,-39.53829794482544,-73.73487915830471,-19.08886705242182,-1.6120317952686918,-26.25939977708787,-11.69392009329594,4.496195723524892,-3.0878894960013525,4.383378745614124,13.132943986339477,1.7157693016580424,-6.101652838832598,-6.576465458395884,-12.708315286181069,-16.04551192198617,-14.38533579298789,-17.281880104123974,-19.978217723452943,-16.173876217834806,-12.640420739166672,-11.83659076970909,-8.301897098569889,-3.0912588232494302,1.3329420741163933,9.676134320078042,22.738628358848267,33.653920689148286,39.614091470424334,43.162901540602505,44.39074698381275,41.46040550254448,34.910628795064646,24.17751614992461,5.389779326394205,-18.54276744886872,-36.807508956054896,-45.33049073435772,-45.11494462467749,-35.555648172387855,-25.18523629708617,-22.057842746663656,-16.47415505604691,-3.902503252569675,5.418661682858113,10.277218085938173,8.350090940659646,-9.960636603287323,-28.115690275462846,-21.928156134251562,-5.341939272092004,-0.1746339479037804,-1.7170539852479791,-4.173579901187242,-9.397684614932771,-12.954461000217357,-10.615132226739908,-3.9511599779460056,-1.22558849904145,-11.072098991827488,-21.856896742517854,-17.054773876194318,-7.92153812617094,-9.010175668382683,-12.826988527859672,-14.73860356003393,-17.427484580460096,-15.349696935420576,-8.539702976316818,-5.98079591230961,-8.407474153716816,-12.900510837408689,-19.064613559177367,-20.87639149794219,-12.982503538704751,2.1930390301443405,21.810105367801626,37.34974955534571,34.2876860419246,17.899791940455152,6.7772268898987384,-4.155240320737512,-27.440081081758045,-49.701835008669505,-56.44977729042613,-55.32829117643576,-56.29403874735816,-58.64291357532473,-59.91408087404791,-65.30752400475443,-66.31661129589634,-5.857169829549271,169.5710175805817,386.530722890198,429.6580005461949,155.02611642532753,-235.68456644954193,-345.8235846577022,-144.6963378243408,-0.1663278572041662,-43.2294606671131,-62.067696030308404,-8.485703658165193,-2.79282164442683,-18.304571998124462,0.8508986120646291,6.357916630122141,-5.315100957373318,2.0854124342115172,6.073425385185488,-5.7991267257210595,-9.845956316218075,-9.892110080933339,-15.49032480542304,-14.387567114098058,-7.467606979214284,-6.711252885224148,-9.248164876165552,-9.58549073868052,-9.045027592779382,-3.9250233427509924,8.980233017478394,19.708398156623836,18.659252590872523,12.403651739842358,10.498349459162343,12.79428974663299,20.15617626337864,33.98710505282533,43.110735343206656,38.15658415597869,26.109431685898038,10.728063129987811,-11.26669758966096,-31.596772869548253,-42.151726316295594,-46.55155925031424,-44.25875586053866,-35.5955704889978,-29.59751209964644,-24.77666947705149,-15.739407108774921,-10.656052974412216,-10.534993866390584,-5.917705567688934,-0.1797282648835168,1.7461866522426774,3.944739874533706,3.1099838911971425,-2.832962022643489,-4.4898715215545195,-1.8556622195832304,-3.8615765504511685,-9.312941174894227,-12.980360423496986,-13.03470796984882,-8.89390385225942,-4.560463563863728,-3.4008605937519363,-5.3869016726501435,-12.56806798258485,-17.602833342854204,-8.792121438470527,1.0718988931781261,-4.533560543541684,-11.356331681601757,-6.842115511229061,-3.123751529434914,-3.5904020911908745,-1.321384600233829,-3.2814647345153976,-12.85099183765615,-17.697114852261002,-15.609917070457302,-18.26391800635152,-24.734815025359595,-17.789347229508866,8.712838007129093,34.52260507485197,39.23275214478345,28.84126645107988,14.531923324928348,-6.076682422128467,-27.205805514476367,-37.20627092410497,-41.612893422698946,-46.282233092068026,-47.737200570596485,-49.043904166333114,-48.90058652927419,-45.40285727598089,-46.22460680373155,-14.330910809326639,128.02679483348464,349.2818893562219,431.4426503759532,184.30171323084085,-226.3590961488987,-382.7757050993647,-193.85469576661364,-12.914088144729948,-27.717685052364956,-59.15380519551,-20.27556890362729,-4.329505446153107,-10.857335450030703,1.2164421232142804,3.9323666562077175,-0.26757084848715174,7.174688588140569,2.982308514720973,-7.292978760500267,-1.3877270878278285,-1.613880015301751,-14.903084023152957,-13.936514498767057,-5.787698422928514,-11.236546042616432,-16.23849255242707,-10.919990984578927,-8.280564953681665,-8.646753581068836,-4.514742322438134,1.260159452723846,8.687378449118592,17.73553711596069,21.640922581927708,23.764664711203913,31.2756162747128,38.42736797750676,41.18554356979111,42.273607306668,37.56382414737581,22.22520989140755,0.31932038206391633,-18.15991205078985,-25.92727335658477,-29.894810933407044,-38.631946695434294,-43.44384308039541,-38.62641328705181,-32.973934636187856,-28.34006280147434,-23.250616172888375,-20.657318386927265,-14.383630602895092,-3.487107583964555,-1.8114901678152187,-6.531812107190586,-1.8045963834585805,6.843612482187478,7.105232949433905,5.821017206775449,12.184471032368947,19.9790680832653,17.68220115896107,4.191537438916752,-10.234493712387478,-16.56449997420168,-13.488006304463035,-5.433985854874312,-1.4086127403880209,-4.445638050859351,-6.944037139802603,-9.250284707840212,-17.313969241367328,-20.701724117722062,-11.749358948503936,-5.0402923487098565,-7.0587180077697305,-9.22489955762119,-14.345114306149426,-23.222794896318106,-23.278387592444698,-17.335704573707666,-14.223161378678336,1.559637315231103,34.73587090080187,52.43233455624389,38.461987761871654,16.513910843176888,-1.7380561001668111,-24.342519391654747,-43.06161416209233,-48.013324285699035,-48.461475654801006,-51.94153816008368,-56.46278841088281,-57.899688019427956,-54.18051261110758,-49.91886078057742,-18.18834207666726,119.21759557072622,359.76197772171184,487.44889199411637,259.78695537413125,-199.0101717651142,-431.17598547649095,-256.4243048467977,-19.595839139148175,2.530532599747559,-41.47227873589827,-10.121972673526578,9.225609493450904,-10.711894650601085,-6.006586413774477,6.48675316200363,0.6172051364820383,1.6443422082400367,5.637890705277748,-2.4734120529544494,-4.815894084862274,1.6040601504501044,-1.7565696463217977,-8.907122563662984,-4.170591423655945,0.06140188600437302,-10.481405362619023,-20.601710620808976,-17.175972767885288,-8.723101839067626,-0.18577083456158117,5.40591968366441,2.3264435752952384,3.5456167054990795,20.25518438036793,36.28610580683932,41.47879985986529,45.53736263530969,50.94660089059326,51.42398155809805,42.85521126179718,26.19576079731819,7.20643686802908,-15.368903220993221,-41.74501453784968,-54.98326732341235,-49.3700076824179,-42.90760375215743,-40.29039310598614,-32.68717805499287,-24.58428697462118,-20.936815396083148,-14.800705163197405,-3.441775124754587,5.494690232505853,6.091290727012025,2.9076066872257487,3.015062384617061,7.261535963116707,13.920143956661903,14.398845815731145,-0.9745817896609719,-17.56743205744172,-16.028805277982762,-7.145122525539632,-2.962323605767301,0.2367712957625958,-4.599377409401999,-16.45855419578468,-13.880501286045615,-0.3077098179153541,2.5096008184727125,-1.3641571480922163,-1.2316885811004585,-1.4572952163975312,-4.078316311005889,-8.134201951421723,-12.857107870409674,-14.656119147455911,-17.987876229187833,-26.077399512697802,-26.218593705865803,-10.865167421154933,12.815598413097911,35.422482615955865,43.161412853006496,30.87421858564283,15.336533730401333,4.538839445405079,-11.825303657380829,-32.312278970892805,-46.96637942831667,-52.88937415548229,-50.81787171762232,-48.25340205902704,-48.80891046807819,-48.76256346683581,-55.981501656941724,-44.62051173930466,72.61342073873453,304.53190282474395,462.1367807890092,312.73656008077234,-98.16375258591736,-384.13662638902736,-284.6755005555733,-47.40719846609187,0.26410156658982586,-53.58173802388756,-29.38512773413227,3.008907002131096,-11.51853655891767,-4.388929097106289,14.345487016486143,4.688696739348483,-1.3873283046913105,4.5712034145454234,1.8707816182174088,0.5099641039759444,0.05081431152067495,-10.554819841088797,-16.70163945868272,-13.029926945360767,-12.869437763462162,-14.929096118492641,-12.757534417660242,-9.018727183555795,-6.015275473565199,-3.0166112075770246,5.178370568433369,19.333772474727716,26.293980361395548,22.879180518031724,23.411819406743245,31.179050095306845,40.66955994829405,50.60248915928462,52.083484460574375,39.02272709805119,19.184275930457822,-5.362409960199447,-31.90454583054136,-46.61240264396291,-50.91569451861112,-55.55680613550356,-52.82465473707885,-38.80799116174839,-27.24789386825451,-21.74099478385216,-16.010257908332463,-11.404579362088121,-8.279575288265793,-3.10430195277236,1.2581166079872101,0.6834669851386828,-1.7783577382600058,-1.5915990714037864,1.291209187058751,5.313992061411833,7.987701673650477,6.035707548636706,3.9325498405669936,7.576453812628197,6.585293610092673,-6.476361318511197,-15.315889093274162,-12.559578338098772,-12.146337131733844,-13.801800566244824,-8.777480462462188,-5.042581573612717,-7.084486257952662,-7.997541188167997,-8.382488249402368,-10.07490244164961,-10.641555162605743,-11.281261184519483,-10.82435448916581,-9.76359108743867,-16.071618918753146,-24.728282757690483,-18.973618849100877,2.3638306378683147,26.74018611379202,41.754897823772424,39.35300344590898,25.107318571188546,10.431661593850714,-5.278439800278986,-24.681544695253525,-40.19424482627274,-44.92638390765669,-44.756984153260404,-49.78278993716995,-53.38874542997357,-49.83459563989935,-60.22346672462437,-71.69302074219223,-1.5392881348817582,190.4895473456623,402.82048623159903,427.5062028600484,137.35765718791976,-252.47578133973764,-344.4045596544467,-142.17144777708256,-20.28680892104525,-64.70093672822713,-65.0378790186991,-12.023065729321758,-12.92291982550389,-20.81851023629924,2.354311161070237,5.532781314452267,-4.515870606718188,0.9827305318445001,0.42812332217592797,-8.115740871468372,-5.527628364642013,-3.7349081083098685,-11.79087086796208,-13.848012971429899,-8.13240762631807,-8.910603084732402,-14.113578967372327,-12.084056675393906,-5.3902183136440875,-1.0782763194369211,2.158503266048152,4.8985897213523515,7.8622825880065,15.803056381530107,25.19317397705298,29.776703115256275,36.838338259145935,49.39425537835892,50.99307434328998,34.30939022708841,15.329544630624829,1.6049484065983277,-16.44578177413237,-35.36018065462105,-42.7238588148252,-44.856046771143674,-48.91018094693728,-44.06023018337244,-29.988034196747073,-21.63018612096135,-19.293672202522885,-14.92155522205905,-9.828110288725835,-5.003311956218514,-0.9159157548987906,-1.8816019947453846,-4.697817768238094,-2.739064689854823,2.2378853977761795,6.208039178598559,5.881366503573662,-0.30151314684537134,-5.130231659185499,-3.851021612269867,-3.198289432970383,-3.77508269601931,-0.3924032465336751,0.45435510704189497,-4.011245121104665,-3.1311222396027194,0.14250408066888554,-5.050419369390648,-9.047824337581106,-5.202592807063422,-5.617031931776482,-7.215417224908883,0.3663112408300915,6.831851364984306,8.209683782070446,6.800128346997731,-14.914642626682735,-49.41761625833378,-53.8480353312179,-26.13987590075755,1.8831388855796778,25.28145041331431,40.58126072127189,33.28804153637348,16.617390550267352,7.522385433788505,-4.172878073788821,-25.81260981047326,-48.90361382088993,-62.01938426946505,-60.26970081972362,-56.70000926439588,-65.34365075555387,-80.2585938795235,-84.92870480704532,-42.685903202947884,100.16213479642828,325.737427554481,458.59753455269407,282.11375888084183,-130.36623589362986,-368.0735231489573,-231.90889767435743,-30.31461857709832,-22.997089844045583,-64.42811525116892,-29.389886054540014,-7.405194852073777,-16.51770096260053,-1.0684203823076182,11.796964923185344,1.0652089842475227,-3.95882820020055,-2.2261292742451637,-2.8695786694450867,-1.237634520481551,-5.077100986202563,-15.957445653914018,-19.813445088474104,-14.800615800370021,-9.30991528779856,-7.367579897642299,-10.105808880305958,-14.005312481507977,-12.011135229448781,-3.872119696125757,4.386232741660818,12.297173186675595,22.506325607314373,28.64742092838664,26.315796089044582,26.407660805180456,35.450917322918045,43.96127907362933,44.16860126576767,32.7280806725202,8.3551811913692,-15.317784988951928,-24.291498337250346,-28.55977028385216,-39.428718130089685,-45.671399299657175,-37.64129742849821,-25.933547880857986,-20.01419917673062,-15.016035125519515,-11.231966814220236,-17.822437065232414,-26.802714813954395,-19.89807373688133,-3.7836748002732907,1.659955571543092,-2.733454020655941,-4.6655415351997735,-1.808385690674065,0.10361737732706011,-1.216721770555516,0.9761045322226742,6.937993778655885,3.370537057508569,-6.711182813375856,-5.700829888209265,-1.9103379312278967,-11.140395312827716,-18.952273082210443,-13.802822963550707,-10.04095144284415,-11.94921433889441,-9.433303264122662,-5.333289996708032,-7.039066224449076,-11.54648235915863,-13.922154825725222,-11.633896128520849,-6.519220083084541,-7.554753685401755,-16.443145928984595,-21.164871133039654,-14.142466077120027,2.492052503874393,24.2770154239249,40.07348918171444,39.03577786221676,24.48765780727496,4.130005501904726,-17.296416010766052,-34.12029909588917,-46.00286697816178,-52.76662652311228,-51.4276863602492,-51.98907284874704,-58.342542867585195,-56.50054902700373,-53.58034603374975,-41.332342723799094,63.151762464660834,292.8518134190949,478.86670980033676,368.87036837195126,-46.884724068613565,-402.1212626617022,-360.4646306772549,-97.17057144648118,5.320090992572835,-41.523825484089826,-28.141185187335232,11.258414015389462,-6.383097840186625,-11.239865634040033,13.808257562431681,14.19613291122998,9.764546969165982,19.560963179119994,12.089137592385265,-3.813306176820358,-0.7632844687676865,3.5325590907804916,-9.494812741169282,-24.798759565549897,-26.97230747280946,-22.251022446996295,-19.462536589706303,-12.659547576489189,-3.571006398393365,-7.967424133544036,-16.12896297878526,-6.021737581800995,9.827703942310759,16.450140720351587,23.179874620051468,26.193388544899072,22.999686268362037,33.96505380161842,49.69498608874341,39.94129306574642,18.448006986373905,7.039471627508114,-9.513360737528865,-34.59589959664579,-46.48373042070638,-44.37195820786337,-43.06791949466153,-43.26877301341617,-39.194024843062195,-31.433457837869344,-22.9403532532602,-13.317906754972139,-3.1996446622108365,0.031449271493659836,-4.058425839000758,-4.0630360047576595,-1.7045840621593449,-5.34109085320944,-2.919932883770503,7.437505911495099,3.1729498309065836,-7.875531203529029,0.641658308462965,10.68675346050962,-0.502965656287266,-11.718953687864184,-9.060659775192132,-6.286964118070573,-6.258229254073488,-5.653241048623478,-7.118539024140501,-8.514921499233235,-11.301044765879313,-15.97255833649024,-10.743294906723682,0.06436384387438565,-3.111182564270166,-12.169406375047506,-10.78891303564662,-13.751382157974216,-28.402665314653703,-28.663934891572275,-4.806410352644479,21.26710693775837,37.0288081651082,42.64525542306059,32.356625629802444,9.979747290081784,-5.895073264397305,-11.72465319790402,-22.52164515264681,-38.96874067908538,-49.96257692398135,-60.42398956403683,-69.55285854376591,-65.30797543579592,-70.004074119848,-80.38256196717097,7.866458373895213,242.36128424520075,459.53547452770636,422.91995493672687,69.38523965116033,-343.7488300405497,-422.0399994496318,-163.21643338922655,15.981657532901597,-31.550475479460367,-55.57432572276906,7.122915128208078,11.816526552729506,-13.672096197784883,6.086350840663069,16.23396499777112,1.5189561050432978,7.026166729159618,15.253241568895703,3.187481262935032,-6.000254918912217,-5.249782059504817,-8.579066162103906,-15.201753559664096,-18.678924586192185,-19.631376306878877,-19.001566830874427,-16.8033859098267,-14.209931831923296,-9.492150757505351,-2.033402961889897,2.334710429358377,6.700370677601202,21.619834258007074,37.14349697288914,38.74737189321321,37.07426642276978,40.6553639291122,42.20748632068983,40.35918075638931,29.124189522229837,2.705054572887579,-18.665396123583474,-24.440066032136805,-34.19264204167578,-49.498635085257625,-54.092115378856825,-49.120388517924475,-39.559946509973514,-27.70409970157668,-21.33208253227429,-16.908418331639098,-7.742261176262973,-2.244293459306018,-2.3808873558934103,0.6266860051187866,4.697732397025815,5.020428789070754,5.586305849789435,9.730035244145355,15.631754291432657,18.78852736332899,16.9375282045648,9.185468338676516,-8.95007920376771,-29.034918446239026,-29.671266571435424,-15.214816010528082,-8.041884589494629,-8.012638403998338,-10.85286442088017,-22.039918621615456,-27.848356580739114,-16.647514963624108,-10.275284079832932,-20.751390619851712,-25.796023038313923,-16.573283997056237,-13.779389170497321,-23.25362570030052,-22.662406934028066,-1.8436115251553975,21.888820283568567,34.17683691739472,35.62182927403936,27.70952087748791,11.937270172326125,-7.789351406472964,-29.382385126694547,-47.41613504311048,-52.5364959211677,-49.440899604562254,-55.043698071156086,-64.51960298324774,-64.0327465673251,-70.35577568944615,-65.26802297630783,46.785929444613075,282.9414201161504,477.6388815717647,414.16004596280777,41.30407089840156,-359.6035399447531,-394.2204414010124,-125.60828878554965,13.90618084885763,-46.11600926747529,-48.265961331145036,7.852422197832375,-2.1764489857917724,-11.998901187440918,14.744061913194658,10.79882527152418,-6.066125788388481,0.9718573003895696,7.34876270194233,8.843985970023386,7.9742391542633975,-7.327238109482707,-18.252041619733888,-12.77391729307099,-10.016076406316751,-10.422628754955857,-7.783913691998881,-11.459125398408782,-14.51358789741721,-6.308466281520942,0.41628848013253816,-0.5236169914043238,2.2340318895290534,12.387776083665576,25.162598956166267,37.23884276902518,48.27519189281087,58.27004890610365,58.81021230405355,42.8803819961569,20.58307986355466,2.674186555599586,-12.247782732919935,-27.216064850346108,-44.378053835436,-59.103607552595506,-58.413950657720854,-45.49647574107957,-37.30608041922598,-33.64583132279134,-26.005793775838093,-17.78402531916934,-11.60629119142106,-5.0856376441884645,-0.23501075970775354,1.9927978798714125,3.2054673150252473,2.293470285636875,0.8914033685021874,2.419452564273187,3.97821315642366,2.903578444358806,1.109294437248165,-3.4242454732033902,-10.572545361597275,-9.859514384239265,0.4841128669863455,5.3334594470950805,-1.6631838096071903,-9.551148408764007,-9.913536849019415,-5.266480166266554,-3.104064502994948,-6.714516445420433,-9.942460730662699,-8.849029767925995,-8.361580539557153,-9.765769033497905,-10.34941957539687,-11.663034664323064,-15.057344012073706,-19.417090060493916,-17.510045277778207,3.5669921320895206,34.68651466155693,46.23839408218807,35.95004493995314,21.745824509945813,2.2744001272832435,-20.227609890961748,-31.43395562731106,-37.546045804643164,-45.39286860725623,-50.0857473805806,-59.595517646740106,-67.07007841723083,-59.08176052521923,-58.71369408371771,-40.58018910809606,93.1183749567137,327.9321701597837,464.74587358943126,300.2300621575631,-110.46490420881119,-387.05203097286085,-270.7300000344485,-32.41217260275565,-4.174479611379375,-61.267177804052764,-21.864370944424273,12.824624726424801,-9.009371229402289,-1.2088995259641462,19.880592433806314,4.420494609783885,-11.266746044079948,-7.594105994251065,-4.675978915599552,-2.582725555121627,-2.020628112151739,-10.47574543456901,-17.544195291587833,-15.977555905830876,-15.880805278225102,-19.89113686465907,-19.921458586118725,-17.1300345063801,-16.275997125161094,-13.514542386228134,-6.427537581065901,4.184126707182118,18.668254468212645,31.11218138584276,38.49394802026247,47.3227863390111,54.26705802370726,51.6218369225669,43.784740586954584,31.568480228578892,12.683211597362869,-5.310868943830727,-21.508538044571438,-38.76403317784845,-47.33322240914216,-45.631673299551025,-43.110019457120885,-37.2125708237632,-26.891971934566875,-21.580021692102292,-19.606302456595472,-13.736233871924558,-6.445648039519824,-0.2804118875660926,4.169541914579193,4.322941993284262,2.7574996414421573,3.565874247590288,3.632826312310981,-0.1191543257380836,-3.202644052255211,-0.5829188332149933,4.260163997709113,3.6895095550754053,-3.290961478364398,-11.18935600100572,-14.615713386423637,-12.60112955014269,-10.967014268352528,-13.41840264947864,-13.312133701024042,-8.045668738298636,-6.3388648442329405,-9.695153862845618,-9.699449356332007,-5.669192144131195,-3.2321622755560373,-2.5902427606658858,-2.9079392845594345,-5.920455597380194,-7.600605972683555,-3.2319247549253376,-0.4874785263690349,-4.9163311142229915,-7.226297690410151,-6.239177305950618,-7.651991143219376,2.480102493301574,28.970938494882418,42.18520214066699,27.090232649096844,1.8238696526109957,-21.187211601355493,-38.31402444757314,-46.04900007190727,-50.44782309575457,-57.10703733951681,-65.54184179757435,-71.05417613205088,-65.7576274337904,-60.808137029890624,-55.64423255101023,16.674186845412294,203.93796542795707,409.90657373183893,425.2719039146598,129.6272439739347,-260.18982099301473,-346.71114362511867,-131.6036323981292,-3.753047110117201,-56.45975963503399,-59.13693428686376,0.8921068344252561,-3.4669293472633385,-21.759382333116115,0.7119725242412631,9.282194074921984,2.2557890498226394,8.926441273279533,7.51175500647473,-3.9682006688676648,-4.054341689048293,-3.6467004116246233,-10.98918868359879,-12.935415694201323,-12.10852654956517,-16.140484399464746,-15.650883215003265,-9.616028011042228,-11.083265719549793,-18.579474143682084,-18.244348292307993,-7.139995460247346,6.765039316855812,18.005622259862825,27.81407822963326,35.96512537409874,38.27294667864836,38.58111246918797,43.15138416619334,43.655746714874326,31.397480160779974,11.094886395191786,-12.579261629056948,-34.37055863819926,-44.51207738215941,-43.774059519973996,-39.67012617988216,-33.61879522810133,-27.349859580492613,-22.139656741356198,-15.063865952304958,-5.631635046290791,5.206248475201054,10.478444158176977,-1.1866013650272649,-18.171190863890757,-17.321688564977407,-4.9224299513744825,1.7305948757949299,1.1985998133907572,-8.232528645431337,-21.461284244559764,-20.68877603051103,-8.605039940488556,-3.1678597192379634,-5.351396116285432,-8.58406296234158,-10.31600584863967,-7.8511440967805015,-4.66474973851502,-4.859307985253741,-5.053822227118296,-5.395308483775329,-8.354825491485553,-9.241713131688709,-4.562519224992311,1.3066963432670526,1.7731247657309357,-4.472364334482441,-10.024549841677523,-8.431013723557008,-4.189669858360861,-3.673333753751704,-5.6123942189260365,-8.244523542567576,-14.116628746924555,-20.968556742449643,-18.410002585361376,-0.5225733804788719,24.632927383573282,40.86672406529977,39.72695302353202,29.01814773334532,14.947694728001956,-9.949973903238122,-41.4837465618417,-58.494790141775304,-57.730969619230294,-56.80870712473284,-62.66172352878816,-64.86619737591037,-60.9381476008067,-65.0808584440293,-58.044084016267874,36.4297161560131,245.55177464992244,435.4953655323772,381.2820417897592,30.900829228599704,-310.18127139053075,-301.80173932414937,-74.61722915919628,6.935048532783686,-50.50332944675391,-38.31436953864501,5.351100760925057,-10.746499512575522,-19.538725156946555,-2.106571627155427,-8.572336316072835,-16.070937970518347,-4.718902617584323,-2.3620243783254917,-5.907004836931623,-3.8724579272804274,-7.385549943786682,-11.926297866734375,-8.834819594059597,-6.48584229389874,-7.197260591530601,-5.4341805915779275,-2.2765938714283855,-2.0453065293079185,-3.727802735317971,1.651417181900754,14.154934534738045,15.285049299581424,1.5943589435787775,-1.6987920242065004,15.57060548542582,33.41278858159993,39.316382198663405,39.84469551304477,37.42082231259495,26.29691867846367,6.727627176022989,-13.327651091142513,-26.71985901663308,-32.97476878083774,-38.39653181922984,-46.04410003436754,-47.394043271138806,-35.82226292306491,-20.546429826907023,-13.10377967491604,-12.365171567388051,-10.884571494835763,-4.066208057784232,4.638441589519864,4.459672263368274,-5.698089206186838,-11.56803061975151,-7.272438939453952,-3.1695244756577683,-4.291928503602417,-4.910616431752134,-2.6451766265429963,-1.5673504552187367,-4.138721142583824,-6.370881979603816,-4.761659815379518,-3.75259559052569,-5.3337300672057495,-3.740920572781139,-0.17351871516513384,-1.1671409317929733,-3.609388242856264,-2.538137363529393,-0.967979628500057,-0.9789034634464446,-0.928475175378086,-1.9989446102262356,-6.087897464874281,-10.10598398752132,-10.04131569155053,-8.503700557865113,-9.364697180914927,-9.641126455039506,-7.480277749761999,-7.569659541605487,-11.68257210798337,-17.10955309526729,-22.021533064913626,-21.234354567875037,-6.037329904552619,21.278374279359678,41.61598996182966,41.292935391688886,29.454146146993292,15.974942024455515,-4.570511331847925,-29.52978476426257,-43.88059718219058,-45.641848180045066,-44.43884908782847,-45.47415705555687,-51.46047233096222,-64.87961182787215,-78.08577229550535,-55.470186745441836,61.29416070335323,277.3542407539494,447.2271459957546,342.8273081546158,-39.40105786561461,-340.0848073564757,-277.85942881743216,-64.2831464400935,-15.675661846093277,-63.871969174219295,-38.78827414020216,-2.4063978010764373,-15.458905136713547,-11.333635797970004,11.563616186189105,6.1824707609841205,-4.419415532859526,0.8545159994853098,1.3104699654869592,-3.6774821143487575,-4.694610659489063,-8.156871729829701,-14.08208727875699,-17.79650776450871,-20.5227649371035,-20.822148813986573,-19.352213919503857,-19.92970063483584,-19.134761417466585,-14.129353413882692,-7.313171537738905,2.19638760431252,13.454868340557649,22.854990132688698,32.363197680025905,40.562702543802956,41.82691546160242,40.40602387258912,40.86374708923497,37.05698980775922,25.568093845232035,9.034688669467805,-11.368476209704877,-31.230138635579426,-42.70823752501293,-44.113026751698605,-40.68265809449545,-36.33100381615846,-30.39006997728739,-24.382152271735425,-21.571613889698483,-17.189293348376523,-7.697987580563211,-1.7266123233857265,-1.6511391961123199,0.834454922177116,2.5445558922671356,-2.6620065989201933,-4.433878169486279,3.023821663524103,5.904990958166014,-2.623721717176993,-8.897528263432052,-3.5738409077556472,3.3937745433315536,2.3947416950633844,-0.6670988896413128,0.48552686058620864,0.8387180292514138,-2.432672820937407,-1.9943601937768545,4.928784482624018,6.480159235454478,-6.637380896143281,-21.60119642614206,-20.18265053799628,-8.077196549339062,-3.851513759752521,-8.202475429387263,-8.62206235948582,-5.202546039173178,-8.134873350923595,-14.807245061272226,-14.461724004726488,-12.158104094578754,-19.65117700027831,-30.327654384374746,-29.460932613995027,-14.011486958761587,10.13043160673518,31.209846317584958,37.82855859205133,32.35984366690187,20.39105004400443,-0.07208484070690435,-21.560696564458134,-33.180486179116976,-41.25242656980296,-48.50316524348571,-47.34170415468462,-46.926578076266274,-55.84994311265694,-63.697033371517556,-62.79547387281877,-18.552765710216406,140.83909458209357,378.4000133563417,455.607452669496,179.7937546608652,-248.223348646436,-394.11886882624435,-188.56175928800906,-0.46811479335630857,-15.77720726865164,-49.17868072768095,-8.189520028873389,5.742363718344706,-12.7255066650381,-3.481659758787419,8.87405317863766,0.7719295373018884,-4.054256547799761,-2.7532622898987196,-5.251613272019917,-7.305000643473244,-9.006843793719861,-13.49572779244646,-16.565399559746627,-15.054125936595932,-10.626121271038333,-7.233454147322026,-9.447995653141959,-15.508083871756412,-17.55007249683336,-13.346562616011095,-4.090975687260897,10.84077870712917,21.592026213501327,19.297235148975627,20.152403395116693,37.31457649880112,55.98358293209451,62.242269097395955,53.377147850199975,31.779204918614038,13.23057901898851,-0.11185127530046479,-26.50282166216595,-52.46723119017511,-53.90224094157057,-51.48423000228537,-57.63442278831952,-47.60150381369075,-27.85814049426253,-24.153996398831268,-22.694084288557647,-11.400631657775346,-8.162400290081901,-11.022214852003287,-2.8108817016103664,6.788267808454549,5.194996916117699,3.0366818909985067,5.1409067990001365,1.5431837614229629,-4.950161419496547,-3.482252246486004,0.08109909546756455,-4.390775569508806,-10.897783822113421,-10.883289030104628,-6.987525883822235,-3.9475765476865003,-2.9475433264116884,-4.750259254771393,-7.889535069934917,-8.04262476447795,-4.278128795640505,-1.5611669270348472,-3.8426143052857675,-8.669183767455877,-11.533740688279341,-11.046092020500815,-9.03488921814036,-9.371554019688109,-13.815911874244764,-19.262830674717893,-20.67901186683228,-9.501021736382242,18.938961538040193,43.968534014147046,39.534984310911604,18.724559905149107,6.361190240817678,-6.4924309199557895,-27.853038137394318,-41.646967666227575,-46.426330464623376,-54.01185205171164,-60.20061185134819,-57.94296017429701,-54.68487604186362,-61.309521453083136,-54.334813531799654,44.09977417458789,270.4047763987726,479.92681227222886,409.5471983834548,1.6054529759203149,-389.99659203950205,-378.06900716330324,-95.29316142979023,38.454998946020794,-24.150603658261424,-49.043442186511555,-11.313959418958774,-9.558999949223917,-14.61484972534481,7.125140485623952,12.83575585044342,-5.185885482370722,-17.816999391789658,-18.89607403642037,-11.332490815986652,-0.0013685340046372119,-1.1516121775199473,-16.137514395851685,-24.171151925446182,-23.349423072449454,-30.371243213774356,-36.0775383351157,-25.982744519476334,-18.683617034378614,-24.25917310689636,-21.14795726770586,-3.9997077648257413,9.083335776754563,14.403569213168142,23.015186599215152,36.45919223851355,45.51860040155541,47.99994619065555,49.07685537728821,45.09770218729472,30.916104617810518,11.963021440528046,-7.615064372041374,-24.88641541763567,-33.93761171780101,-40.00535368753992,-47.297380955336735,-43.417398054311846,-29.548659385006992,-24.814253338683624,-26.6771876291311,-18.827842687227886,-6.244092895129379,-1.7820283072231895,-2.119739819218891,0.28105008896783445,1.0217723660079514,-4.9894677817479,-8.145740413960379,-0.6838534547895847,5.3141500774404715,1.1004825524930304,-2.890860435086088,-1.2000555708714593,-0.897885227339879,-3.492758608401015,-4.5332119294082505,-3.1357158434171817,-1.5000873596318067,-1.0556802620833619,-1.9466109522058126,-4.470408516626029,-4.737194498337617,1.4585234675213874,2.411907115968603,-12.143275323624325,-22.913007065177396,-15.15735683836796,-8.526601857748439,-11.750938145784325,-3.4030747361145783,19.051315538442832,30.62720832185668,22.138281798988352,5.895580066533481,-9.9505943701664,-24.35889224580924,-37.50182906445979,-49.676219064504515,-57.522786098165376,-62.4579484214779,-68.01027504057267,-65.21019746584038,-61.23048810211172,-65.15413811424648,-3.678977545113142,199.55049019712686,438.56053083109754,475.38349235653726,183.28254046792642,-255.9044380020273,-436.59845701681394,-232.79131826906092,-11.818326561875427,-22.723242690545582,-62.58062021961124,-5.655820064967941,14.439643279278314,-10.764466435599264,2.0736368022164484,14.116543129617323,3.0545396783716825,8.77780591687194,13.348142701209937,0.4847742248970608,-0.2122798857990933,5.212709043337897,-6.161721030503523,-18.08570322237024,-16.103798560320325,-15.492259721379149,-24.838303092653483,-30.774599692852142,-26.01551861343462,-19.926219012679866,-15.462405052033791,-6.86260104653567,2.979266005326851,11.613275808085456,24.720069721333424,39.241441308882216,45.61599655286397,45.79517625472979,47.06447650969376,47.79460568141126,41.318269749466054,25.85400699222796,6.310901133383478,-11.736652057595371,-28.528311240886616,-45.845286158571355,-56.72579859469242,-52.25325420006259,-40.060438297690304,-35.76207722122233,-35.64359024917533,-25.027328840748595,-8.112408443449263,1.0892686883364036,3.6971878688406825,6.778220801009814,8.89558288678407,7.083486385306612,3.6068413485868867,4.762787574702687,9.793236808665412,4.835666625064226,-10.50513805779395,-14.963431840402656,-5.481503386596623,1.1489496966653956,1.8356373349089683,-3.7936284929057145,-19.38654597418002,-29.75914890719709,-22.286166917248643,-10.788068081125985,-9.714892760211416,-17.00762629395407,-21.584027925906945,-16.029047593731207,-10.445417646141749,-15.152565850844834,-17.9022615093966,-4.605250530003777,20.128806656690465,39.98063281676963,40.92820612774931,27.144737034582903,10.560860975580674,-10.662806691165652,-35.15315744015937,-48.46011748280119,-47.25651856958341,-46.423669909961326,-59.94856712016589,-76.04146176898637,-74.95913027947974,-71.35258118111368,-53.25086417128182,65.60561565211619,295.6089351265397,467.7759508846587,374.1928659202944,0.13346985218441887,-346.3054038634051,-328.0960128509887,-83.72136919852545,1.7047469523103054,-58.7116850117881,-39.95399892915896,10.532215959795955,-2.8653524073009464,-8.51613891818883,9.265575677089533,6.028265413957506,2.1607328552903535,0.49979575889847716,-13.961423141215414,-16.56988102353911,-9.010090437549891,-12.014861006548063,-12.06855587759345,-7.064614338863398,-10.96169285769519,-13.371514579806586,-7.884698559492949,-7.541309474259172,-14.233898978740639,-18.027438892189192,-14.69970220128344,-7.5296678083454225,0.39953838200289443,10.855908654886575,24.277125082096465,38.310835483675945,50.826594083611255,55.84843492846523,50.92683360740678,42.331404357067996,30.84162325168838,13.545619878352507,-7.806056562361203,-33.47963938182163,-55.27280824392956,-56.550654453896485,-43.557023524260664,-34.72738566726245,-28.85469419572094,-24.441218941871142,-28.716074461262977,-32.2150393516778,-22.799506100267443,-9.837836095272536,-4.27499875483127,-3.882010388066547,-4.762443492578129,-4.335851694000457,-0.6016942650973114,2.315303864129991,-0.6585867898426798,-5.906402554581394,-7.487518419548788,-6.219518277541365,-4.0635360966106635,-1.4297219967951182,-2.109392706696065,-6.432669720065078,-8.010699441518055,-6.871532528731542,-8.158972577128672,-9.44408186217398,-7.877481583668402,-8.123157585422739,-11.670882302614311,-12.861266074331738,-10.225536888966552,-10.525187166831458,-17.2819674804748,-22.60429387352689,-15.93122555880401,4.912642441872754,30.78222506614369,44.71671690410432,38.76199715252301,22.546045081042788,3.9498511748681437,-16.349790791390824,-32.05726616850805,-40.50931496252457,-47.351223219844414,-55.72561703609804,-66.96777422499807,-72.94905058415048,-67.4267339372626,-69.57690891664892,-60.47234361239559,46.999895542069765,266.2892953762524,445.102453045284,376.5889593843722,25.85717313796154,-311.6199879768225,-303.47885653223597,-81.03325367789563,-5.488038502858039,-61.46530627641819,-43.50719408809495,3.3657849828499025,-7.578737215761329,-9.845444449378501,13.986818964766625,16.3795122782137,7.91513971970495,2.9757073521881487,-8.916503718218227,-18.872095620736086,-18.254877038280647,-14.180715274760903,-14.308752702836227,-19.490099875789806,-20.53958344012202,-16.957474288084686,-20.968003273018013,-28.451255379774143,-26.86935849153837,-19.825762918006976,-13.673578285384497,-5.6711670742182,8.415223326785775,26.132022228023413,37.91145769798314,43.39117247853397,51.67604752887615,58.79110851547432,55.779484155101756,44.25979126278025,23.91112941663993,-3.387297878242718,-25.509329411719055,-39.3185657679489,-48.79082651917295,-50.14379274347074,-44.56205854194302,-38.87473739032005,-31.873163006743127,-23.55732284327531,-18.32915928165958,-14.503244539783545,-9.877223130705733,-5.348200304400404,-0.36799530855352813,2.6178299057392813,1.6957138411393124,1.7667835141788846,2.7786224816967167,-1.6858912593136797,-8.206384634994645,-8.141207664662229,-4.749843533071088,-5.8544759165831834,-8.079976477074966,-5.593554810446058,-3.2689159541726713,-5.078001574691877,-5.6461120226533055,-4.60364556159371,-7.054733154814839,-9.91160524819722,-8.989426709247802,-7.786060386489321,-9.307760275287139,-12.311824080227758,-13.262499210069711,-10.38600716427873,-8.552468897787197,-9.951054597818803,-7.521901253405152,5.7946628002607765,31.39782399689274,55.64283396681412,54.177743340479765,28.748026129130455,1.4128149219170716,-26.686524970580145,-53.92531487488691,-61.35573536071091,-56.14385570664052,-60.84615823501055,-69.25684587703189,-69.93912416449712,-69.74159947587339,-73.79660778694921,-64.80473380769891,10.462265472199917,194.47729856310616,404.0255573966104,419.4433044752144,118.90669445624624,-262.8956481332929,-344.98751304088626,-140.6547645215755,-8.323443208592238,-44.226219392272846,-50.4026678589108,-0.9652402719794893,-3.496841852417557,-23.82192798567708,-8.008957720464357,4.020858617975886,1.0261088704475387,4.922220803693145,4.819806776558236,-3.289618744612465,-5.087016374584147,-3.290120084110736,-6.098723675655771,-9.361976601508719,-8.393207957911963,-9.182600875969854,-17.347671846533746,-21.893495115731042,-14.006737558288343,-7.837257934674618,-11.354647815315271,-10.065180591097976,1.213646653399588,13.806827392621795,26.54806921080786,38.49235483911835,45.59610420890574,51.127136582412696,54.1491955240218,48.03712180977028,35.75617227061427,19.62963631821294,-3.0684972417015075,-24.617413643182317,-36.762855592414034,-40.996993160373705,-39.293407115011945,-38.05353159577091,-40.48060845211428,-33.98316821506869,-18.407927352939637,-10.578448646693388,-8.550718142481635,-6.303255549141369,-12.461971645932316,-17.734160817594038,-8.06028184855202,-0.2113038220474337,-4.4810170012745125,-6.190566914947404,-5.160970844446911,-8.801586417420282,-8.993846411071317,-1.6199348354202652,7.654802120751359,9.664783514172594,-4.891243421563992,-21.517117251790474,-18.023205461506137,-8.459470341477182,-11.231952515309352,-14.63624143976461,-14.545284206477515,-18.175757499301312,-15.579203460039707,-3.944667335149628,-0.2767071042545446,-8.276924128034109,-14.974162215037047,-15.220949822740053,-15.086660605611762,-17.627351496919548,-16.065327068722137,-5.7640993568588685,8.668109064573713,24.35799770331612,37.84035991698839,37.22015444935725,18.856339288023356,-4.522132308192315,-23.668172108215987,-40.549769491286774,-53.99534543825092,-56.808900486667,-52.54686884492716,-54.72267365301369,-62.23743592102274,-65.77668828809912,-64.22397897318419,-24.931224006708803,120.47046081780199,354.61412073087314,482.2314797622853,281.8436495244516,-161.93248273493637,-425.3137698523898,-281.47306998984925,-36.463344192653494,-5.367177965841343,-60.29263906003214,-25.76351491756087,11.455393082993766,-4.211234977664104,-0.7584305919272731,16.345744993792817,8.33974596204552,4.974810690550527,14.377627818342877,7.14608613345146,-9.29952436924384,-13.349306921506418,-9.815938115744359,-8.999799787381518,-11.326064294874255,-15.540578381883927,-21.982465687576784,-27.76220527833331,-25.953028376004404,-15.002636805152285,-3.666680148757747,0.10953109179159437,-0.12795556465487845,3.949184776525917,15.733985457853915,35.233107202800525,54.82231709447075,57.80997837092966,43.36901037938566,31.40891273737771,27.204677448125317,18.26975039360452,3.5091754239794497,-10.753174190282305,-25.033753674273495,-38.15257830722797,-45.01869987629145,-45.18260410539709,-43.155050369506554,-41.688881370903935,-37.91785433287012,-29.25970381228393,-18.03225556015378,-8.381671540247414,-5.554398074062316,-9.394744186367483,-10.973241780026061,-9.119818815319599,-8.640861128279703,-3.2998129630344124,5.646771152458729,2.857719265641526,-6.275944170974864,-4.427365947274756,0.11150225054673335,-4.540701932537221,-7.083636732911119,-2.0834249984874127,-2.743123347654519,-11.153225977250038,-14.280402622039297,-9.203773901438712,-4.477168316270763,-5.456591748949691,-12.8372569106495,-20.440822927656974,-17.622649517448767,-9.138647087839725,-9.958141046966993,-16.234154355322488,-13.570538915313954,-0.5847156569799479,17.3923259647407,34.10315508379281,41.44264041530192,34.844092022697694,9.780526510870505,-28.604942541917747,-55.51407703821747,-61.43336060782616,-62.7581820679012,-63.74728337916894,-61.85547629562173,-62.89106952686224,-65.07705197958133,-67.61145813085155,-43.30663731274232,88.54815758251895,328.82954577425573,489.95358491717,352.0895375364636,-65.72863359082224,-415.06980568981555,-368.374379977777,-94.36800145643333,6.780766720977255,-50.444954302579475,-27.626013300867342,26.357860234475,3.3604805762826615,-9.975323015449947,15.64187213338087,17.820699381533874,11.385131546893405,8.809855727636414,-10.410115713224585,-19.387462325908263,-8.646152445474755,-6.551537062121785,-9.546312085323958,-12.541970419008702,-21.986227798507603,-21.78921210971781,-15.092708844531609,-22.813711753485478,-27.925296827488566,-16.22970790901067,-8.025282033820265,-3.2852762256404366,11.415719473540204,20.88780613091852,20.452970736038125,35.062701339822766,62.67894954422762,71.35016782316514,56.74813920215563,40.236821246869404,28.052405179904383,14.548752919568837,-2.8074913227506366,-25.460255585175183,-45.542898966191686,-52.69557332504604,-53.687313062741424,-51.53384852154797,-35.64423621501297,-17.09355523544517,-15.076692371223107,-18.933528662836927,-17.170999113987982,-14.13935850203066,-6.452450143643734,-0.4760833653715011,-10.212594724587781,-19.38644714601667,-12.81340517330302,-4.982898100521229,-1.08683176339464,0.6682574607051155,-6.387152376892878,-10.236217029068708,-2.5821930937698436,-1.958156051836104,-7.1633830586128795,-3.466934114477752,-3.2519250299584783,-9.752237033633524,-6.716391645843959,-4.379166347890809,-14.566225000498669,-16.800883857409946,-6.624126625115899,-10.077833772377794,-26.933331409529643,-24.218695759884042,8.407039115160654,39.713981997962705,41.6639242184728,23.85131112607344,4.570959787921045,-14.961092983930502,-30.65698892047698,-37.400337496480915,-44.82837924261504,-59.22090523443454,-73.17105460287453,-71.33192525122378,-51.72869134022014,-44.40401484643492,-31.272606198374426,85.88011912569202,308.07744614843244,460.15090081203846,353.6526196719521,-27.180268640314324,-392.4636657130437,-379.13993028959015,-104.00629028215376,6.558047801905975,-55.5297678570447,-36.00949457251434,16.152832685180506,-9.260396258189697,-16.88042042865225,13.205268572699877,8.505627993171924,-1.1951520997978813,10.785888640761865,8.777775778453915,-1.7029298306968865,-1.036777773070181,0.2731247131820087,-1.747805832395085,-5.240806523072089,-8.958838637672228,-8.047447204815846,-9.96431667335605,-18.196545776601802,-20.81122080734312,-20.546820318472747,-23.278159355328565,-15.678013506715104,2.084876215523383,17.32536171561897,35.95133463946181,53.53029919740568,51.33038661582917,45.091919349593724,54.36639375536732,55.164821843566585,31.942876027276718,4.231081422205676,-19.27235664625488,-38.99884395231898,-44.93546482831232,-39.80034564536872,-37.07008179585061,-38.4088355047187,-41.3653652287371,-42.3002837994447,-32.42390381030195,-15.426289951188956,-6.782106126694604,-7.330050231004066,-6.752460617460976,-5.700942605852475,-6.6806729659093165,-3.127062027826817,1.5171918592524314,-3.087695669120194,-7.981612171458513,-2.593598594422284,3.5617054403318704,4.795541948758027,2.936702520195288,-5.031955852927977,-10.082593604430059,-2.9447539483019955,3.667917456704415,2.276957894793904,-4.044971594510541,-17.569231168762798,-26.965480595159434,-22.2879919507655,-20.23618309505052,-25.841224321575687,-23.952702348336913,-10.584767633113124,13.837874343931563,38.06877744573538,37.01912227011594,14.811414690523451,-5.645812346134067,-24.27041381862928,-42.926884287568775,-51.40712556265834,-49.645581845875824,-50.709638786395104,-60.60723594970585,-64.5786560062624,-62.25686798283067,-66.10634565699944,-11.37676363479131,180.9779756902928,415.5824813702663,469.75904735896756,215.58692391902042,-206.84388541800183,-415.7983321117204,-242.88998831201474,-23.488105332608168,-30.65334929526411,-75.58052918604156,-19.131451836334577,4.529175511861176,-18.942918611416324,-1.8552848399637112,12.883893891900815,-3.3508006723545307,-0.38353152209567476,11.714109286761431,3.698987233314112,-5.353101892143155,-7.822987889328582,-11.332780131130484,-11.031639539270667,-9.35514271821691,-11.18502616718846,-12.474771555027127,-14.73572169312228,-17.55180221345598,-12.21776671108168,-3.844338828094262,-4.1581752063924124,-3.4106266762585764,11.02150435906475,28.786689221135404,39.492968569437174,47.61537912017444,52.77189892002829,51.05111635753495,47.131153388637706,39.38033220314878,18.19467087655378,-9.206348335394424,-24.892040775752513,-30.533645372926877,-37.882777400538515,-40.71297357909453,-31.44956444256037,-24.392066302852527,-29.86036777993776,-34.41417942790494,-28.129282030266943,-19.604926714979136,-15.949114750365474,-13.243936768493448,-8.142446939696455,-4.2020761125935095,-3.3467248288653693,-1.5846265061306006,0.8635090284936702,-0.18173932056877362,-3.038651079756857,-5.748742230938042,-7.580098534277337,-3.9129978336067026,1.726262838193442,1.347720519825188,-0.9682364486051611,-5.572623256379618,-18.043602681177205,-23.811193548364606,-14.806823038530654,-11.492556208686413,-18.689620602161522,-19.876748992552763,-15.69984170650287,-13.08012268001886,-11.515632863687971,-15.98571238936065,-21.322289164790746,-9.818996220901436,15.981570342639277,36.46627337047338,40.84401720819065,29.44828767827333,10.623229823738246,-7.493174735154675,-26.81573125447774,-45.82712662233085,-52.90935222251592,-50.64873792186999,-56.83508090792273,-66.03793270299504,-60.84171000439113,-62.292092186960545,-74.81280438877391,-16.10676452896795,169.26610659511107,389.00936200539206,455.3481271501623,223.5176691534301,-182.7777876165726,-365.64989149629344,-191.20738603051996,-15.417509283912999,-45.69387012605749,-75.34421969913456,-19.455340816742037,-8.035042401880055,-26.103507174561837,-4.360361471164802,9.174565396633541,-0.13793637047099416,3.615033170749861,6.235004584728139,0.3224639847574906,4.1661814221941125,7.991971337221182,0.7689055359103598,-11.7823574422975,-26.015172654121596,-31.425600987932437,-24.517576482624122,-21.093095433175876,-22.558191864004122,-17.146053301411175,-9.006954192678144,-2.8178329380971108,8.641858325400928,24.583830332985332,36.148024422386214,43.275844588654294,52.14473632805375,59.84045064834141,54.73672379482163,36.557639391473785,17.566450722087374,-0.6455047143882728,-22.399337484085457,-38.01475248722593,-41.49424003625053,-44.233173177507574,-48.67374283371135,-43.75291061165114,-30.977147302171694,-19.50540005948227,-9.726640201867447,-4.335969701183149,-7.482948083626553,-10.831655627158456,-8.47433570921654,-6.446077848063947,-5.2163427131398095,-2.46324334375149,-3.2030418592149523,-5.65747550704474,-2.007625322076823,3.847343900226937,2.474562399492326,-6.01701519448611,-13.320379315793428,-13.749307690391792,-10.850809073113279,-8.405791767430788,-4.821796432986844,-4.009186179610914,-9.652053078185938,-12.572311342703689,-7.591418355977716,-3.083210478043796,-3.1328267492832715,-4.795389345199563,-6.966684718336921,-8.514371521439417,-8.965904533606851,-8.618672410434955,-6.649117847612818,-7.242046962279659,-14.857018095444577,-23.59905000227006,-26.328970776998354,-20.96257532716287,-4.802995300669908,18.858020761564475,37.73166704073364,43.89053794138896,39.958181959021935,32.416205856551144,20.00421730727469,-6.991644043677258,-44.83883405092363,-69.90590149543995,-70.85769119446931,-65.72044875828851,-69.94501672506104,-73.98687558426651,-73.89280437042969,-75.50271533621229,-41.266925955327125,87.46764542148325,289.0592421291559,426.8387314165581,321.1515485468986,-33.16756215999694,-314.29550107256296,-250.39438563342196,-53.911630428489964,-30.420964255574532,-81.4325202432874,-44.45751338545898,-7.609291304195196,-19.07653271703847,-10.187031090262197,2.4941754246511145,-8.172840075226514,-4.553953628396788,7.053491940455055,2.487721548452253,0.11678273183053811,0.1466672366489803,-9.083959886774748,-11.374642388965263,-6.009214623385919,-9.792662958055283,-16.74325756864719,-19.596375278573355,-23.72019792903425,-23.416099294310232,-13.568833548019192,-2.683127144092472,6.272222627269394,14.56576424770488,18.99844851423554,23.87033071688605,35.678626847635854,49.653921487833244,57.48826032759886,53.23488928632333,37.4278818337988,20.767287527292343,6.799739073333517,-11.645165178154363,-30.71062696952885,-40.41199365063888,-40.782123213742366,-34.8680354852562,-27.01188936887128,-23.225545657773043,-21.508510953471177,-19.050371873676962,-18.262849846541346,-15.828043355737606,-8.984732714886789,-3.1276044158360268,-0.37141251033659906,-2.1338931131732757,-10.07385207628366,-12.084584985497042,-1.5637033658621213,4.146892290508838,-1.3192321251525527,-2.450553022523861,2.7172123181669283,6.049362931168596,7.432532541042594,1.8411908041941238,-9.936179561661465,-11.24619459203307,-3.0241078925708997,2.5158289622041314,11.666445475370185,14.569996984177964,-13.213037857722355,-44.82513539891025,-39.059948219183966,-18.555014289499624,-16.173467862249904,-18.40421639554905,-15.39148621093857,-16.02596673938482,-13.632254087722636,-4.333187490266484,-0.941776595509829,-4.650462028105524,-8.134599038558427,-12.419009679508893,-15.857887807559473,-15.016965900976345,-9.596107993935979,7.518189677179025,31.36497386379784,35.607238540753634,20.35921137526705,12.439481505989821,5.0557860210871794,-21.627528581939224,-47.12441604508258,-50.63325914795921,-48.20605704140326,-55.33445766460828,-65.34340103140967,-66.96714188985968,-62.79434175075945,-56.61693649375649,-3.3929507080998746,162.92278612466842,385.4630262441908,442.603946935139,175.71428483713726,-224.72997743231554,-360.5484130763037,-171.926775700242,-9.181030256171177,-34.07380613291934,-58.37572559490373,-13.705696130573479,-6.734669743233638,-19.72790018683578,2.7373254042892476,13.261404857678425,-0.10066082370913954,1.2388313057019635,7.665437782666384,5.966790222438964,5.743157820857787,2.6414103459920604,-0.4758171378287255,1.7743189156076156,-5.037441738360732,-16.266734893007154,-14.906011124733332,-15.63275608334848,-28.131963247803835,-29.96455142010503,-14.327664164505126,-0.30315444031180583,5.335178243519367,13.436104176588268,28.727897721025876,42.21534928288298,50.2418001286748,58.43363232518067,59.467338744866446,45.7027768177013,30.06386874143743,15.408860170690913,-9.225621923305003,-32.01123475006869,-38.42989036620326,-39.17434448162805,-42.86299572240844,-46.36431526761114,-47.662833988185255,-42.31985183663068,-30.426425778980914,-19.08304317726773,-9.770860224747597,-4.807109558106152,-5.909100393738527,-3.8243318713112053,1.2600587629311164,-0.3431881143405935,-1.0227569724141894,4.313772846778976,2.518648211986461,-3.9693935786497114,-2.1217838149137016,0.8725788565448234,-0.8976721053452454,-0.6269058003918158,-2.921504068623033,-9.802764016914821,-7.798133148602783,-0.6807651568984028,-4.089535426316138,-8.82473166320376,-3.670307371891525,-1.1272241987172205,-4.646119355080181,-3.330744472430541,-3.0585196696798356,-9.988413919399957,-11.567654633303745,-5.811903812677506,-4.495882592123939,-9.028161438736962,-17.401750899571518,-25.935104096380186,-22.601585325437977,-6.6862046517041644,14.064803228327303,38.04038985507583,50.101179100867185,37.387674500172736,18.953167193752993,2.726874184263174,-24.981870665296427,-49.19103224502156,-52.59423789224029,-53.07017149024493,-61.383083643561946,-67.82370452778052,-67.48226008423394,-62.35106525071869,-55.48806559795666,-10.103907640751856,150.6443237613187,391.8987794617136,481.74575816107813,221.53538887777881,-225.68857830480334,-426.0724131320433,-238.05340143596317,-9.727692411484393,2.547341810431284,-39.834235379510545,-2.8671608090360152,16.430425055749453,-7.763647734265215,-9.45631046606615,-1.8501566369557843,-6.761346213352503,-6.176058867035732,-6.200833255071808,-11.809868340801366,-10.470346259830965,-7.671651326820825,-9.507294894699026,-10.002512281471454,-10.840187145233166,-15.33763776599868,-19.736681825560176,-18.604043209889376,-10.068397847085507,-2.2473917027024344,-2.794250097263747,-4.7093598728446135,0.795015757747771,14.024769079605935,30.984247860141924,39.858184871235736,34.25035830160145,31.86579281856742,43.70644381849787,50.380387748320864,42.30500457509567,30.55414190459155,10.584423630103025,-20.889782284656405,-42.877623660476374,-47.94865493899347,-48.02658991694304,-43.65894517298508,-36.87425754985601,-34.41610440079878,-27.22114059761796,-13.42146616348338,-7.401040534413561,-6.560303426192505,-1.1503626870494124,3.1073640243058023,4.6005673602310875,6.007936864379169,0.848587105340874,-8.496716928309183,-11.77305193987262,-10.598234361818246,-7.2271759501896335,0.022277875793056623,3.2954171714384444,-1.8694191928898185,-6.262910721565737,-4.9766737956236184,-2.2243544540460363,-0.5868497073311314,-0.896365025554859,-3.6499056011225193,-5.767661369333409,-4.619788795207105,-5.0151327142440465,-9.950241473859311,-10.032074884818622,-3.9584362617350983,-8.30907439375212,-22.613290827346425,-25.840483740973156,-12.270633292780541,12.609019706528864,39.18555363701027,42.319658267581396,18.66609777772268,0.19398923093257725,-6.587174297991415,-21.99312803632846,-41.932030795210494,-51.30700348828597,-52.68151261453434,-57.69388232298649,-67.49361254273501,-65.60559340004103,-57.72767774339273,-63.562565918256446,-20.552346120980978,157.27781769693684,394.71320768598247,475.82625243517487,244.20563650836633,-184.67688893431114,-415.2292148027923,-250.72296337901037,-18.78541000043517,-11.28888337542713,-56.49373157836112,-8.717609170850743,6.228748259077548,-26.106278710018557,-9.684131599724756,14.475155103186268,1.4584860934357309,-3.133153433570783,4.1497069463052565,0.11078513886580232,-0.41308022629797847,5.780850689310878,4.799147970722736,-2.1418983252714083,-6.975874937442474,-4.260949881505198,-3.290530914741458,-18.982795003298598,-35.144432497247905,-29.59472363742488,-18.39239147432025,-17.82352191913371,-12.015547818457463,7.319391792512365,24.212491897680344,30.55049756148132,35.80264871223117,46.213754236594795,55.453020533319595,56.91802253633624,49.67090646490318,29.919051692837737,-1.3026092263903566,-27.630422480022435,-39.12456872307983,-44.074056503147894,-47.355236724456496,-46.45647257415288,-40.937629578463486,-29.53565837253541,-17.723832315849272,-14.83079535326307,-13.635750041896294,-6.893786193484683,-3.4690354358563837,-0.851862325531858,8.801513499974728,10.031574630426316,-4.9269859182846805,-14.658059619365996,-8.828541371617794,-1.0854830055796452,-0.4994885127509878,-4.480268590612665,-7.8103756397447555,-7.2353784488357,-4.048017513953704,-1.0575733499979414,0.29033203179880473,-0.7546863713758007,-3.6855191443759683,-6.525925374933856,-6.283619539086791,-4.380401146001709,-8.248813544118747,-16.83994941575955,-21.239435472379785,-22.613006926856333,-23.664567489102485,-18.393575826236436,-4.168096304601318,18.850707612962367,42.79555244403163,45.75453167190093,26.819256502199174,9.533904909025551,-4.83379019781978,-26.21228981032268,-43.760474226361694,-47.88611570321355,-45.72828353623962,-51.93154863792389,-69.62312822901359,-78.90298546361757,-75.72851667125408,-63.045532647413,18.855538575718867,216.89976686855675,423.4777375544646,423.09983125023376,115.51857319131643,-267.15472094794455,-340.18718548159876,-121.07721680405837,4.035278173860888,-48.02005930657643,-51.81626319070241,-4.358365421759075,-18.267697225415514,-29.976530856670173,-2.7522629716613114,-0.9668422735085755,-11.780226252441992,-2.8292974705359377,0.27247177972538417,-3.9937530334002886,-2.764760233191785,-6.02216971315249,-9.971707096909357,-7.694176789939274,-6.58107136303753,-5.95427037178191,-4.544952833583176,-6.428492209463723,-7.684037810188579,-4.831848851173205,-0.3715774539868102,1.2611091621829524,-1.6770873806494075,2.8909750659366917,21.461118516141283,36.876503540180444,43.19735744724685,49.06103970607316,45.12177833818794,29.98729921354833,21.500947700843035,11.789999777492193,-14.910106328098252,-40.73574356940732,-49.780420189786156,-50.92700279861623,-48.07288486175453,-40.43691503926455,-35.459186970832604,-33.539291242829876,-26.132238979377902,-13.48120787577418,-4.478915052110633,-1.6476929013197292,0.0824842603673801,1.7767669173649345,1.7558091887689002,2.700393794643258,4.9078038168620886,5.159121317330237,3.1670925895107764,-2.6430133033352323,-10.610202376664015,-10.516240586459416,-3.225668026630334,-1.7577008734722455,-5.353771823330003,-5.830107115371085,-5.682693202948091,-5.857672805106612,-2.543574743588363,-0.19684601419363013,-3.8767662070627456,-9.336886832696171,-12.102132681573003,-13.765589351650526,-17.124733082756535,-21.474826350143687,-23.356664397424804,-18.357799941004743,-0.791263669938397,26.971591059611942,45.50701677257129,39.95389750543614,20.89902724092471,2.623478545698693,-15.480136293101861,-33.49709760333869,-45.16163334395557,-50.03341884802974,-55.789641893571726,-65.96774714245176,-70.44871711261054,-65.79602265690596,-64.06217721601072,-40.390554236176115,73.37681154548105,281.33985128532584,441.13465359949805,345.653112667312,-13.025613860685006,-302.58603359277197,-246.5282806361727,-47.104510996643086,-11.03016914857583,-56.890192213576725,-23.973509157601754,0.6717372976617852,-35.52615167198081,-39.49505812575301,-9.899404297179906,-6.5239357790420875,-9.464988098614022,-1.2190295266041566,-4.72204424497594,-12.037077462554945,-7.567182898369133,-4.922444335814017,-10.43362481190985,-15.127165031659121,-17.58100947393601,-17.966033640583937,-13.038727159925928,-6.2883366195383985,-3.12883308263989,-0.8234192868654504,4.09946118099159,7.745974005351465,9.135457209356623,15.8829181611381,27.59915775814968,33.46910245906137,34.04007738667104,38.08126893934505,42.79226504076097,40.96889902099432,29.0929854756809,4.91705616077767,-21.889919840242232,-37.563740619261495,-45.40202667507907,-49.37796557848567,-43.79955451532453,-35.5732740320147,-34.07622814750192,-30.630433215702645,-20.07803808621178,-10.416685625620646,-4.795020015946182,-2.610304635716261,-3.935728123036263,-4.190743229366165,-0.6068319542010592,2.759843976554393,1.22045737730053,-3.8751120535419243,-3.7486500804013243,3.1960234541481958,4.822452477663423,-0.8032266250843083,-2.773858978391674,-2.6510577334699477,-6.033873538488347,-6.540057930267457,-2.923296931291853,-1.8394435721043987,-2.944292969275039,-4.523023425227197,-6.6344015777180685,-5.637261714088298,-3.528086768391736,-8.60094329051776,-19.609937903416323,-26.571697462263216,-25.433112862518062,-18.532018758511704,-2.9324156914822144,23.986839784237745,46.202856244100325,45.858454598841405,32.07313704676917,19.020476475046557,3.046190995223051,-18.60554445204649,-43.09747787509513,-64.5752323975401,-69.9885126717048,-63.82334283417471,-63.47538826389,-64.34230445852155,-63.38055266460205,-54.98981381163266,20.953269598548815,205.90821983943482,397.4458661065887,388.18858163898153,88.42729053737045,-262.12798140966606,-310.74057052215835,-107.9054257614072,-3.8505242830766733,-48.323331784219775,-49.08404756903372,-15.021766161403399,-26.83404782786288,-25.25153985009263,3.56260936631708,2.1925051972990204,-9.106301416253109,-1.663237461830728,0.31029104709281796,-4.3938037380531245,-1.7331248219107156,-0.0414719928033378,-2.705541464190814,-6.131416294816887,-11.456362850950036,-12.274735149298763,-5.77095152343561,-6.15103348076609,-18.091043031722787,-22.85842317472359,-11.387099466259277,0.9555040884075547,6.428029821612682,14.852287881719555,27.244700072728428,34.89785085975951,38.94099454241011,46.70413251951449,56.270083560649155,55.55421115134728,38.81609483323798,17.33866051940884,0.3057182099025546,-18.28104995702772,-37.841459406667525,-47.288369218946706,-48.023402260339054,-46.617367473216305,-39.7078397878408,-29.751893232779814,-24.851394604210128,-20.62406426017965,-13.587733838015637,-10.618073110850649,-8.165327074135302,0.6993584686698142,5.731283806925088,2.5547220166351874,4.223666015332114,10.439816188562713,10.97128587277623,10.07439159483707,7.434751390012339,-6.109171854207801,-17.748961448719147,-11.343293644578395,-2.8363854253555694,-10.732125537866446,-23.498905802086973,-23.259070798834976,-13.821980807109771,-11.564158817898468,-18.388307720954508,-20.426447210683918,-15.738604407531039,-15.62410180750188,-19.996052466778234,-17.642746097389036,-0.7033890180454989,24.83611554570396,37.64983153375064,29.94011955209716,17.778321703880145,4.627318081371932,-17.657724772551532,-39.94899518146957,-52.56793293302189,-57.64444893987418,-57.21066653818714,-55.793693685921184,-54.12389806922154,-52.49513781475177,-56.36674151497289,-23.33679103059672,127.68545557613608,366.21879397688906,477.2971097669003,249.33728624978238,-201.28046244446358,-437.08892877802737,-263.7640158737397,-20.579124174950145,1.8380174456288714,-45.302987524837064,-13.766227488117487,8.558095324156984,-4.22808809712995,2.719065226450036,5.993553965096767,-3.993906380051051,3.1207006123377443,6.659829327915325,-6.33135415297879,-6.580583466155931,0.28827478060630085,-6.952880788997621,-13.226373116131596,-11.098377558088178,-16.037310984327924,-21.373592924381505,-13.87021482174589,-8.869593869044197,-13.893296550087463,-10.526423373930681,1.2758326661686241,7.156773198865139,12.697761871228403,21.619589698781937,27.095813707951827,35.2023627020245,47.0897251176399,51.434002048843865,49.727912990686974,41.105369121267096,15.488987418939047,-12.703454055734152,-22.028041683320453,-21.96633262350151,-29.138642011633507,-41.07126135498217,-46.36967787205693,-36.841204488292995,-18.386887865177787,-6.836242404905253,-7.727175768942303,-16.883545175879732,-26.458486135040292,-24.68787863159617,-14.056803533986084,-9.95613080327725,-10.956941877585884,-8.14743443158137,-6.670682557008259,-6.858155588571549,-2.2616347480226224,0.01806910917614246,-4.811604384065582,-7.776202270471048,-7.250283475207652,-7.348166029012329,-6.356619337988434,-6.903667804910022,-11.195710570708142,-12.116268298522634,-9.041571073870607,-7.836579340434103,-7.678829926008422,-10.989698881546005,-21.14510806489185,-24.02949669372818,-4.997080180586753,24.2949608461725,39.57371896313208,33.40828020264303,16.90574564742937,-2.6949558799938504,-25.080468906005045,-40.99615796144506,-44.701067333741335,-46.45219169398097,-52.55711680620343,-61.4869233698199,-68.63086916017996,-66.79324551016639,-62.75721162301432,-35.07209527098842,99.5835771784294,340.05492674123553,488.2304434472906,328.3179888308348,-92.98929217115615,-416.84236734003616,-347.4728690491985,-77.16612538150821,13.069373695910748,-45.71413175331437,-22.495902612766077,31.97850504314049,8.369337969692769,-12.778538509484555,6.098804903895883,6.915353543945347,-1.5423443465205304,1.5985653706459368,-6.121457136724441,-16.313849031411397,-11.23404972378188,-7.3772477065218105,-11.513433639680281,-13.03674554895327,-12.809336677817253,-11.26981926127867,-3.732092766623103,3.3702085414156957,1.7430195094889145,-5.990852818927737,-13.634287883221077,-13.468552419008487,2.347900764531894,26.115754549453793,36.55581274140518,29.450336167614267,24.709450765927734,33.52097841080551,44.49781471672855,43.3757159723312,23.3090588128995,-8.249215593702747,-27.342809053018613,-27.497479777583553,-30.45839606906071,-41.64985183647735,-45.71750673838329,-40.25638070926576,-29.639453601905913,-18.276929261637072,-16.426021005990982,-18.400658198445537,-8.585021664100122,4.1197811977312,4.496875433184417,-0.5584593032312597,-0.9391277540752565,1.0624295807353796,-1.1248528978122163,-8.286668654800057,-11.369244765611256,-5.636813210078099,0.1290433282695851,-0.6002076129025689,-7.108151121643083,-16.319190379334795,-18.6863810111441,-10.745673455731144,-4.497192290631066,-6.381629312115788,-11.623688571564026,-16.671613971228673,-17.475625555603674,-15.684849438000041,-17.953423931717094,-12.038060466050446,15.600381260861855,44.10493708821461,49.12865298901286,33.97320834446713,5.949378990450796,-24.65417828460776,-39.95427411545805,-46.98777335147153,-60.33156185664252,-65.91388256432049,-61.90451572198288,-64.87295729709052,-65.47943012677825,-61.93757701517898,-48.774855669798,56.30967989360964,291.59826390440725,488.87739692945354,404.3198452509297,10.422621908070937,-372.434742625419,-376.883639721602,-107.35853395595844,14.599812004694646,-58.78109149338381,-65.49072174946991,-4.454290638579039,-9.756877027122638,-23.52671852294914,2.412549361158426,5.391667336301211,-7.000715141095771,2.616133004660961,8.84187561273782,3.107544880979763,4.4316506693235524,5.369229007618984,-4.055206386397762,-14.374208270730367,-16.897931026245278,-15.718927905542163,-18.906683005267475,-22.73721248100747,-19.817168748658567,-13.85935867765231,-6.509172964594908,4.5733111583984325,13.304015377068554,18.941862887168796,28.0936216344765,35.26415721230879,36.45520800845798,42.041084762969305,50.266866615923256,44.87785368778148,26.49427200373134,10.013105784340716,-2.13579144662963,-17.125158078301617,-33.12369417418915,-42.2540999809599,-43.44764037069878,-39.603971377686904,-31.390126191245724,-21.43287574859224,-13.992436565850152,-10.143673158167678,-7.9214452973697895,-1.923941815228213,8.346563385475175,10.237416878888773,-0.1622182295926482,-5.508016213260423,1.3110948578363306,6.48936452889315,3.640155355996459,-1.582104909241096,-6.285657823802502,-9.891895243379125,-11.699256315022964,-12.12661743527573,-12.237468512807187,-13.283797954509552,-13.55649212640459,-11.609834194416901,-10.945738089058528,-11.882764898099753,-12.17009817169356,-14.537850109174283,-16.43780888786987,-7.642541043092912,15.566256352661902,44.284693115099245,56.47719609733579,36.9776862103772,3.9170859569471075,-18.275475026354417,-31.226371156660537,-40.45476788825582,-46.086416598433786,-57.38973164176101,-74.78326667357217,-80.68026101239482,-74.1925886210671,-77.43170882012745,-75.25516082548813,5.89669634857745,201.86506137686592,415.0676206445296,438.85717920082095,143.29663644417434,-260.64280108734084,-361.0853232328319,-141.91897818264607,0.2814345360946007,-47.942467883869675,-57.112851235351194,-4.714504227366412,-12.552351151140567,-27.229655934322974,1.2768690386843797,10.10579348488082,-1.850428815117347,-0.20010937271350304,-0.39851699670883,-3.6512531736721296,-0.09394203973449322,-2.2323278756913183,-7.306707632643749,-6.313203217233164,-6.987578533718984,-8.029466342180005,-3.8485712481391516,-1.7006298968358182,-4.760623612796047,-8.98308652783018,-12.508599474942343,-11.757015417536937,-4.15789031138066,6.900630069945497,16.800092882862263,23.839074746612397,31.26057350969092,41.885300739872164,49.273004270399575,45.258869162022805,30.92234117145696,11.45758565751656,-9.408986071394807,-26.48206980517356,-34.4853428888174,-35.43813778006498,-35.809542133071076,-33.53714709576077,-24.349350637337878,-17.075430594381604,-16.99440228481324,-13.822895175069789,-6.806313716370248,-4.277981062193529,0.02975123116777567,10.750000539377869,17.687287211830657,16.51025508811035,8.206254774305492,-6.99670317079925,-16.635675393988407,-11.322086852372705,-3.8216106904161595,-4.872541366560817,-8.91139748461121,-11.176958120018277,-11.21330355805119,-8.873284253085458,-8.649431596253224,-14.035327292531766,-19.96766540010389,-20.211886242751834,-15.899028179711658,-12.785308856485848,-14.741620004782579,-20.896124615471667,-23.130878604455972,-9.251959173818381,18.666533659452973,39.029666928354445,39.2386372032981,27.63195831484593,9.54875420520183,-14.585561823018915,-33.90437907029347,-41.17071880551198,-43.514860373638676,-49.190945808092124,-59.92104917911681,-65.5397844492478,-58.245394493543046,-55.955183823968156,-52.94597164512938,23.001683280884123,213.0301890858169,411.4889490301819,403.0489112885411,91.13903074917005,-269.86970104366446,-316.2299745116042,-113.40183801806309,-18.10067766155312,-64.77725759246384,-53.91055977086967,-5.922259018124663,-17.198551259317483,-27.734512045631824,-4.763108869709814,1.7390240711767273,-1.2301655125954465,6.113413953233143,2.5865446588197916,-6.412313492161333,-2.7249475433885504,-0.3396197889604249,-6.931711236200398,-10.669871477976757,-11.290599322195266,-12.85519458397905,-10.665873451578356,-5.838447416644272,-4.720127620953994,-5.761064759191223,-4.648356376790161,-1.1578932934817687,4.554617641379702,13.330513953316483,24.53174894182959,33.817745082799604,37.9828504515411,41.843802316419115,47.803000557597244,48.213948777802635,38.74890106845548,18.650464486031414,-13.195829260214941,-41.7789896539485,-48.41080297624116,-41.89662024546473,-38.23020347043088,-35.09249046964041,-29.900571210399086,-24.285790151751577,-14.851531133187308,-5.135669354579457,-2.7158026790603778,-4.721642673960909,-6.592957425771319,-7.041719837481569,-4.04365758502407,-0.3365196011689502,1.95289641655003,5.013012140080331,4.2971252968531335,0.3062756369858288,5.064354502087639,12.02234695385032,5.097637193636025,-3.1094567662363772,1.718521978852051,5.628063898197969,0.3456586632314327,-7.434326831595115,-19.062230018892638,-30.879086917775776,-31.415875570593148,-25.071161910637276,-21.820579525382783,-21.319025560844867,-22.536895950095687,-22.762108905458515,-14.92455965242243,2.997392916751216,26.031334966133286,41.53008779444902,37.30315417978022,18.914034334153747,-1.8164683275429798,-23.1799544000474,-40.98693161916108,-48.59066259179451,-51.13238213781806,-56.24335667933582,-60.705359741438414,-59.09788132897949,-58.198548469495634,-57.62971975032994,-10.6104854437054,140.5508906088411,350.9574387685444,427.7704247739302,199.05799410773642,-189.7247281429235,-342.9255019081827,-169.65730582380547,-13.631011336533149,-41.92805445277617,-60.39915757626386,-6.770547463255852,-1.3666076986446427,-21.2844239010295,-1.2020765850202473,12.042362201542378,6.724496069634921,12.712164854851753,4.893675636562332,-19.147783613836314,-22.05454529952234,-12.57219974811295,-12.681979671803976,-12.926509426792753,-13.276267516796992,-20.030324684048196,-20.022873645584877,-9.977485644083243,-4.916764303363159,-6.162066553631488,-3.16341150163598,4.191556283735142,11.15815952483355,18.32387838727103,24.355311814475694,26.31066706125192,29.370179900032767,38.24907812930162,44.699547565961424,41.437564736448785,33.59117827997905,21.977548552163615,-0.4694866755759346,-27.534808490035772,-42.57795243967699,-42.72581091796626,-38.24372020353066,-34.06083805537843,-27.56624389239638,-19.561594334655823,-15.066944416849516,-14.083067760569811,-12.490974729637802,-9.577609402665288,-5.81913347119845,-1.7668369644006319,-0.3139034948835384,-0.31232427489513626,1.7754510120667444,2.891778042604102,1.3376938321855718,0.9556079530718105,0.5396974623783839,-0.5500485021675328,3.808007316717277,10.340720795273114,6.747705907985464,-4.845805509628725,-10.332251084959816,-9.412768578255807,-13.853689738133692,-20.779386224442558,-17.11642035983118,-9.251494328485213,-11.711119954526303,-17.545070228566892,-17.212907952318993,-18.24010254701388,-22.175694895168206,-20.94614385420244,-13.706851944277563,2.0128470655285566,27.364947969769993,46.14499171243767,45.739154760794904,33.358606918740854,16.159624131572443,-6.285785908549847,-33.32790210760521,-57.04315714392945,-64.87147783424275,-61.28184565815425,-60.40167355442818,-57.83192837649579,-59.34038301768822,-74.9533748940067,-41.64362307487144,120.79387098062756,349.60148278401516,432.3411520631089,204.39334463851233,-190.03652385154885,-357.51257780000986,-185.14843002542455,-10.295789343221813,-28.49716506671017,-56.225002547096615,-9.950210503485422,-4.64006340600244,-29.432628674113925,-13.676794785783715,1.0716516310012523,-8.309305895112448,-5.5601649730753735,1.424171384801861,-4.363931635498734,-5.437758098390248,-1.4575585594643865,-7.164205841744176,-14.378788086186834,-11.511331382072225,-6.703607764457059,-9.201888726741284,-14.11267233939443,-14.889892470601875,-12.197768842260519,-7.04839613715515,0.7701523872767164,9.850759735720157,17.984025819464613,21.8955892468991,22.466592103004274,28.02564547663968,40.32638107931481,47.956128415771126,43.110907915984264,30.933013414745243,18.151490306162216,4.008137919716489,-13.76543291198287,-30.2695711951691,-37.51397352469009,-35.3154133993544,-31.01452117742578,-28.926112159770355,-26.931362300958842,-23.943278658485376,-22.299727639403322,-20.987017071556636,-15.292679415338277,-3.947921989856578,7.486160265976839,10.497031384519634,5.491445647676061,3.5545497133065265,8.243628089642351,13.963072853521,18.836356680182014,15.375985393330426,-3.0338614840438467,-17.375174157056392,-13.08473172340868,-9.941661965316884,-18.60953860829844,-23.806599060677243,-23.349964063672225,-23.04413253994664,-16.62149791672987,-6.919283572982774,-6.4073070567621215,-12.973574537489844,-16.006742052152386,-14.165100306358301,-14.517464349958201,-18.853132693065568,-15.58121869266721,2.5551011965884474,21.335364153003592,25.453918829838575,19.55736067552225,11.4294815922689,-4.259857530948468,-29.269659040358988,-49.6260152535468,-55.488942673655345,-54.73694638661037,-55.343629012073634,-53.53541105182312,-51.12405206808283,-59.08614326861253,-53.184570041645614,44.554304670587925,268.20523145801775,476.4094456396973,405.20301791818395,-9.204170711550873,-404.9851816326543,-387.85461640146895,-107.03728265286354,13.867881101978304,-42.82168582253108,-41.11266828402191,6.869289421961874,2.580898433232413,-1.2440210857380132,12.240764764028048,0.04576466207605989,-5.008174568525928,11.887176760735098,10.142717796125208,0.7069107596335584,3.0835625355455054,-5.401253658326397,-17.22064485394646,-9.633847844802332,-1.9757035372771172,-8.404150146218344,-14.797092305249127,-18.64442523687803,-21.913026628589776,-16.069671065663307,-2.1915578514458054,9.579695367707664,13.53943311376897,13.068546739957547,21.302222391821477,36.48353870468425,38.043857480723055,32.194387861744474,40.27909428290998,44.50081134611287,24.86005739231438,5.066687964807265,-0.6801748304342343,-11.629760140032676,-30.010016180779537,-40.00013038265858,-38.995764760972335,-30.531744360622923,-22.91116861576476,-27.833811148669923,-33.9689019669705,-24.364100594291237,-11.921295471736691,-6.186210893334687,5.355527966584841,12.535695840810012,-2.5756741984915195,-15.714566630679222,-4.875662502923614,5.621776016563796,-0.3659583655603562,-5.832278355672372,-6.4232951407234395,-11.333961678812326,-14.486747388146505,-9.901502252866063,-6.405839025777567,-10.183803018148701,-15.597309814429435,-16.286803007985707,-15.511095948475056,-17.312248161909256,-15.491522950934971,-10.531232045063778,-14.406797721084182,-23.30562049234871,-23.605847010998986,-13.758595198310399,7.0404497029313,30.804848645447493,35.12216676165568,23.244936717083668,12.498141120942712,-5.978560826729,-32.30789950882903,-47.65894992013159,-55.00900530719118,-60.76780720627269,-59.39862682960385,-55.236020833124,-53.438123409118575,-57.589028549125544,-45.91988349472415,64.0765176406726,297.49127376504083,484.59375297739524,381.6977217218024,-31.893567491176526,-408.43741834404676,-381.85048678373397,-99.87208357081492,13.914656469714625,-51.939998642579184,-45.665015500777166,10.261989462325019,-0.2715511243974298,-13.036161089303167,6.1302537464432305,7.217001600189075,5.759742744775043,16.89041948920899,11.339538394052664,0.8531309180630604,4.857026844329057,2.604939707685766,-10.931145745005875,-17.353847750407486,-14.959448483885303,-10.42653149988996,-7.01978334749462,-10.598305510748197,-18.86127090326267,-21.33630298079934,-15.265884811625046,-2.010319784310611,13.119037995295239,16.860591556109526,12.567161995872494,17.700919026376447,27.961316413106427,34.079926842341145,41.21324239019963,40.61515159923436,24.95153120942713,9.997325036817315,-5.338898147024381,-31.10801664851954,-48.21527154279724,-47.05419001004986,-43.38353188805323,-38.3024900584327,-29.46738090366103,-24.99582318946638,-20.992237226237787,-13.797828763233705,-9.000948824976714,-3.4757617489566837,2.921584806535183,5.190921982709996,8.846072212111682,11.197598090534136,4.581615289953477,1.3597423113494838,4.347769136647544,-3.1526683740837314,-14.338654127044837,-13.43674805294927,-10.351836019220185,-10.6891459682679,-5.145369696193567,-0.0730782758135291,-5.673901781249047,-12.944246376986165,-13.519259411374883,-14.706008419476722,-21.788519499955274,-27.77510338611942,-27.733134795998488,-21.656653989186402,-1.5504278506101201,31.07106696569745,47.86100869021993,33.5425321796536,9.175168488231513,-8.561785090674302,-24.109186501590933,-38.4551715674468,-45.40307098099393,-47.06059548684935,-54.75771391539536,-65.64917929020847,-65.19392786293972,-65.22873559371091,-61.74969112693683,24.706204648879833,236.2091207794649,445.546444707888,427.29908308634776,87.38527003103506,-317.9361038170604,-385.1100190286022,-144.36093124892693,-4.686987504822394,-52.53284357266561,-52.68814183900831,2.2823737167235834,-7.1147547044523805,-22.29269232593867,1.5680491655019075,4.431103755602141,-6.459134562713993,2.988536048800853,7.781069980147523,-0.8256752349252618,-3.428508370660957,-1.6069095456356948,-4.018623428160561,-10.524403241115238,-16.462339046696314,-16.448511220414616,-14.513479071537141,-15.06931200789058,-11.643686331843004,-4.645019863525383,-3.283349239387321,-3.805678031837003,4.252148218857912,18.474560026514254,29.401318308024447,33.7570089215859,36.20310621551819,42.108374416817135,47.94082802403868,46.43422386212658,36.44930518213811,17.959881182957496,-5.3841597802129755,-22.23938147040637,-32.18768098189189,-43.26855861059696,-48.8240692434191,-43.46475202488609,-37.19523174717999,-31.576457244541714,-21.374420515968787,-11.569769189734242,-5.587906889573308,-2.8755299507616705,-4.156527554530248,-2.4696515029915798,6.512244362110971,14.016355986767596,14.145777564580145,8.965281679360212,4.055768324086824,3.3327023082817853,-2.8123531248501266,-17.354657039781415,-20.52272035752497,-11.580353463063801,-12.421717906231702,-17.770819155326038,-11.99987183424341,-6.221951742483103,-9.089643978902764,-10.444386059142058,-7.481763830265182,-7.531894646172619,-9.302138539468945,-4.061165849164672,3.2400630073529832,1.2776998417924386,3.614954518169575,22.297294954562457,32.638973439443284,20.28532291388576,0.9951456301410371,-25.681566412976803,-59.50865206821256,-72.69473892313309,-62.46344200708642,-60.565698313058675,-70.74119246183676,-71.29612122089307,-68.88740471894988,-71.1831319040509,-23.251994175344677,136.80609463788863,356.3297485729946,450.9465566069779,248.42632571941388,-150.00146269971503,-356.0733658495963,-205.58722159467695,-18.990469319259066,-32.122991808009814,-69.45889417133793,-19.503096229298464,-0.15746260140124235,-18.69362684708659,-4.092631867788288,6.6833494039139545,-6.773999873955777,-6.50480953068771,-0.6260140114118453,-4.316412909914318,-5.427492486234433,-7.786603436802515,-13.133539897019261,-12.563855590239,-12.216082828449279,-14.783238710556496,-14.139325218431992,-13.881660894502172,-14.94893746445985,-12.045707440202523,-5.191037003370338,5.8524629176529075,17.664341566509933,21.964571557422282,24.45710877164949,33.38896228427966,38.016310034077605,33.41131341130543,33.035092546430555,36.021728999059704,27.657875595927973,10.988710656061558,-3.3297735575155825,-16.930721888026987,-28.75273453581894,-32.601080137891145,-33.057852980076234,-34.80980005219362,-32.57687041593937,-27.25693733797854,-25.061066804645556,-21.998356689547183,-14.064995771753717,-7.2665638010062015,-4.004361630120179,-0.4139435230459192,2.8599451851418483,3.7220984414673755,5.230723492769979,11.539714492955293,19.008882826488204,14.576081032773718,-4.283728689132531,-17.869787041613314,-15.839242320496153,-13.648051251901162,-17.452432097860132,-15.983295705839527,-11.909394192502704,-15.02963865487916,-18.77118799098087,-16.557290290944888,-13.59790245356351,-11.055436532999732,-9.29260621887589,-15.274165814745029,-23.651408502413855,-18.87441586837233,-0.9976644541971922,20.483032919509462,37.86979495590252,38.105908117498046,20.343816266088496,2.6706287526811963,-11.297323064272017,-29.531721566349987,-45.421054419730936,-53.94339565772945,-60.60389036016517,-64.6639897527636,-63.28889144792697,-61.513782182580506,-65.24218255967253,-54.64094954106927,31.250268459970528,224.16653337776964,417.0063774391071,390.8389139527017,64.95473548675936,-282.4678661275289,-299.4688064637962,-85.53168703746852,-4.1746559092296565,-65.70277876209383,-56.03089345459304,-6.09827270573701,-18.15672845391655,-25.104267330146,1.769948432131784,4.32989372906086,-4.1180118455091765,3.3422351826395866,2.741222354931974,-6.71651086722135,-9.000386979948615,-10.1464846421917,-12.257128133233977,-11.981122678510324,-13.789203924081596,-17.155967966452728,-16.955185464483147,-13.159781410134373,-9.53971175386839,-7.620047406977285,-2.8487696304933903,5.722339571752369,11.780281260385962,17.033128845566786,27.170908248008033,38.390857239450526,48.04210653146081,53.903916400183576,45.73161964922861,26.578157636249557,12.548796279412391,1.868977153697632,-14.028695858432089,-28.584347542462112,-36.96323397768779,-40.17742921921737,-35.68359494522888,-27.643965917887726,-22.741995433699376,-19.206120531348457,-17.52802496593447,-18.772788767289143,-17.049618175358003,-11.807062731648477,-7.7369238063498464,-5.317037192799255,-4.540085635264605,-3.028688638046898,2.0247761054342615,4.252682325514927,0.8140157633045355,0.44089713256268404,4.599312663187196,5.397429631929684,1.2473625282355059,-3.311315059285411,-5.941789138832469,-9.269425647841803,-14.037269337544428,-13.429012872547208,-7.479923660381761,-6.187154430410313,-8.014296026135645,-7.387577800047158,-12.349792715489684,-22.66713810415041,-25.061625810028346,-21.619696906613353,-21.97761857523532,-20.008417445789163,-3.8974695362803606,25.000257066723123,45.3226475621838,36.87656490470051,12.977609353405978,-4.1799986114993395,-21.215713483459893,-42.37756036129129,-50.79166178327093,-48.50393819475503,-55.03354759143325,-65.96610150335188,-64.10989162693696,-57.12704653252153,-57.40661905541825,-26.69631120819989,106.32608492215353,325.8693047164179,443.7378972666725,251.6606767242749,-148.66601022294688,-356.9390005882517,-214.32603006477854,-26.66164606112598,-23.43599488150426,-58.27266730565884,-18.780184362580272,1.4932980841799122,-17.065765073272537,-10.433555212261943,5.015952741801758,3.6918222299013195,6.87628305612393,11.065121773793987,3.676787009920055,-1.7494740733600214,-2.33103851251194,-4.5834051213933655,-1.7375223342856412,0.6624062148183523,-14.607601167972327,-34.88682324605927,-33.462532088633075,-18.868708616693525,-14.955985323095259,-16.90004623986151,-9.640902394231425,2.9691178443580695,12.840164379461408,21.982175656580353,31.530899276012434,36.976253016746995,39.42106790565638,44.829857887980076,49.04332563916523,42.59624877656685,26.501854355414338,7.247643097407318,-10.457552854692121,-23.737891258377456,-35.29725109682933,-44.182588578569366,-42.45960827688436,-35.51847139962378,-33.75913344217125,-28.66568319612118,-15.346206295435074,-9.201372238172155,-14.384717678466856,-15.920228256215783,-9.817437842472025,-6.219137683966242,-5.754025346610087,0.12496159635838033,6.929187257733734,3.5336355668042927,-1.730581197731043,2.9886368394985245,6.957055935321891,2.0217967778596595,-2.328215523481582,-6.1820606606350275,-14.133303693625416,-15.684394926609873,-8.489561012048974,-5.8101271840052515,-9.583511001269146,-13.047064352075509,-15.638319536343637,-15.882911950119668,-12.308800657415151,-9.603027933302645,-11.308874063365803,-16.672354059119936,-21.474155246929566,-17.446227712224722,-0.2070113591992424,23.820469583987002,39.92680027158865,35.99253007339934,16.898047078185744,-2.332935647061241,-17.254874743908992,-31.650516793257935,-44.560017762301165,-51.14287994542429,-51.54129744976577,-52.63714610755508,-52.388007184862474,-45.7267272926718,-47.43410699798115,-37.71286072538656,77.4545089761391,313.96378091608614,464.99797457184025,286.6833006455844,-137.66216417434921,-395.8586259629311,-272.0069132649349,-47.20029180752177,-11.603238722751684,-52.748173060219926,-19.65432799157721,7.104255648276414,-10.612494397023287,-6.956614250407242,3.218745995129325,-7.139034509172667,-6.655869153256248,1.0722124268262032,-2.980040032015637,-5.334469403230866,-7.088164341285301,-15.2414850621714,-17.83333348834948,-16.931374623906457,-20.70301439697145,-20.61978874085318,-14.966224075780772,-11.997547934010534,-10.930894872642984,-7.966734440979852,-3.0304219307080933,4.524839528402576,13.9434966354511,21.85352518723595,26.590983669585988,30.641316894173038,37.68343898819175,46.44496827124629,50.82676687810507,46.3826222796461,31.86167180114706,8.855853865170364,-14.584509052363991,-28.648371841304023,-34.60908172248721,-41.34510418377555,-47.76133855506447,-44.8674408415149,-34.0803493205468,-24.54774883886009,-17.044298278340797,-9.379056550345734,-7.294089823443727,-11.615209099562424,-10.65029106817467,-0.8809739143501165,6.5545779549812835,7.535553624276135,6.642116426888771,3.6213786398231065,1.6115441535958688,4.98234945483674,2.915738776240943,-8.409528183686271,-10.73838645652946,-2.698138501306204,-2.106930069018837,-4.7533260345370305,-2.9257147872423257,-10.94317356080301,-26.249943232353562,-27.438101104856777,-20.781260754136063,-22.80047684891739,-23.463170369921002,-13.742211364254903,-2.650960760836801,10.994604307606915,31.800345564366538,40.12432348026856,21.08490979684737,-3.300864258956448,-14.058397988889034,-26.287383325888687,-47.82180979034631,-60.35616664762049,-59.48869507025439,-61.06346631762871,-65.94050102937778,-62.566265016795036,-58.111026369622486,-56.71888425031339,-1.5473238435639871,182.24334479591744,427.3780969500763,480.66864216720523,165.47732887267716,-295.08071964498265,-448.613251560883,-222.12719856128555,-9.09159177974514,-17.152216980990545,-49.1715274690741,-3.659595226623381,9.354265296413192,-7.676985669574094,9.144494258543785,17.62472310716657,0.623657462428783,0.19318623027052473,7.530996978461844,3.72856192986384,0.910863190872055,-2.0632164668278836,-6.559377346922631,-6.9034699775430735,-12.819124534677645,-22.63259775129579,-21.720678946085123,-16.39156248368944,-16.816448951452294,-17.844730249784448,-14.484649646430576,-5.4007560443999845,6.272082997344555,13.658315811361692,20.39812778804933,31.854737679654352,41.5794595533642,46.693130109987145,49.44455014697554,46.39024280819197,39.3808990291455,33.081413408885666,18.99061120812167,-8.946816733194012,-35.491894551745254,-42.212274406904825,-35.37401157192986,-37.2567274995465,-46.53687917987341,-40.82863609505902,-23.937983511922866,-17.909644147489942,-20.33201491795361,-20.277913215833358,-18.87480331411753,-13.053345874762446,-3.6281525782612825,-1.3233638379247559,-3.3301189054582707,-2.3314290487804,-3.288973759432995,-4.921309652079962,-2.8165852863370766,-5.659681081806795,-14.618854689704207,-17.497897713172357,-14.066428871840749,-11.771778306238211,-9.041309665547672,-5.944766697958137,-8.413705573912104,-16.45466701114404,-24.94090514554825,-27.37486835476229,-19.31600032648131,-8.228222036405693,-1.3459587258492522,9.358426530163978,25.365728133515955,33.671898756619974,26.58807491465017,0.7778146448241241,-34.20181335919408,-51.358570439833144,-50.053677605268035,-52.4823343980963,-56.11178458845479,-55.5407076148952,-59.79313993258158,-67.24744772655927,-64.97125223243896,0.497290537404254,195.00087821400905,431.9014219963501,468.98537508116,175.61046400620347,-257.16288037315826,-443.377247490628,-255.644792978639,-20.644842480209626,-5.891410789999853,-56.3119038739405,-17.40300270732697,13.417454096813767,-1.6689218631219926,3.9149508490984326,10.99641274143061,-2.9682264412482837,-1.594239977908651,11.50208752059001,10.72447063429193,-0.02222540277209184,-11.514020269950674,-12.151992075152275,-2.3163989291269917,-4.336166817690275,-13.510906190750095,-8.788154203724192,-5.733238047052421,-16.466458303145778,-18.9055664907664,-9.706871930487491,-5.697175600608354,-4.564509712490393,-1.2762097897656979,4.870196357778143,22.602865842630187,43.18715813386824,48.682714926848625,48.174871810535436,48.127427213708394,35.68081658594125,14.62288586370977,-7.455229785699192,-31.64306056166172,-40.41263526049166,-33.454637383255786,-45.33331985263396,-65.44224309828651,-49.69453809517512,-19.74605579941854,-21.16415931776707,-31.824151513984106,-17.843031691820613,-0.594350368229513,-1.8022992461772276,-3.9538753195178735,4.152327634570975,10.620997404465543,11.039104526527712,9.57241681972646,6.8115368017594875,1.9286954410439492,-9.338556610859303,-22.45411305655165,-20.095835194901902,-7.762274610696833,-8.424955653239401,-17.0897699042688,-18.38975760875097,-17.483554611138416,-17.90690203272213,-15.618090294910424,-14.71551494292401,-17.334884423269287,-12.547340674438892,10.358094996530758,35.98735632187986,33.173918405116304,7.970199776918255,-9.147104166568528,-27.208687285108475,-58.27823616850882,-65.34771917409142,-42.87218179456431,-48.22814715119559,-77.96450938731961,-70.26868933218125,-49.92468914305016,-50.599998301916486,32.77901960307004,260.1520708534424,468.79593971997866,438.43907111297835,98.78403954978292,-332.6787569646459,-444.5696658049245,-185.7198964114367,8.781792276999312,-38.28242106067346,-59.11189470236448,12.444664618744511,16.69025639742849,-12.497924065891993,2.7380469965442042,4.975712280908592,-14.556380623324362,-11.612635128108382,0.5879567302907382,2.52776999232454,-7.677692705999274,-24.451187960021993,-20.61740504437554,-0.8597675218724419,-5.292834948193345,-26.237793991682345,-28.71056096937258,-20.999332864704225,-21.764011646972158,-19.098883720603467,-4.313555910197046,8.321220197908993,14.462164044280346,28.1293128193714,45.69793972446063,51.45347038373806,56.03175300997655,68.43278645578988,64.93763075887145,38.81662818993064,14.383217715897096,-4.962776791653647,-28.265524733920245,-43.14185904047671,-44.32534622536352,-48.228736117493646,-55.37626613340315,-45.8901942280328,-22.084063966922262,-13.091665044197917,-24.656495593163985,-27.84683045292516,-10.90522141047714,3.1544188800516544,-1.4096344425136635,-9.257518511211417,-2.8295393202806274,5.634343186368628,-0.06346311001510685,-4.387390798763665,4.041120240573447,7.522444661983142,3.5656882059432924,5.304653515864535,7.375983620565453,5.682704853244895,2.8971160050865734,-5.855782611308895,-10.115095374297521,-2.3711391560358983,-9.3493065113508,-36.60525143070157,-47.02802220156676,-25.849225685372264,6.760791257353371,27.232749654826442,20.02091886082831,-2.8664962980126383,-15.307957725502988,-23.7330037040331,-44.170488747789065,-57.82534425495111,-53.89623596858462,-59.038358759516825,-70.07113227928,-58.41788968300648,-54.5265070803048,-60.95902826799195,38.8826015968359,275.87411859824414,468.86967122228805,420.3028607572439,85.30072218517724,-321.8874432794528,-414.9737740547731,-165.46775159187735,5.854153951638143,-46.51528230938641,-62.88284659142635,3.471555561175208,6.363854124786592,-18.101670383987173,-7.670178512354612,-5.543609663780167,-8.089584640482496,4.058810156848146,4.678035776717563,-3.1685204812895087,-4.11657238193472,-6.712745138032094,-8.86010851776737,-10.099754013390186,-18.504407786342842,-22.751809575415386,-16.784811566416245,-14.707910131677561,-16.87622458576201,-13.472154505906397,-7.052528841853642,0.3277636078117716,13.1703035732028,28.69289970134097,39.272354175495906,44.5313998675434,49.806186300725386,54.968015416836565,52.32498900540838,38.80790629183393,20.44175656923985,1.7616061253016297,-15.932881414810776,-28.714639277850452,-36.24822419009019,-43.38545382550133,-45.89161473360059,-35.67080978540088,-24.236771150758262,-27.717912254718836,-33.635233124666215,-23.75455042846692,-8.967690218565036,-3.870214034453314,-3.4088770988483006,-3.1970349990373386,-3.43425934774508,-1.050290212808724,-0.3645027718519209,-4.943927241575857,-5.752898216436446,-2.1609839434369835,-3.9484906878697785,-6.211398316199723,-0.1498065540010547,5.063813126187765,0.9144690045809956,-3.71356441415522,-0.3798793648740837,7.100766142419987,12.126568689254896,9.458260398393584,-3.2290979960347457,-17.8093472109354,-23.628458370710174,-23.51571545020411,-25.115445424083475,-22.999879076492647,-6.287465627411613,18.260564645910282,28.028439164163764,16.742493255223287,0.6125079641214608,-13.12155666378519,-30.076170417104898,-48.65371105997407,-60.14127103316693,-58.58514293144137,-54.887760716454686,-64.18712493684656,-71.88661500408989,-68.53720927795128,-60.2408792967954,13.099177755304993,210.37654731221164,426.0955122278505,449.71078528010776,167.4703918092966,-252.93557979179283,-411.4689397960967,-196.26991723977724,3.8736222482156464,-30.20887055860298,-63.58793248657341,-2.80539630708774,4.694147724862784,-16.997033861576213,8.041312099822129,15.017435646986028,-4.318824878283628,2.2154332945329775,10.556744095536487,4.3748761525429885,4.918368952296374,-0.9255939667973561,-19.28035004931033,-26.370225235822375,-21.522167615608527,-20.067060612755053,-22.52897139105736,-23.017286381346246,-19.851087772925382,-15.501798308135788,-10.53601469446984,-2.0355938692868762,7.600854388510088,15.054937258769556,24.122760929486528,36.19454467246456,47.31611020247413,54.27612499798875,53.100459357626704,43.305706369042625,29.43151983397899,11.268985071317426,-9.54743398801618,-23.982845258527814,-32.40399593188485,-39.52462020879841,-38.03860203281809,-27.87098246272663,-22.653282320934395,-21.806132797251486,-14.836762555196604,-6.161706386400084,-3.4562453888090943,0.008346086031882471,10.305016965950044,15.594126542368551,3.834863212662091,-11.478592486025622,-11.72950687179525,-4.819659654359862,-3.67619506563039,-4.255872284666449,-6.221071780565138,-12.672231580579062,-13.253739642535523,-4.368889024213299,0.7389358753102755,-2.0614998184839717,-4.915459591662394,-6.065977005274776,-7.558257339459896,-7.020067678374694,-2.1315220142648412,2.8357748525624515,1.3786183772824723,-3.4939535221254943,-3.613288734396013,-0.5140780352439105,0.35699748889002336,-0.8147010415514107,-5.408868116412293,-13.008645879193354,-13.862199044737434,-6.172469644662099,-3.5502175390545982,-10.105752407757695,-14.545607640846587,-12.101208786302724,-2.771304932524756,16.832449564362456,34.17948504367582,29.53125886020451,11.64185755831141,-2.1606962043241644,-17.180666331272384,-35.8129916459673,-47.44656195819046,-51.65662516320222,-56.15068996079299,-64.47786811778423,-69.40860346574136,-66.032066236582,-70.68872316669356,-64.33387721728405,32.662021429768316,236.76328059999003,430.4030919693439,427.7121984955538,125.77859630805219,-255.5418246612797,-321.1598929641471,-105.24917198420246,-6.962766323508781,-72.56488574702705,-64.83952095436868,-11.725603039141468,-26.602605383074753,-31.672889487023056,1.4328833977296558,4.898327449494802,-3.5059418686972696,6.529454082010503,8.580004267304867,2.9406683338388415,6.598396266455885,9.067603099543312,-0.7482630359150519,-17.588896769884172,-27.68654005333324,-25.623030631833423,-22.271844427146902,-22.265264058327833,-19.43686536794219,-15.32507911951297,-12.673216951966443,-6.262874206670914,6.206379393872121,19.593520613833153,29.7307930775998,38.39245838598754,46.79839625617221,52.763805677226486,56.97038903746199,56.56237972166319,42.08724864890554,15.637966144383228,-9.565520081339887,-26.221582945184522,-32.29552863712024,-32.12368949476774,-33.552666640959096,-30.52475086088919,-19.42491365066343,-18.159287457664284,-29.436687571310568,-30.18142557333632,-18.674749718753937,-13.106159015388114,-11.482216511273684,-4.059913084567189,1.675975461237158,-0.16971495926934566,-0.5169466978336796,3.9933818909431427,4.495662168929144,1.5797661326375145,4.192947077829172,7.244185594124332,3.056552859460112,-0.731500963976087,-1.172767053922236,-5.309127017600153,-9.438814380648358,-7.487050707350094,-3.7897500540022087,-2.5576417058115375,-6.1092480890432395,-12.83472902422288,-13.473887759979487,-8.638962179355362,-7.817052275068022,-8.101391817710136,-5.339986150810736,-5.541505766176199,-8.824688213881368,-9.564512814301107,-6.673501689601975,-1.8545020884511771,0.37205885747824397,-1.6451973897736076,-1.7758726367951505,2.278913246215371,5.184863529948454,3.2228480984395604,-0.002839122927490223,0.8230492916929961,-4.360262536681169,-26.121998234344368,-40.446875444034696,-22.45685234836742,8.826623066186158,28.928993896107695,35.5323382982495,28.065921987253585,13.705162045967484,2.6628066841318003,-11.452906303120667,-29.23258548926883,-41.14045020709563,-50.62883685699205,-60.27758590939541,-63.639228094710006,-61.462949133962695,-62.65175428485339,-69.99503982172523,-46.67807137479495,72.6074511781203,282.13469016422897,444.29814554863395,361.8797000170102,3.976129726046949,-316.49529070245717,-282.9624187982982,-68.42330945558157,-17.857968230780003,-73.63474843681804,-47.37704257471131,-8.981600366387745,-22.683638699128306,-14.590565747699587,7.626554315252511,0.28011800246417984,-3.013371864755861,4.880648502886308,0.7407779074722338,2.249654816706255,11.577287898824075,4.12401662706881,-7.73285792746023,-3.8252906802228672,-1.691535783124448,-14.118790685528626,-22.322041170779375,-17.804535143593114,-15.999371171440767,-18.636464859970054,-12.155017569789816,0.743306162530829,9.110415561723185,14.917204788836901,22.65291029602836,31.9483016381389,43.44580671422814,54.07656208381211,56.105047240412404,47.193307039140905,31.96452382144799,15.639659937433091,-0.35234804936011876,-17.589045710726086,-33.88768916489539,-43.86677258556234,-48.16710930417264,-47.9523968440023,-36.99097610647926,-19.292327137460028,-13.106789307494033,-17.36160605953631,-12.2668883801282,-1.2414762147492198,0.8950106832511278,4.2703750038975485,11.218509338596325,-0.5587361156835442,-20.416324554431185,-14.20162831601406,4.883975540343476,6.868169446082842,0.6340072438674902,-5.776151072535718,-18.62250124491652,-22.501691805182556,-10.647476259690762,-4.867635304513383,-7.205256528941369,-5.245728118321615,-8.099315555141075,-17.094319729851776,-15.430805796316427,-7.375659166034767,-8.703433110388605,-14.637211365006102,-14.517006334307865,-7.5313183857499215,2.1847622446317594,3.743587393853611,-7.3523732547353156,-13.293012065166106,-3.3398076856007552,4.883833201199886,1.4064753422362433,-2.3925662060324857,-4.400520559038705,-8.46627847768612,-9.368284253956872,-11.088018623144324,-20.646574331182077,-26.12477140646962,-19.728138287674497,-9.244282326182148,7.761419660408757,31.71546455696339,41.56854599848749,28.738243436591404,9.93220435105865,-6.765243679171133,-24.93349201205183,-40.92356848354961,-47.656774372187655,-46.01403056662637,-50.35029929037092,-65.30987409718809,-65.53998227585056,-51.07267978342797,-52.60203828766227,-17.76430646758545,150.67807679733318,392.1284082654161,477.92347993251394,233.9518885525095,-213.2181816956576,-450.207259629349,-277.3841585259846,-26.06651022898445,-3.1162906905896186,-50.97806399405946,-9.172455468328245,12.62396765718858,-15.165281330051862,-6.774242692117848,13.194132971670616,6.582312136933359,7.301990036522522,14.735560944878737,8.845664484191776,5.657853952550419,12.159503845019989,14.902887663935543,6.957233278207736,-8.911251949145173,-23.437748376893413,-34.69276398170665,-45.5184305846132,-45.312604599264304,-33.520072788471005,-29.848826257358112,-30.8079044264801,-14.200629118722894,11.694173117881842,23.148449442599446,23.356489197711923,27.963616277596373,37.5239302180366,47.24621301564014,55.84645688561174,53.10863679656328,30.588617039637985,6.019290152058918,-4.746862336386611,-19.564270426816464,-46.40394348007897,-59.415916366841714,-52.660222384638956,-45.699080704445834,-37.750733095489686,-24.910192047128476,-21.836356909363914,-25.7436654156356,-17.73837645621973,-3.010320083341796,0.2819533968971051,-7.41216702640822,-11.24442265646354,-1.77680114023185,10.644701381796246,7.781008589740008,-3.968418251495299,-4.154495745749822,2.117400347769623,-0.9312475781568779,-6.542736638752572,-5.309272103959511,-3.274081475319358,-2.9243252034101133,-2.399980608091351,-4.4113595190505634,-4.344167967036935,0.684765488289031,-1.6171840092073602,-8.747351986757971,-2.606206168841771,4.394818901385598,-9.172149280001737,-24.357599129763223,-21.195568101901458,-12.1888755961544,-3.7268788989797166,2.752986878252168,-8.73051656869971,-28.73123689557484,-26.862700018604883,-11.055902897711558,-1.7036317646894332,17.80033295095998,51.494217193881,60.61161578669968,34.03329686341564,9.426454626726732,0.8736524840531157,-16.936304217412385,-49.970037042943034,-73.72470778821676,-77.41163220057292,-76.74777998400285,-76.2953656169521,-62.72428856219463,-53.54250859383205,-59.552279715759525,6.449734511283339,217.161909040143,450.72428506110333,472.6644600974439,163.58952355308404,-295.92935864368405,-482.7999846008944,-253.14676456294922,-0.5693207389598083,-7.688863105581262,-61.73052021798854,-15.062116170908446,2.223564410957948,-18.204292824824662,0.7743823284138553,10.10511660344751,-3.588764949401959,6.476999111977236,9.097372032988034,-9.314621370513215,-6.589998484579727,0.43822725021922615,-12.01162425273076,-13.362856082715343,-5.2643792842737955,-14.779894207866178,-25.358147552891932,-21.403955071285,-16.37632884181006,-12.575268823474708,-8.621852378468406,-8.663848856116108,-1.4371679591178435,16.1294285667114,28.30608287583588,38.57199100214506,54.57277796149505,57.772515914026286,43.80723553122763,35.33188452325815,34.32827199622277,23.821984304604054,1.5346262401008577,-24.130235298348833,-41.1953747840583,-40.66537382797523,-35.977663278486204,-42.25834568492946,-44.36895362364232,-30.929606877854503,-21.10691335120108,-20.642048366505275,-11.931094390999897,1.394208631020872,4.611997647367582,3.3983892645581157,1.8280444254486934,-3.78415405178818,-4.5527821215131645,4.121447924163066,11.712079195692562,9.960432273765736,-3.146707904363131,-16.84779755770467,-15.009164277475314,-7.259998161772806,-7.87100552079362,-5.291269111320759,1.3290491784918075,-3.1143308820983524,-10.143546401459595,-9.124588729505726,-10.981500315613726,-16.29175859596282,-14.286609410195894,-9.228058936432449,-8.861385259758315,-8.537910037620524,-4.354297627708721,-5.375872444277148,-16.907656717452937,-22.010403771945974,-9.820840694115827,2.7336877636095167,12.38295230246938,32.94698196473013,44.866095767732325,26.2514581465999,2.106659524406527,-8.637845653310794,-21.527703336873188,-38.05559001081741,-47.09682240864578,-53.421047575625096,-61.398116179974835,-62.11473461802099,-50.81557189126352,-47.72545438157973,-59.38148844640565,-10.428383274697381,172.2111894630748,403.16151581894184,475.35775002153036,236.34466660785262,-207.8123728472325,-456.4007712124666,-286.6070548335184,-25.127548604930556,-3.0955881867081843,-63.843980340250695,-24.533933104751966,9.154759690653727,-8.322976149188579,-0.06053391240262851,15.35129110508394,4.341201641844748,-1.653233298438971,2.159914437936319,3.5832040555771396,8.850069115667331,10.44900150536795,-1.6188310951709983,-18.494554299589844,-25.814331292780373,-18.631038652527486,-11.096952935227616,-14.544971640587729,-16.948120411008013,-13.086930141564839,-9.826043544367382,1.663416034081704,22.213907350483158,27.50924775498246,14.469047574757646,10.18683298463581,22.635740800645227,35.49264495176124,41.98229431288625,44.00235524640835,36.47929019354067,17.33097775498696,-2.6482156102354706,-13.919255848783607,-22.978044139602925,-38.05147681268908,-49.16597360902414,-46.029948854325845,-36.495449676599875,-26.550023307434635,-16.937550375000175,-16.55112714944076,-21.597454182308564,-15.429737979577279,-2.2710441842458824,5.0875183526187975,7.760333161258629,5.408345978090939,-0.918513859640667,-1.6989369481253966,2.6870986619537756,6.185811149120938,7.335545248210701,2.2141400820073702,-3.9139754724535036,0.2529822664451755,5.86719003317291,1.8559709184055828,-3.8074057988986088,-7.623619984949434,-12.712175216102608,-12.646977178686297,-6.481426676713089,-3.655047207473313,-6.134578941534469,-9.063927349288798,-9.557575136128753,-7.16282994798325,-3.934797900830455,-2.1503264687818557,-3.922794285434062,-10.834003734133375,-17.046446744654798,-14.771441768880567,-6.086766466277869,8.162790214815345,32.44828312256272,51.91250106532887,42.62389552622928,15.557755927564628,-1.5559664486276015,-12.978674134897672,-33.52858976472899,-53.843466272997425,-60.01825035279055,-55.38427303032415,-55.40645254150173,-62.07005556776331,-58.47252878764524,-54.89249357847007,-60.25852072460337,1.5397674677221005,192.66364949710106,410.1198100499008,448.58971446903,182.5935415015377,-228.5916705667238,-383.36665539314976,-177.43285453277895,3.9986318007613253,-42.733794187161536,-83.5067776856247,-24.725799896169292,-9.861431096886733,-29.00344856827987,-8.18597310139339,4.150516086453823,-8.24014055943367,-5.300230265400276,1.8741829571432227,0.004684070273157204,0.2833539005924841,-3.1696169118913637,-10.56512671244856,-11.262344349255343,-10.234187766068484,-11.85267033776039,-12.397941780823489,-13.249920797514806,-13.04716291584656,-9.010008771028557,-7.25015411716933,-8.80211837646599,-4.331137365640117,7.173885202683968,18.496485656780955,28.558265776766312,38.14952374384128,44.76880973422076,48.36464588619811,47.6885059204166,37.86612054628064,20.665658134748654,2.886131347113273,-14.181461899896835,-29.65254439483104,-38.2111793858916,-39.19739527088123,-36.49036520338816,-30.277885947123313,-21.95750223194331,-15.83155595685372,-9.99684435194279,-4.097341448633436,-6.335071544386416,-14.11014910643007,-14.172427218243381,-8.149951201284377,-5.294728116935504,-3.902155480371839,-1.6777335035804057,0.9124754221073186,5.731463434844209,6.734261935385711,-2.473793732641111,-10.331767532873128,-5.53711854328043,1.291878547976685,-1.9321731472390553,-7.575220971501688,-6.202143982257152,-3.02219363392531,-2.2636647814898847,-0.9663572095574304,-0.7752650421331442,-1.3487585634438677,1.3034786174340063,2.3394495892572964,0.5726390143585833,0.6117983661113069,-7.26915156647471,-24.563070621493992,-30.088448923912267,-23.619286496580937,-24.029627384368027,-25.080555943966445,-12.300402221951845,9.54342484405272,30.47313193605262,40.78377357635389,34.976688792583815,20.016786730505913,1.5587919036823772,-18.01695485356143,-32.4702687537109,-43.38543037616024,-54.252862335000515,-61.461388526710174,-65.28356591542726,-63.887801120620665,-59.921110618455586,-62.94525189673645,-31.83315307056727,105.69877911095406,319.96784577256426,440.23705045299675,283.8539133100709,-99.6877109861804,-349.79483866622934,-238.76684059999457,-33.90664667294388,-19.470231925631758,-62.958260916409344,-21.153367106575207,4.248140437329063,-14.07197037572113,-0.6538353424730694,16.72560591313251,6.349954438792933,3.8806126804393113,2.355249846060328,-16.00079548102523,-22.881435250632357,-14.415352488161249,-13.904696050501892,-16.320201479321746,-13.462719250437875,-16.53251149455047,-24.296428742768835,-23.664092457219354,-17.886014311315268,-16.529129354192634,-15.90782135138029,-11.1004758241219,-2.8470698146399895,10.788623755087434,25.58707312442153,31.36128816164679,32.52629435212904,38.76580695483772,45.50327061954057,47.2106313501395,43.1154891052949,28.301545244267572,4.894035060627777,-16.43358429474995,-31.86125536193191,-39.765685970657486,-37.546426694666025,-32.10638909533442,-30.243686251789992,-27.098441811589105,-18.595319989275122,-8.000969408545387,1.6127175775339389,6.3535991221165045,1.177772580100335,-9.24817932277839,-12.932037694568356,