ECG,-6.151252789516969,-12.922797107506492,-10.385487572286848,-6.068456688733468,-6.797807209559529,-10.925908566868955,-15.045243929442666,-13.709596439421915,-4.846160139616867,5.2796195663193615,6.923794040002923,-1.3742689745671601,-3.568750375627923,10.032219422109176,19.621959810102105,10.443754171761952,-3.0299592702471934,-9.872099239195947,-15.333095592450547,-22.31161553333704,-31.14968118986498,-44.0687570292003,-60.316991984825066,-77.02990258326963,-97.45285688011694,-125.76013667179541,-150.51610483683896,-167.5584686853741,-195.04270374657642,-220.57678043205516,-191.88364480001576,2.615117353841839,536.6159032073771,1212.2975613753108,1242.3363210008517,353.15909355434343,-472.65164600555613,-469.2279576908912,-199.62169551189,-238.5680162227573,-289.9689926582848,-164.69693831709884,-106.87567810360036,-126.6144074036253,-80.09422885399789,-28.255970692347226,-24.71748870852059,-14.167578684540743,1.4972045004629138,-4.972784259205536,-12.6047461165223,-6.805445269453394,0.15856906644122049,-2.1600417383514703,-8.419788197944694,-5.189894441952232,5.596823401996618,9.75720586709263,7.022154925065868,10.043947333748415,21.245449264305424,25.281266499583502,15.331744443119245,10.790480386363292,20.99635449000302,27.921839703917087,28.326047129972313,33.5136897697341,30.818689817119665,8.088596257077244,-16.063249675482883,-25.734473395180114,-27.16573504092306,-27.79845498720246,-29.248588219801633,-29.252513348070877,-22.627753046132,-12.466336584474845,-5.7146284013327495,1.2639506346620308,8.556851984785128,4.300027301728447,-9.178264563745376,-13.603980634777336,-4.265135061096162,7.62157141547393,9.056493758016039,-4.353088406619008,-16.25326162759805,-11.412171339922264,-2.5605094625114475,-0.7007593240269898,-1.0783118835536456,-7.674128479511307,-15.211082619550218,-7.6632061421244835,-0.2642300009076841,-8.830072498081357,-14.631389572445507,-15.362427874510683,-23.53342473482335,-26.58747952837946,-29.95798430988986,-54.88836590122097,-82.80275373198246,-102.15166047288977,-127.50657227299541,-145.22094260522636,-157.8541499488726,-186.47693522504122,-192.5892774855028,-111.14789698973993,186.68908261437957,787.0156908717988,1220.7590887843646,799.0579822093807,-119.5572456180204,-489.75334925958236,-272.7772832314339,-180.63125756664076,-261.3778524961548,-204.40624092901814,-119.4824489891731,-123.99013082265232,-100.53242535656489,-47.82651835440973,-31.19220078396779,-19.012734792809322,0.2984219378542363,6.637837053675332,6.515418167084492,2.654092156395812,1.1703165810942338,7.126414661983594,4.8177196547681636,-1.1201360605629116,3.44494208801835,4.309272557861281,2.0869664937122154,14.330897578550637,25.390458198660227,20.921018359796925,20.235020183204128,28.65196006729942,32.81982404796037,36.54287500891571,43.32409299580416,41.522604182146324,29.578136385009316,17.439602159984783,7.524535466168917,-4.321478634859506,-17.911941305472073,-25.42305167638949,-20.893654460585736,-8.184469862344027,4.525394623629335,5.416095396062278,-11.715831598626925,-26.51915144645949,-19.058683185357452,-6.408918204892067,-5.544374424124858,-5.854146553615193,-5.341434247915101,-10.14709920138409,-7.784904860434465,5.634254633811619,8.945094193209815,-3.3244875609644833,-8.992922744009926,-0.812339815885152,4.317878573096456,3.4956983984032304,6.405396075855119,7.86696173578809,4.227589572386451,-0.06681177213927292,-9.287450355498855,-16.107949972760565,-9.286634611888772,-7.924048866273441,-21.987229039624093,-33.875476757979015,-44.77095621347292,-60.188240137833226,-73.58624493812863,-92.31253590165818,-116.09367748401316,-137.2452011628938,-157.38469407679528,-160.18107527639103,-118.01667164781877,84.22705905470389,590.5516156843072,1051.6260526054184,774.5884471249112,-49.33100100406337,-433.4082772679974,-233.95570317979082,-134.49855870079546,-226.09282797651412,-175.7774976886827,-84.39662618079774,-100.63327066597535,-89.2021076471494,-34.281532066751964,-25.71205093888426,-21.707083269759046,1.7047076090223854,1.8755786635663618,-6.516184297716709,-4.875162418610213,-10.33079606042951,-15.445567066401651,-10.451963988393182,-7.846768106467707,-8.435679303668065,-6.561339902583811,-2.6259318574472656,7.074038958137653,17.22715105632298,18.49395941041558,21.530304767267392,32.671665017622445,40.128518907201666,47.83257118198611,62.056869438129304,59.95637673291466,31.957220763371396,6.350705287143564,-3.591653857571846,-14.200211832719202,-28.465626381852868,-33.949693733893554,-31.089390197112753,-28.6379929961158,-27.08913924577736,-22.85758719460148,-15.969703753437662,-8.538837221633415,-4.1792528405272815,-6.2745785059665256,-10.608254013086224,-9.206079193693636,-4.946430647530306,-6.678036335647262,-11.350194215025754,-10.454558606610796,-6.605709487480745,-5.408208367478274,-5.201375616531099,-6.242809539553242,-9.2547538658293,-7.357036201433488,-2.2087747231785,-4.727831732475245,-7.851714279804881,-2.2838065117690114,-2.3688341561665567,-11.271658722195003,-13.38806583750777,-14.048747305281939,-21.30203554640131,-28.701015058238802,-43.98902646917669,-66.52149369604427,-79.08280342600789,-91.60960230266458,-112.99507615175364,-130.69774848863364,-146.6551550571562,-155.56625715261347,-131.32761639770715,26.020521142224794,476.7132643276634,978.8400167553731,844.3843833330196,64.36340222971798,-432.09981104635483,-294.63875664091677,-138.459228372126,-204.21447939401529,-188.04169511091675,-103.2978680436972,-107.68298921524675,-103.90442309571198,-49.961374738617565,-28.056625930820545,-23.314905435300314,-6.891913230553964,-3.622997010835281,-9.712792893831317,-11.10574702603558,-8.05659989097757,-0.745504987041798,3.5001040142102653,5.324235465808606,3.2165306339177064,-16.480121396987272,-32.135530465010774,-16.791053415039052,-0.06518260642241103,-1.1465329454133322,6.99576225585959,22.94802125840908,28.05135146819266,37.887979369937014,53.44371509328229,48.714539815690415,32.84988430285949,27.22659252366856,15.363423023065774,-11.36928111516926,-28.550893706913577,-31.52904130463868,-37.780457192052324,-43.46543492715576,-37.07360006075169,-28.19407504858099,-28.142600186323076,-30.09729661414405,-23.706775125548784,-12.17011781967615,-5.716427697780709,-7.2567382020250335,-13.367194773544611,-18.646967064665507,-16.595949961182058,-11.010253749533735,-12.57218901141875,-16.627533307828504,-14.221763284269343,-11.332017247752638,-9.576308519442684,-2.9546446747080566,3.7867551874392547,5.711320243169709,-0.9743775425109433,-20.29809428620743,-28.343493221073746,-9.291055668747546,-2.9990073942898796,-21.92469976854366,-26.455046473703284,-34.86844276054947,-75.98421866693742,-97.2560570056145,-90.27625498806385,-113.8420965168168,-147.6092408466667,-153.1395410482569,-158.55857809075,-158.47618613148484,-75.86869873849518,231.66472321583385,770.6396551338777,1030.7451069616113,512.0332607366964,-263.6349418233965,-436.26245800425573,-190.75097610365162,-148.93032486779555,-224.71203092529046,-156.13770625511117,-85.69151203788817,-86.17888373129,-50.64672887013151,-15.00816237503389,-32.831195111864034,-44.69315915935012,-32.50062868693934,-24.069841271564172,-19.52733149508554,-21.640015276518707,-27.74698267038957,-20.56675836156896,-8.840029868544743,-8.574602436770203,-10.871470861467934,-9.622056960775772,-10.440024387676736,-7.710938462250992,5.938142257282975,20.521079245646952,25.10517061977937,27.35187362370008,35.53531889287393,40.83485228063417,41.02628401682261,46.68479180191507,45.43105780309848,18.666819364528255,-11.734485190890368,-23.24665855569083,-31.27131267015045,-38.62976830499032,-32.159635508657004,-27.834421712591112,-32.91064735076599,-24.462562741152396,-8.617097937780937,-9.08124057950976,-15.020919226598046,-13.124812652609883,-11.330183750782673,-8.240822697450877,0.37328461532099055,4.395290549822004,-0.7029149608215519,-8.275007522051219,-15.706826509037285,-22.529538725598186,-22.2943211389552,-12.102280861189278,-3.31735165510581,-4.8411639232882635,-8.11345409212926,-6.771563370742431,-4.5903624173187545,-1.2652109116110744,-2.044028353036122,-14.758464908375291,-24.449370130638854,-23.7077704195045,-38.463330337676624,-67.25066729735418,-78.16940685312011,-89.05885355289237,-124.81685812582305,-147.11106171931795,-147.2939596427877,-166.60215539951406,-181.64242058512565,-109.74110549577816,178.70778638772225,739.0318243853378,1135.2759042120592,741.9562559833139,-128.70356716760563,-491.64649977658576,-261.87410148810045,-141.98000016432067,-231.40082768783319,-187.28825164187975,-93.7477096316812,-122.20306027010005,-131.86128240492081,-60.73197237617143,-24.598723294490583,-31.28785160763352,-20.936360316029237,-7.197450800443185,-10.535248091574772,-13.439153873880883,-8.086047251836945,-4.831422441085994,-6.205373214425567,-7.764835091526438,-8.939135592740936,-4.421589448216328,9.776465589126346,20.078464295828912,20.096726007153844,23.327406547582626,28.348542289578354,24.71706361200623,23.79278636457093,33.612558052142646,41.373752416854586,40.01613923292535,32.54114185317485,21.09731410803208,6.182235035033684,-14.624454328612313,-34.02872414476392,-38.501105988690064,-37.1000707181895,-41.40521589264564,-37.40144060871053,-22.991000806315157,-17.43870004308003,-18.486865960147348,-11.18184332470785,-0.3548839764438263,1.3251397209303768,-5.518365730336027,-6.452534879924713,2.396063339780431,1.4096540177894425,-10.462507273203503,-7.574073702658982,3.322069646711281,-2.652649680748752,-9.988973083043133,-1.173586375106261,4.713519685614731,-1.6061902776039183,-5.704732464955697,-5.613654971162511,-12.591598759472198,-26.648569392722525,-35.27842592350153,-41.01402582057533,-59.16030372319248,-78.85804217955656,-91.96331901954561,-121.63555902612033,-153.72575450066066,-161.28713077377887,-180.01273075471764,-212.4429438337019,-180.52502389328077,40.231382320219296,589.2911132191948,1197.07149767793,1088.8794481260338,177.2141291663587,-485.12097231615905,-364.99017128449964,-145.26254380110478,-228.38762785765581,-265.35584659096895,-168.69317351805904,-137.02014225254163,-119.6818981833718,-55.63614859656842,-32.96507667760998,-36.47096458865266,-7.422841709112131,10.189746889164356,-6.658826633194359,-14.117235619307987,-3.757257914258126,-2.670385079423692,-10.40509858687642,-9.100195834608872,-0.5663616230180537,3.793329351293151,5.9167314506324615,13.608566440901019,25.66689778582354,32.67972218837174,29.48310196861588,23.772016447370003,24.941401003198784,31.111561465902817,35.99074409775565,38.250374323446565,36.527533215994616,23.217627348503953,-2.3913893672177373,-23.5842974109423,-31.828432482492385,-37.98194426077134,-41.0329321260994,-32.61984172235512,-23.311518566076565,-18.58204552263596,-10.305325499328909,-4.666920119285365,-6.245334322410631,-2.6172650870283647,5.831890059289599,5.89281037928013,-2.0075580448796497,-6.457505795351796,-1.3799972952647472,3.9334501102824504,-2.6375845613778957,-11.347741573689241,-6.994918020384695,2.3944995385616785,2.1372271670089553,-4.764079104869921,-4.0167093457120835,3.7132885311508517,-0.4633314935198847,-12.026798999060212,-9.421248271134592,-8.263246660482494,-22.52132645691646,-28.334421615584823,-32.91253988993338,-57.59041251223029,-78.16530736707736,-90.33872874414475,-112.1286752520318,-127.93372057374441,-142.1794971003922,-163.21807339999117,-155.14866724905264,-52.32393171589382,313.94838818217653,920.0863962425722,1107.3757899215161,422.7036250659971,-363.48137564710487,-422.4085533130465,-174.39489000637485,-195.91813013130405,-247.3283146283135,-143.3460072918419,-98.46599261775653,-110.23615686274954,-61.07909156783586,-23.81473508752176,-22.1022066728416,-5.280806064532996,-6.894068537728156,-26.187254710664426,-17.382012973530166,-7.078207802905851,-12.395990620014874,-5.043978064653608,0.3779366736171603,-10.694663368036679,-9.308243603111839,5.746997069357452,11.73348356145632,13.034645125986778,15.915264141963492,16.97142292874835,24.370345997721643,38.75074036123841,46.2360865244638,47.33650709477831,50.96374257317771,50.65794533625157,37.42611079588764,15.438098531578664,-7.257859242237548,-24.95738779610393,-34.50444194898526,-38.37186379477588,-37.654911617977056,-29.738323009362276,-20.84887647996443,-18.13117822266525,-14.19865949585771,-6.174233122428271,-4.645873213546006,-7.03570763348614,-2.2724441664702475,2.030888609959801,-3.217931909466577,-8.378094078081034,-6.6765654878833764,-4.227692041030783,-3.858676338048168,-3.6161959434732704,-3.243250338658477,-1.924284485884053,1.3230244384604468,5.687544652429036,9.130580246990132,8.419615651031787,3.9197889977341305,1.0095291734542116,-0.6236808420693194,-5.131301415826066,-9.115842872155742,-18.682699500344924,-50.48492980887224,-84.41049652199453,-86.96269908462982,-86.73749014848538,-114.8498471778167,-137.04049039296962,-144.05225043641045,-163.3118847580742,-172.58275304697074,-105.23203580728148,184.01603825209972,743.8508444064446,1079.2992365474595,619.3294766108876,-187.1632227447169,-431.4602587808787,-208.572635368708,-155.5190270402972,-236.1883194261557,-172.14181885590207,-94.1364121470794,-101.45617485513165,-81.46545009610946,-39.65390159129895,-30.19423043677427,-18.852764373817926,-4.108825608204677,-5.0700493973823235,-3.3787571827454386,-3.7864233426798393,-14.048434364884855,-12.341937017938513,-4.573882417048154,-11.161312738187064,-17.04529187052115,-8.950929940798424,0.5408459326696722,5.757931363949044,11.577417136742941,19.41160045653277,28.049155353263355,31.500002272337078,29.464594137170828,36.418856239466514,53.485137382909016,59.467657901461095,46.51739601569329,23.486329947136753,-4.94722657944594,-26.959085365580993,-29.84761633032379,-27.317503202130936,-33.51416192894166,-36.48826658649958,-29.840415157843687,-21.164176149942232,-10.843783235947114,-5.0925816222032925,-11.521643379954975,-13.494696817907398,-2.762381782674927,-1.123807222940819,-10.480537882472873,-8.060047644307073,1.468742987014961,-3.1373336106677705,-15.185574381022036,-14.032680190562806,-2.067080041255389,2.169955224487932,-1.1342925149862424,2.9590202514932784,9.572210151999055,9.690873440617715,13.902148009602785,14.375449630347125,-10.368505693158554,-39.75449456346853,-45.27665000093814,-38.77182271100776,-34.72381886557075,-37.20647226375755,-51.73651655079199,-70.78859639972958,-92.19876144232411,-113.94796489757549,-116.67564699652037,-119.59760278389162,-148.28669117285474,-159.80237355227337,-92.14665391426081,176.36526584738385,698.0742792251258,1005.6661896564599,552.2266322136119,-209.86349989542117,-410.8694369738273,-185.84264613464012,-146.24295063235658,-219.5428799700074,-149.73612326471286,-87.34265021787405,-104.82860923508389,-77.1571394234359,-31.578651960370422,-28.136230324671658,-17.98438548258752,-2.0273313847946675,-9.42611013949696,-9.02573861335257,2.1143349821630864,-6.361984205463411,-18.709277432820876,-14.541958750189682,-10.149200894819696,-10.564556344687821,-2.5137180627560376,8.677838235130432,9.38185166347279,6.56293472566897,16.13377905803293,32.30296490627544,35.5729576600547,31.66290110784162,40.3197430744588,51.54324040871107,48.42884871708894,38.48554498692059,20.735569162838488,-8.25002510780593,-22.73498135140444,-19.474379549198716,-30.45282282185788,-46.665198255365326,-38.86389407469539,-25.42696316991054,-24.208634514408423,-16.493175167714938,-0.29697053386521866,4.684711984007796,-0.6203688620644527,1.6972591327093598,13.877630244526438,16.19293689368989,4.033799319051603,-1.0065722352464235,-2.429213455531162,-22.47470725780461,-41.37804111560652,-31.97310303084626,-13.883382920222793,-8.29589013669186,-7.350207024889386,-5.061305346012716,-3.4364325541923577,-2.5810431051919664,-3.9163910695115156,-10.490876142853644,-21.029128962110796,-25.06062753172745,-25.2565618586398,-43.96501324674105,-69.00144357454602,-71.55961154373959,-81.18875909883644,-117.18828805583284,-137.07727824035132,-142.4445106541942,-163.2727835603207,-168.94649723122765,-81.96663930430586,256.4432013856584,836.7592616535276,1071.7972271897816,486.4057344601931,-284.89411900387927,-411.1924539501182,-179.05414572269558,-168.65271446072038,-228.96461927627328,-150.3195848673998,-102.02625713467636,-109.62654870144543,-66.71397574854498,-32.20322439751318,-35.02872297864464,-13.314287327834748,8.202961574252116,-3.518888644392497,-11.092611165622142,-6.288092453915677,-9.749755567297605,-14.435586725505889,-12.810047059681764,-10.299722443472529,-6.264022518115606,0.35331161800501043,4.874381516789533,6.501186966696038,12.1961130174924,24.75821070787385,34.19357568992271,34.86558468115455,37.38036906754873,47.201942231643024,55.40965477932103,56.94068171521193,48.996512617890616,23.88586739349764,-10.013917384532856,-29.746216446032612,-33.119983133324524,-33.63169952773354,-29.52153031435171,-17.954435243719693,-13.313943558946779,-22.271184647223915,-31.32144300265654,-29.005934577628192,-17.763343004096747,-8.221792997354857,-9.51055103389644,-17.31931039856144,-18.358974427306208,-11.161855227263125,-6.8492398012463696,-8.540230276736033,-8.526713293803414,-4.315469796685857,-0.3661065834166308,2.586068001402623,7.257884328991327,10.857756801173984,5.2719794058454355,-6.954720245763088,-11.292656680279986,-8.97999616142788,-11.588042826420637,-14.057248659885058,-23.24160779835626,-52.69436309305182,-70.8800046466451,-68.60902239184114,-94.59639729568717,-131.62075120369758,-134.64786897310074,-146.81741294395508,-175.88028253631379,-151.23665205350673,15.237170186702599,463.61702418501693,1007.769637155765,946.641360234517,152.7057545464757,-435.22265307574816,-327.1943675071597,-135.58700799900117,-206.44310753217772,-220.23268788581726,-121.38039272390236,-99.59178230530313,-98.26267664488509,-52.50389522338102,-33.7118965212022,-31.26848392074605,-8.173411302174923,0.7891621123059025,-8.03615878291075,-7.586617805318362,-5.558032468040032,-11.000658883494868,-14.723903239492964,-11.54345670200867,-3.3989952755614095,0.8192689758147527,-4.464225547065315,-7.296991393611448,1.8203959131369067,14.188995475326696,22.31179689402221,26.92827944444866,30.798991764660748,43.327023020315885,65.10775030305231,75.02560083704752,61.93825119955417,37.55026676691971,9.57956069343304,-18.607572153275747,-38.84159956933921,-48.54680283760264,-48.5072435871778,-42.24257452034486,-39.01217696194724,-35.80522938977879,-23.188168063298168,-7.797968966683033,1.814145169101561,0.277112799949208,-18.677486823627316,-35.99018253815158,-27.38994974449166,-8.620400798883004,-0.3040228820006625,1.0080720402841443,-5.095953589516096,-14.105663169250619,-12.673373520850877,-7.166432879275238,-3.2077949697505908,2.7861168396337526,-3.7828061567112385,-19.71975925997821,-14.280851332142682,-0.19955148328263306,-10.060951643890547,-22.518932598010405,-21.472167210255833,-41.27182821682106,-79.20387358110368,-93.60794206283441,-97.94701818127638,-118.84554639095433,-135.4859435153103,-150.099766927652,-177.1255527340482,-172.33399990273446,-54.974868371420996,297.4838836249836,839.2246420103183,1030.0188181794927,452.5259222190816,-295.32558497495955,-424.6304375819757,-193.6636842395552,-170.8055588382511,-228.17052464443432,-148.4871491661491,-92.25429501113719,-103.38201402554488,-71.22164889539381,-37.08501820301979,-40.50775294686911,-26.841712358207133,-6.692617746298055,-12.077229935221943,-15.992796538876288,-9.141152348356577,-8.808863139811361,-12.250782311659666,-15.71767763265235,-19.24815812546836,-12.66503999966449,-0.07292523089787295,0.9944450589475906,-0.5281871563314242,15.049889950289309,31.543276283504934,26.78038243585566,19.77797236685042,33.21929399522591,53.58778144931466,62.36615168919394,60.29520690523153,49.90223511116101,27.386611392015027,-2.2379900808933213,-20.410688276928923,-24.23816283021042,-37.584533640870546,-62.48361035616784,-67.15275801634314,-46.70437242686664,-29.892084839749288,-25.0205996312779,-18.37687443666539,-8.382414990087934,-3.7723125719914457,-2.1333524046218457,4.984517393324859,10.056557059751714,4.089603089597219,-1.9750322270596712,-5.168509759796507,-12.350081160449562,-9.531824124230809,2.6646961797422115,-2.2783381680873767,-12.937827120517554,-5.5799559779893,-1.3995503334891737,-9.56716554328699,-10.46916187011147,-13.157070861458237,-26.17623936855201,-34.45660251916731,-45.5865438420947,-66.96824421520608,-84.28385437486305,-104.03062582761534,-126.50354101803433,-133.95198609499374,-148.76244532367795,-181.38165527177557,-183.0932209577674,-74.27480601975122,305.25473616284046,926.0387433410054,1165.0128706658254,536.9526476435474,-295.4224638974621,-453.1598240254503,-207.42379574026313,-182.4838494399468,-252.72769134145358,-176.23516321747508,-114.76486756873953,-120.02952722658215,-78.18301978004263,-35.795825178521966,-38.08142470672649,-21.432640435214413,4.259764404876526,-4.5386452771862835,-15.661747893602673,-5.69418126991939,0.8131526134799785,-7.29770180189729,-16.43204079984721,-11.980513364690825,4.0831391717494165,12.010336086517242,6.45133514457473,7.613579274209167,22.092294319267285,31.548140179065303,31.769210321519104,37.79316643612684,44.62032439941845,34.7598039609733,23.678165864106404,33.023677175199296,36.964715137945404,12.606926130941,-9.041373081747265,-13.884812259949122,-29.52281590792179,-46.76735223342642,-36.96926372011276,-18.119815055895266,-11.739753845041529,-14.250917898386042,-26.96282522955475,-34.502364783621324,-16.20607856256224,0.8185141940323,-6.097456680726257,-9.436423729235468,-0.30048826062088096,1.0293352963309825,0.9532226857708324,7.377556259494988,3.898126586083279,-6.745248756350827,-5.244256961749636,2.2071205655820805,1.420248883810192,-5.046845384146902,-14.22739524751486,-19.016703694084654,-8.968351751194586,-1.9808711207683842,-16.66849153940245,-35.81099240504446,-50.30591661048024,-63.80361337111093,-70.11826973145084,-91.12073576447233,-132.0636955435556,-144.50653760024022,-143.33313729274758,-176.4244039043724,-184.476923610594,-47.88837249736474,358.9969778600168,943.1687572134988,1099.44661912834,439.663237959012,-326.00953129269766,-412.73092871251305,-179.25968588217012,-185.73382030772694,-244.26266330314579,-157.11613950405356,-103.01066509468222,-107.79423361446194,-67.53644657065406,-29.081207420276364,-25.62795278047277,-15.11479249756059,-4.244069904440643,-3.771471300129569,-1.166008189703689,-5.600664135683985,-12.655087079350366,-6.121527223744632,-0.8316423153290522,-2.906470897277729,4.905742948907516,14.184979887426254,11.631588904743683,14.849734108957044,29.744332427448605,38.93968013331275,42.824121072221736,44.44955101202265,31.112040334029565,13.867070234620883,19.263573809788642,35.18354025595285,30.64822648552037,6.28236464649518,-18.618767370638427,-34.68451248085666,-40.032844220233684,-37.230027167191544,-33.562889216686585,-30.422234663662984,-22.50732668472017,-11.364840220810734,-2.494012985208439,5.025356387315742,8.095910341692065,1.7673155781571648,-1.8720530160421962,4.8376568741505315,6.401775262167346,-0.08863258131219887,-2.685140112822708,-6.952503159612865,-13.430237974164989,-9.653718648395532,-6.365767963080529,-13.084502405770305,-12.440248943423967,-4.06443076857342,-5.500947887846731,-13.585359199664495,-16.327169358375624,-11.158195327118001,-6.570402460235265,-13.743989646211926,-22.42246267941588,-27.643398826504292,-49.72772710708724,-75.63971273309733,-84.31756672250346,-105.70402131486848,-138.7727536328674,-149.85772370691436,-161.69665587401417,-178.13881848620773,-145.85968509961756,28.33075838501307,495.6243395619248,1058.1255241468143,1000.9056923785238,189.138184773211,-437.3536687843575,-359.8917489953543,-166.14517729567413,-222.4173782222917,-231.6521934405025,-131.3450279138276,-109.5427218879341,-110.87601697854753,-58.49796029552711,-30.870601868556463,-34.298722647262416,-17.107203720149247,1.4573503959809564,1.7390419262771033,0.10999031476114851,1.7883509552713193,6.16813469820034,9.786106585974757,-3.1170551605110965,-28.456015087609302,-36.99430200376117,-20.857976314464196,1.1404749689950897,16.482713826819886,18.82064725073545,7.734533707818693,4.126124077852625,21.47634118107463,39.385848421651076,42.97534798388832,44.05784656544313,45.36028464970302,34.710791131564015,14.000907121570446,-6.228103316358284,-27.0750107173713,-46.670602192088325,-51.21017997670662,-43.593660780928786,-40.08277108855134,-35.1455412949592,-22.87828864848074,-17.368859187212436,-14.159309704565693,-4.668579273046156,-8.427383413422309,-18.708146410118324,-6.715878887622427,5.0318373199379955,-7.6165895709127795,-15.196769660153763,-7.546853044040347,-7.602040346806575,-13.676567903978686,-17.55339810268996,-19.98776304274693,-12.40280330945765,-2.2769748653585964,-6.279007847739731,-11.211505738828961,-8.861093185534934,-13.484551660745225,-15.93896040041777,-9.269580291484282,-17.082054670105254,-31.978039146915897,-34.59222751690949,-53.09335780705662,-85.47235606605717,-93.22588329422727,-105.84454215416378,-147.27011341734996,-172.63305373406834,-184.30242415756211,-198.4419012838389,-145.86747007995928,86.26246530756524,586.4503356074723,1101.8077971186879,966.8656010866248,119.18935802878646,-482.8686346406935,-358.60873621548933,-152.98549298341004,-227.03969506305717,-237.90233054294038,-127.413558653516,-99.26731158833269,-95.1141570407668,-59.77515729217872,-62.34133729074437,-60.2191901335757,-21.386294517468535,-10.028866417137085,-18.471920262826693,-7.522172749732519,-4.720652736598609,-19.19469172028655,-18.18174801607346,-2.1566270779241776,1.4690428603561116,-6.256077671556156,-4.899898417283314,3.3247218219326466,8.828494591968452,18.556343236648523,28.168781625524968,25.859895164115855,21.794798591894654,24.899554893914775,31.708240244429405,41.25555590971913,42.549051404758,28.87273510504019,13.04692120362354,-9.16330482887931,-44.533362247394166,-64.04706516616984,-52.80301432823812,-36.30874921251523,-29.285576208832186,-26.033098745976737,-20.909913567892566,-11.204162899560103,-4.590108381766498,-4.612331566799428,-0.14757868643416217,5.882028615040831,4.439539442460617,5.171039696000735,7.647102245522166,-0.7839857321801773,-9.554401076865346,-6.200050095440453,-3.4536799562807694,-9.434638499400172,-13.722287604631799,-12.668612923338308,-13.513804695629872,-13.245069562359035,-3.78319146479582,2.2457822643247596,-7.168329472642689,-11.635029827824454,-3.524247830131724,-10.790133073122632,-31.579476903605194,-41.37174766114043,-53.34952725746457,-73.52147842630485,-83.32652395605494,-101.47079883274354,-138.15617958822483,-160.73227583963757,-174.5124687651346,-192.96077232356797,-166.874316409269,6.397734037795317,466.7468571307448,1063.8843116749965,1122.0704025384055,351.1203684991656,-404.90649004951797,-417.3276991267455,-167.2768829288445,-206.14985665188414,-275.390474844301,-173.96255956543354,-116.33457923852546,-129.96560039893467,-93.71863442480833,-52.8653074804577,-39.151212494777894,-13.328390097748716,-3.133976337385665,-17.6221361694571,-14.710100272203057,-5.388361396444381,-10.530190492389394,-9.130579469240693,-0.8302792702379271,-3.160952456034032,-7.086408073007212,-1.284644885494025,8.612844214774022,17.852144467850056,26.342384275061473,32.53486090686723,34.02558180662357,30.862826395477033,28.651869063053603,35.637191017260825,50.55714089581901,54.878339045000956,35.252333031236255,8.577304001974133,-7.6854016378648335,-23.221589376529987,-39.658331693904344,-42.99468805693989,-41.0051243822767,-44.90103437867828,-41.66706604801115,-26.311137781737806,-12.11605227450087,-3.497207434378957,2.4262893063845645,4.763278556668473,1.786908119124389,-4.048437520444846,-1.8418763312873976,9.578603964463795,10.193862058930112,-1.9181587639416193,-3.3645507433853936,2.05876436764531,-5.338901279721844,-10.733670143937594,-0.6460096329962823,1.685750432481516,-9.458239241008775,-8.591539738072951,2.2197191846735933,0.5909903831658383,-7.084545204121461,-5.3927880550991425,-2.231898970250171,-8.718730591348224,-17.770611984682894,-18.984196648447956,-25.460133101905754,-53.50865927084847,-79.58832851325528,-85.0238216977462,-100.63954161532975,-135.65229444238628,-163.60981468223054,-182.1911239193729,-184.37822325887902,-133.08203572601704,79.9310012141209,595.1219263269783,1127.5848990206875,961.623307269868,100.57328929299801,-474.02102340721217,-359.1513677564724,-185.1315829975284,-246.2396187296079,-233.5090034541049,-126.85160155889335,-101.91168119491408,-90.65370799475328,-46.52919346488925,-33.560720943267754,-20.391248045537857,10.709847421195795,10.29642155564368,1.8231795516860672,13.35804561115691,8.124101129383426,-7.432398268035534,0.715375176284776,9.090636204013265,-3.312212124189937,-11.573979246981665,-2.4307130084827726,11.485376305287314,22.75660829998517,31.038201355181386,35.75891471485897,37.84844885076923,38.60261889120646,39.88438719587214,46.01427015891642,56.40377383988455,56.86302032223823,34.604563420578145,1.603408618459925,-19.235638441008476,-26.17566553561763,-34.30471978731676,-46.37739311889565,-47.73578108565968,-33.532534914938104,-21.02490847126753,-17.440548929068797,-8.029496674372968,5.329499123386553,6.262520421342523,4.6567407033172,13.834658203315044,18.256601276213804,11.11617115177157,6.987315135500841,3.279150167368748,-7.5124342436367755,-10.436171729525714,-0.7128574969784358,3.551766962280386,-2.427708653989887,-10.642445766214413,-17.886933369319493,-14.377660583186472,1.0833513574104954,5.9108755334853225,-0.6549215640170836,6.277267676930558,17.71372177625188,13.498029151706067,11.592813615541685,14.89790829518308,-6.961768118349209,-41.45623708936287,-44.956159900239285,-27.208840583760626,-32.29443819807908,-59.76111109119262,-76.17546814797842,-85.56234217982063,-110.49052176025788,-131.96407269700282,-141.06000015836935,-162.26364867034258,-171.74159554894524,-114.74922154717682,103.01587663690805,596.3587491237602,1068.724254957493,854.6472831022883,35.1586850677285,-445.6247919688397,-299.2345356359772,-153.35117398422724,-223.05614371081677,-205.36053297699937,-115.4070512193457,-107.02023283454761,-93.85105952193202,-42.0319770734422,-27.86211670341006,-24.386789541139642,-1.3882138335391847,0.7481244005452723,-11.86453601365912,-8.54588888008163,-2.592245576870525,-6.504651755461214,-12.24965366027308,-15.590280036944172,-13.595255139444323,-5.985121336981734,0.09081809125238749,2.8588229658548414,7.186622286140486,13.777010685832991,20.430593762700738,26.44533562773725,30.186843800026615,30.708578656349673,33.01445142923345,40.357458107177514,41.71047062333183,25.883392380257106,3.656826110987236,-12.044336174681453,-31.642125112969698,-57.99339079789416,-64.55282787598716,-45.899892025917666,-35.422594190950846,-39.609962621528254,-31.196849590654914,-14.837585544424936,-10.354752701435974,-3.726582262899729,10.17083181325955,9.375629514570427,0.153468589950851,3.573338159055739,10.373977489372091,6.837691172040035,-8.419407669746349,-32.65878873927486,-43.83215908519081,-28.14798549140919,-14.419617526314035,-20.243435614938324,-23.029363259585068,-15.70721904236892,-12.945366594210142,-13.059594705124596,-10.133321237902713,-7.587816545063376,-5.639680869775532,-5.3042949432430575,-7.90104930857412,-8.88758580803296,-9.474964842388033,-13.510828364115042,-18.523323386063446,-24.08803399149344,-28.373198026242278,-33.53031013107773,-53.70362949486177,-80.92013506482378,-93.43722006604783,-104.50229292727101,-126.08739205069641,-145.62270549026803,-167.20610908327149,-180.16346734212297,-135.76805965242468,55.54055493769681,507.51542633558154,1006.472650749284,916.2058668800477,143.3527471569456,-440.7211752145954,-351.28716116720926,-148.9778385548946,-203.53628744644993,-223.64607498187058,-128.9664356056201,-105.89751242512122,-104.29283496965112,-50.74469636382432,-30.073947058060753,-36.705114271167076,-11.863244702771816,6.086627911986948,-3.795769221150401,-8.307130589093937,-8.6012192453693,-14.659953945030779,-16.09653236744877,-16.409349972095654,-20.080296152111185,-16.471456963030278,-7.349862289210414,-3.703728855596715,-1.7292132148263146,4.936165006919535,13.282387255455046,21.3827048730803,26.62929620566504,26.634234612397478,31.462069716688347,45.58520999970108,52.31361168282868,44.56747146029891,29.69834415647354,-1.1591869387497375,-46.615054310119284,-69.56408963469376,-59.37874247172283,-52.2883533601602,-56.099775001869446,-45.23172379649354,-26.084312589092548,-19.699037043116352,-14.894285481770154,0.4315618840114297,9.581241966440572,0.9666886930046736,-8.549989918830127,-2.6944865242687595,6.942263328908748,3.374414322062595,-5.732049612508657,-8.626569972608333,-12.259561783618768,-17.811770913632785,-14.223985782626084,-7.783662005388031,-11.666876078547109,-16.256556788867957,-9.719905039914394,-1.6595216097755703,-1.5224230841613036,-2.7616045151422313,0.04610404709024962,0.4391711440761483,-4.961515141973948,-7.809353600704341,-7.418705880678772,-12.96065542239947,-18.4485571899226,-21.903563652312084,-44.91858759238481,-77.94835349300098,-86.59859074983567,-91.52404723728469,-119.37904713247471,-141.41731196728074,-154.64605193050633,-172.6757038574955,-151.1921620019358,-25.531871524596966,310.1602148563122,839.7668833486621,1057.866103345917,503.75616595950834,-277.8831730830949,-452.0044514902769,-218.06652742778536,-176.57232527193582,-235.40251949909114,-157.14752311010443,-95.92521840775643,-107.60798975192273,-73.65657237294887,-32.743999636542014,-31.956680467484745,-14.612524485794683,8.05386731889497,1.7017859071467143,-4.0849369822195065,-3.6111856786413945,-12.927456220598849,-17.75973787985103,-15.124883544040337,-17.70337161897166,-17.762663455198236,-5.994744193214622,7.39435581665731,14.532364860776168,25.462431729543297,38.09701389525114,27.114276404742704,1.1737916327134408,1.912641263902148,23.042377112188596,29.489195103571312,27.768618411747628,30.283891560758278,22.650239808912332,2.190310980068066,-17.903082375876938,-31.947533332626982,-43.50536837460033,-53.406257039914095,-48.27729261421199,-28.44722623655533,-19.772220662236023,-17.126667058938914,0.7647209712245786,6.787687587715112,-10.240570364185626,-5.155352849492698,19.554363861619535,16.141610685365514,-3.342025236563458,-6.140031795514435,-6.23111348432592,-10.984313180390263,-5.769970641873119,-1.649796933962822,-11.890519285416737,-18.740246737983878,-12.464846022891548,-7.96004968981606,-5.81750969250086,3.5072005124286854,4.656990077901261,-11.77814325390542,-18.498567579442664,-5.4183725138172285,1.850689088096317,-0.5623622210448787,-3.109535085247394,-15.749345887507651,-27.675023008342247,-22.088408520472775,-29.82719366463867,-61.16848258773102,-78.36351655523167,-93.26104091272143,-129.11510681011538,-146.94204505242237,-151.5527681434015,-181.68414563367296,-181.83132370796017,-56.32165318281905,304.82741392682954,888.7567170037073,1171.223449155505,614.9011124695018,-247.24433184135944,-475.95183591281864,-230.71903275562553,-181.82134318669156,-256.1791622648159,-175.75255064298085,-97.44647831144323,-102.84803380267938,-70.59152104565271,-27.13232735415539,-22.583974078120683,-11.143306939559498,2.099487710370912,-1.1298363785058037,2.111742868430891,6.411180356047883,1.4597202080127971,-6.955269442300988,-25.164004351400934,-37.94369835795359,-23.857977768099317,-7.053593862956239,-5.296150394406649,2.1703328517035616,17.003708000940986,22.2572040408642,25.664113729710486,36.35064402711115,39.65574296585129,31.41843882320588,30.23800661821874,38.103674920733866,35.90940074318037,21.69204073679328,7.155320901328675,-10.368057384966722,-32.08929366460733,-42.723645171318935,-36.826640941589545,-27.006441955114298,-20.733374844697103,-16.619063949676843,-15.116828236512994,-14.904172700044143,-9.739540323765203,0.514409909394721,5.818621669603208,2.439920703253753,0.5392307426997025,4.6316596055887,6.066205524515082,1.8153230232882187,-2.117591448017162,-3.7197339866469026,-4.174387600187382,-3.6683783591894095,-4.201041891901287,-6.111751485052576,-3.3604808792299092,5.933897123384675,8.21211882659627,-3.669579224684867,-9.623686920519642,-1.3231237226892496,-2.851361968211794,-14.965574589909991,-14.116582674404203,-9.939719728556579,-16.038911252449687,-20.694347006874473,-32.80823009215773,-57.86081166971992,-70.515853903366,-82.34147441316708,-114.59334774708955,-137.94414349137153,-151.80210610245356,-174.242845537074,-165.55938657956068,-79.58222761779766,198.46999696568756,747.4432201763999,1112.6957772270716,684.8171074544032,-140.72964901962365,-426.2965197910821,-215.83242573862574,-159.84633232657342,-251.22844103830477,-198.97116862356108,-118.43092513603207,-117.03234118487175,-91.81400059511428,-51.78060658386997,-45.608313330835166,-28.497016261049453,-6.156617590317996,-10.525931509088366,-12.562969541510753,-5.130589485731544,-9.001507552887709,-14.007408992995362,-10.59343957665738,-3.9160653135641077,2.23576978965459,1.6461827410138907,2.2402724508501883,12.334375085445501,14.099647803936781,7.928285377344409,15.849202773539007,24.863643881822043,21.811858216644364,29.730174093891875,45.3594056641373,41.97150208723046,30.922317544453083,24.49977272053928,4.123256197958973,-23.678714148235606,-32.98094365118486,-34.35825974115687,-42.613140709017266,-39.26539882325548,-20.862124869621738,-13.658545367148175,-19.07928326597335,-14.381429328686155,-1.8384741682781218,-0.2672414161979262,-5.593936188777654,-1.418994740356819,7.2398832062372875,4.368988042889453,-3.21541629479041,0.18765258426569886,3.9086051630241965,-5.4135429218070925,-11.545349004471692,-4.320855606846504,-2.524282839201213,-10.755386006944097,-9.99370337555235,-0.35987758990372143,1.5890651170846901,-2.846870460261794,-4.101749009658818,-4.093224337632531,-5.042121708908258,-4.492348945513427,-5.429132981825141,-10.831679296173185,-11.353159212839037,-2.428552187282367,-7.686272635610507,-36.43334265612323,-51.66297348616541,-56.75450033803233,-103.97316906748297,-162.70964380193513,-170.6698653474854,-161.7603005077473,-163.37822845064386,-123.5383418042191,69.73908577088119,536.2966016982984,999.7425176063662,809.7232548826395,30.375717988375953,-422.0936085638723,-275.4673967392315,-138.8857699675574,-196.9580569097921,-168.41527974400898,-100.4369587683126,-116.4356920353602,-102.04349008470447,-46.145972192995444,-35.15453158346566,-32.04083557529034,-11.160466890335776,-10.37745448926631,-16.069932111656406,-9.288393456382899,-7.916226897014511,-12.20294833609924,-12.426494996397935,-11.259582819389571,-10.908651500500302,-12.862422604986204,-11.947813770239271,-0.8840287563255043,9.509494726471509,12.168962585639957,17.425936513188816,21.634773571125546,20.51234338187581,31.10371305681548,46.88339300895821,41.77188348415796,28.31446261735558,23.700923173998984,9.226864528328496,-17.174088802833243,-34.20651974710343,-42.72148984641096,-48.88060750436037,-47.123362463484916,-37.585951432633294,-22.64752656816323,-10.116354325933756,-12.457281769357714,-20.591456669475722,-17.548354153175104,-5.6892826099642875,5.6955125534021604,6.388316958156489,-6.367980655422279,-13.006435792313814,-4.273982043482189,0.9511275175578646,-5.368381955087717,-13.710233543503549,-19.049735012852196,-17.83641382383033,-11.50365784949297,-9.429266961544137,-9.916375471896433,-4.360671895975042,2.9480347618401908,5.115485117724496,5.646890076452191,8.068743347933715,8.149080756190976,-3.642963656463575,-29.55985373030422,-48.120799534074536,-44.16959739848727,-45.75957053101243,-69.30037536572851,-88.95066488530763,-108.176464298715,-139.08908725613998,-148.4648262247653,-146.25725640602266,-170.55526189978968,-169.07783433745522,-53.36598328275518,276.219590318932,812.8930758166207,1076.7323011734334,559.893083914256,-252.16927283550868,-471.3259179599676,-228.27784482101782,-164.2456046124861,-236.48076333315146,-174.2191804866983,-104.56292450649508,-109.28272190979658,-78.39172948498802,-34.0203813786783,-28.737394004618253,-16.143747905249096,0.06789515887685837,-10.171923757914268,-15.046830681047808,-3.760497071740172,-4.125771347139189,-13.628356662320975,-16.36552880434953,-16.75235951459638,-18.669880450816127,-13.14312540677776,2.281178834823546,11.986570760899388,7.01705584112239,4.4951629111665925,16.507982654568917,29.49087262550401,33.953948600081034,35.194572448514755,36.1584570532708,40.08442385037326,44.68605775399213,30.593752203178514,-6.164057171850498,-37.45924048163954,-48.1063775519969,-50.40940384579499,-49.086837033471184,-40.47424566688467,-30.207212736355117,-22.517487295362077,-15.586919932484001,-8.757643126273313,0.7526493981521725,11.458276895165252,13.410789707287234,8.522295849322798,9.048110013234712,12.526206003365038,13.991266777519137,20.173493050924563,20.50145630706236,-5.522617622162009,-39.20997263149506,-45.99576193092405,-32.73679786972121,-23.043441752259163,-16.341875339876594,-8.587898016816617,-5.956941736090911,-6.611122435944825,-3.489272380760479,1.4067457771065826,2.1889734455517598,-3.8413566599869213,-16.594910728973666,-26.479274274227244,-23.654588303874945,-27.56113641172463,-57.44432600902061,-83.11021607380701,-88.03330309952361,-108.62057471074914,-140.67686681240696,-151.3542578511105,-163.25404128020358,-178.49507078186002,-129.10750090347614,98.04337571765825,600.5611597829976,1088.7616512336049,904.881565571067,75.77943071093517,-462.13503644190587,-336.2434551367809,-160.21152795784315,-219.4136262988173,-215.49197049266638,-123.78606465926349,-107.03300630676854,-96.38962685935574,-46.945318245006916,-28.851493151560184,-23.08078679448123,-2.5877719897425333,1.9426049221188464,-0.015734464097977963,2.3650052229627434,-9.288967847622828,-18.110108775354732,-10.641988069157872,-12.001133655440988,-21.236383769739717,-17.03650515443398,-6.1043900892902725,3.924025596896648,15.698116862808178,20.00935218355027,18.185227672928903,23.517554537852938,28.799325007929284,28.237201292508608,34.861459309964076,45.67911125147506,46.262374160670966,37.449637888318584,20.75563725051752,-2.676112620523382,-21.899264058986034,-33.4301665654384,-38.4795790127945,-35.53821938826832,-37.394348720065196,-48.45741070498294,-44.212596525312264,-21.926018018965507,-9.635437993480071,-7.769319709863289,-0.13436088036320015,3.254755424347552,-3.157024710109969,-1.7456882306593045,6.906514385818685,3.8467402802733517,-7.423809938496962,-9.691247276917867,-5.158028133294401,-5.08209825447053,-7.450056559965592,-6.90025313004692,-6.141792101426381,-5.453720810717487,-1.4363176084987952,1.5866334364547292,0.6742451936214842,2.3954990635147357,3.1411838322224845,-6.501159371173554,-14.823700777422463,-11.181403142902589,-8.80615262851886,-16.61740573904414,-35.894709389515285,-64.2737313069759,-77.85841187932996,-78.58586956729297,-104.85815051904942,-140.73069989595552,-154.60751607220163,-175.04725248001617,-192.63768303713067,-140.6583693442728,76.74890436160456,584.2128781837603,1125.7538886533105,986.7157939872715,126.30089875147506,-469.6020587094673,-355.2875816097334,-169.2132479124778,-235.94967883124073,-235.25883413125356,-130.63351128039994,-108.05732497161299,-101.3686419804265,-52.70216147531744,-33.598408078670516,-25.268210375937983,0.5678734487643098,2.7675180641487422,-6.159164108402056,3.3755131713455704,4.296227229399889,-8.308203893914357,-7.2957925870214275,-4.565695640815239,-19.8563180774752,-27.412694121401778,-7.697024521835162,10.717984299661893,13.012797627475287,22.833380752421498,37.20158489283989,34.357219213044075,31.017619224390653,42.33226458554823,51.207567330368356,54.29756769433219,48.55528754566448,13.686876103632292,-28.67158648270282,-38.095768272755876,-35.11382738628503,-51.53959253227001,-65.70441693080934,-56.30508962724436,-37.99050449246762,-24.35058777790108,-15.745678138920312,-11.771178908635349,-8.811334321023818,-1.9650688134366074,5.779603447339577,9.085670714038795,10.441163839249375,11.573366950828468,6.954854527511931,-1.3276885197299393,-4.416649531149037,-3.1270286226446196,-0.777974419475493,0.6430063932350993,-5.746248063907215,-13.689141032436345,-9.669556524931103,-4.515516047971083,-8.945273185815472,-9.53034646345354,-4.313402572717354,-3.8101459325742546,-3.7554747674624096,-1.7993317595875364,0.013825929139663629,5.449457895308274,3.2701841014724664,-13.135747985096963,-20.64130726945978,-14.102092380122373,-12.701311781817001,-17.002960288643685,-31.100311861540337,-59.97501662597517,-76.78851918403404,-83.83312266382326,-113.74912136581159,-144.9749129084374,-159.62345437925947,-180.91452482806054,-181.2396449753482,-103.01018702248815,161.07291821259844,713.8902096593783,1165.6821320059062,822.9934566012113,-73.1833240174985,-487.6171720738615,-275.7140349735627,-157.78833136918874,-254.70752625105686,-217.18895486906905,-114.19855245988823,-108.62928258221645,-95.70794560406175,-47.90157112194703,-35.13848536836967,-24.61417427351746,1.5136472555944067,6.716375497185345,1.9096336800172864,2.192566859520401,-4.268417122405548,-9.888690610712416,-4.2303823725932475,4.1085833373749985,3.1489648515445303,-12.180608900038859,-25.348011987911818,-14.784004317863243,5.009422851693064,10.055752031862994,10.826975178799373,21.54875815225168,31.230796090240474,32.272999087504196,35.64409134373456,46.34492907726996,49.32120768592306,31.668926582550824,4.115258699105425,-18.86482848941353,-38.6051376244796,-52.21190376494035,-50.91884778377407,-44.68685829763773,-42.76524566368509,-31.03755970842475,-9.812010941530152,-3.6975702094397036,-9.366727177263565,-2.7652461821686156,7.054227034966466,4.361055170131495,4.920880942944601,12.291996316915558,7.270418684146967,-2.729492525319573,-1.3372592629035935,-0.8845861677403466,-7.908754530477811,-9.39694564866975,-7.561427810023078,-10.515427036987758,-10.176879297408632,-4.546455111704637,-2.8283952435039357,-2.3160962677106607,-0.3307608365575767,-8.77960614875251,-22.60390463040396,-17.559198702466105,-0.9688311821499518,-0.7956312501722937,-8.289999932693103,-3.8296978909592134,-0.2632975128317607,-4.33306386336745,-2.307212091611108,1.9151611811596148,0.5213985221706583,-0.3413336492267156,-4.214290389505848,-11.128790397675083,-9.907687983641528,-10.05020430847376,-18.353606611701498,-22.49903739782103,-33.486027537293594,-56.95665428381717,-70.5541364506123,-86.66766032891252,-116.93671429857315,-131.94101208128092,-142.89923775731137,-161.5976066635482,-139.3836157321178,-21.57675631884834,323.0081059932157,882.609452672338,1067.4769541297283,430.4006515313499,-336.67942503503497,-422.599659580767,-183.2738782438547,-188.6184715223666,-246.79632358595535,-161.46292955135976,-113.34872492507729,-117.39881956821455,-71.58246188231112,-36.7951925685438,-37.727948318177475,-17.53001685157757,2.6877252205371143,-4.223512489218379,-9.464403240387867,-5.576823586520174,-4.42259017339936,-4.144661214632077,-5.943803593376213,-9.978978169309226,-8.076709099876197,-0.6032482314984149,5.274788284337244,8.56780443935237,10.884729322014273,14.108066426580644,22.556960929281637,33.272572201568515,36.17787131268093,34.57117051977361,41.395067437530294,50.44613168886804,42.98422772397354,20.75787472287341,-0.33942993623763584,-19.446018610535248,-41.05990841660102,-53.644914765936626,-49.56105820736249,-41.795310146068736,-36.56890614500456,-24.366444621742687,-9.799067054360243,-6.638489892642781,-6.783441290739676,1.6331267756698313,6.635332509296861,0.8901152254513267,-0.4040289135227759,4.920746545290069,2.040566338026787,-5.570964603231282,-6.272519599853641,-5.243954401136628,-7.4917326035223635,-9.692358811227688,-10.398366354346063,-5.80198012534375,0.5399309157910537,-4.396873031443372,-11.677735386929356,-4.4959595189645984,4.444611789562368,5.6418644249253775,9.511778157103993,5.187535547109402,-17.16888162860808,-30.56480680310504,-23.388667651268275,-17.201709191778868,-15.340523292947308,-9.831990977423118,-7.328309252570428,-6.207990484563755,0.20564348217684625,3.1768900376831652,-2.6227683449813313,-9.804687795246657,-12.13649477006139,-8.53910897118885,-5.7295462318891435,-12.948950406252541,-30.325661198929026,-50.69573498626998,-66.90447874634148,-83.75527238489823,-109.15260476693456,-131.6161128578872,-150.22837571963362,-174.43187908147902,-172.49775324685692,-98.42506583203095,140.33768218793784,638.0137814825576,1056.644477129993,767.0938332112954,-47.76319398393605,-454.0618133275666,-276.10347415031947,-155.43920004319156,-236.94544234174256,-213.33763750109878,-122.59537613280781,-108.50678581550574,-94.04258563276346,-54.10533963030282,-42.19095518846581,-33.48771945130326,-12.479851858870376,-3.554435134307056,-1.4310069086640738,0.7003102321664016,-4.32086958503292,-12.19821030960587,-17.82245012365601,-17.892516201618406,-9.055798920532446,-2.7087102918322614,-6.554643478298907,-4.023578138690325,10.877056885689765,19.038563123354656,19.09363706829552,23.438454365395444,22.49125876809387,16.801801999323203,28.52563042753181,46.81111764187781,45.23508146687214,32.57625138438503,18.79098392975294,-4.315889347373561,-28.948332820494606,-41.14018371111755,-43.10642059231371,-41.919214755984406,-40.06359375633916,-31.153403648978014,-12.556330155318799,0.712314857880127,4.600672970406315,8.54298066936245,1.295817680160134,-19.46376097282819,-25.307003296345748,-13.444277312010328,-8.587935544816407,-11.445737069960956,-12.739667300004811,-15.707241011943708,-19.474894577845667,-20.033362929626264,-15.99165063141524,-8.086481181309498,-6.816842154747018,-15.49508042562243,-17.922156708543728,-8.83011180873934,-1.03375166741165,1.3028146151174056,2.197522191710558,3.150227382056002,5.460742911892904,4.782546493985592,-6.234298263762788,-20.210664667089898,-20.10597430934876,-6.460278880145285,0.2226984341824405,-7.787987923321239,-12.32517694729394,-4.975390379118142,-4.638372249498502,-17.28254491834447,-20.981271694703132,-11.934804850477509,-11.639587747598462,-21.19694484227189,-29.974210853897993,-45.4621646002486,-63.319874898389266,-74.09606707471349,-98.74767934088015,-132.09300148269207,-141.47815382970455,-151.7250675081624,-175.62220680273555,-146.43825078880147,11.787501806219723,395.7221650579246,914.0993934521015,1004.2394593914021,346.4828067270604,-358.938556770441,-408.4259752856394,-175.9436718552127,-180.16298304515965,-233.88601611468533,-153.58554350534564,-103.25022497005385,-105.6739788654073,-68.45246977354823,-32.04969688472891,-22.405498727740692,-6.167296070041143,3.4441563049755786,-2.3203935096966717,-2.868385839970415,0.27673346772061436,0.519806484473655,3.6004768197758565,7.0902879289700795,-1.2654279394998618,-22.520444875121857,-32.56510880901327,-16.92781518459889,-0.5235236769976135,2.03771836809444,10.505923005468333,25.71513666162346,29.758651818206403,31.204413771540963,42.29841032695202,48.33105309092319,41.80254167727346,38.061733984805585,37.2825431003456,20.314219492281183,-12.502657778636848,-40.73821136267106,-54.16948804774924,-55.985201049153105,-51.58003702809193,-43.25742018244841,-30.334160323674972,-19.47466323756857,-17.188889646922576,-12.65796784978308,-0.763548664296211,5.732858771150758,7.899602293281158,12.104979987474302,7.762073608573223,-0.06708185674503042,4.866711361149131,7.902504272295822,-2.495216502139659,-7.3115994989118285,-6.15058443845988,-11.87509261241835,-9.835010796199292,1.1391734149217676,-5.4468665392216415,-20.360294560122284,-15.232829627570851,-5.074879429899742,-9.115749072132154,-11.08972309738458,-5.728734310847772,-6.377069523148865,-8.662908723239523,-7.002861389473569,-7.1896651878179885,-5.5731343904904485,-1.3979763254599504,-3.0088159934311847,-5.078968541920972,-2.344715685761532,-1.864610613885631,-1.9013261495984253,-1.0437535022077569,-5.789265593304002,-9.40225677897822,-9.38788049260937,-15.812789856263315,-17.92414047327913,-12.381536132677462,-27.38948197713035,-55.22794846269796,-65.70176204887468,-83.94534394834818,-120.97100959034333,-134.2315899019202,-139.39499588564013,-169.25778701539986,-167.42246431244462,-59.791353563094674,257.2147148752398,804.8136664336632,1107.4494958912387,618.7722534945558,-209.38599250076842,-465.19277170871374,-237.810027708233,-174.04251657250953,-249.8668381564854,-187.51862046676496,-115.02253430031314,-122.04433049963313,-89.06230524322292,-37.347955989307955,-31.353228457010886,-20.91823140783724,-0.31284851812204906,-1.4519752620816,-1.861995733526264,1.748027561941246,-6.352421695139753,-9.376828974271522,-7.768667326329101,-14.071440687351192,-11.684978138025421,-1.7810798917765727,-1.9564415579308785,4.26449499048935,23.584137006136977,29.85993291968284,24.944257704618153,29.653026626326508,38.85596837698399,44.55706106781552,48.13885968075819,47.18492724974087,45.15936989374129,40.392681447461364,18.541966233868255,-14.082507427352214,-35.56959290022442,-44.91611672242999,-50.23539413261868,-49.30080823179729,-41.07030868785729,-29.00865895924997,-16.420171810982374,-7.177373213985293,-2.451877300417829,-0.9055107176028336,0.48122529604561226,6.649326252148283,13.035421666200614,9.080742277789515,1.1158994701065827,0.22158687421195644,-2.294846575723197,-10.90410579852476,-10.900964340792799,-3.9100191255822736,-8.289480218481309,-17.947299598620628,-14.122491291773283,-3.1357528706466518,-0.1646341084654548,-2.7620706095135557,-2.4774341066330052,1.4781281392206367,4.82060528119029,6.86377727900239,12.764008739717465,15.640995192155879,-0.8729795253290753,-25.3065691918451,-30.144000786312656,-20.622352594624004,-16.33943279013335,-14.223302335454296,-10.551619708040096,-11.709359337980029,-13.059616932075002,-9.44267305909435,-9.627629421531935,-16.825249924914807,-19.668230409837644,-14.956930174376929,-19.109427130225402,-38.81432026513725,-58.60772047488672,-80.46320360922698,-113.57283005105525,-134.2270106732822,-142.99020779455904,-168.06276007864648,-175.2612145215235,-119.46185865506146,68.5246282504487,537.7126547247011,1060.326859678534,929.1622526426374,109.53588497044571,-437.9980845624855,-316.90795313506135,-157.85164354553788,-232.85212616501562,-218.24836485324835,-113.9573372870676,-107.43984000750274,-108.3128564920667,-55.60120181518977,-31.799750577124755,-22.867542461241968,-1.0661317689453238,-3.318290608637202,-11.281537175543168,1.397303478644229,3.201995944581256,-9.357278109420978,-11.165692567955816,-9.83190553927003,-13.258292392661001,-9.399996572705916,0.735398023935357,8.157952032584046,13.727670848475306,19.03327238317848,24.962000237949034,33.847248094061015,41.01930963969261,41.77853704379243,42.97272249012222,48.00198185486905,46.444181287817145,35.06381511678114,21.814375491472187,2.1920224604272347,-28.245892082574322,-48.371691438515114,-45.439476876414915,-40.7701074538929,-44.20448750031735,-38.26812659436493,-21.77114105128576,-10.054329131993846,-3.9056048181268004,3.3367323932544117,13.078527684949186,20.411744836385076,12.422078174440436,-9.300198011953146,-21.394416907317385,-18.41178136754771,-15.071612804753522,-12.53717786327585,-10.929528320629512,-16.63303563264781,-18.743558180654006,-10.92309217500021,-8.177200927244971,-11.009154221713626,-10.090419709373368,-11.82313269485461,-14.315756477942859,-8.560536150288037,-4.005886121202913,-4.944413060864711,-3.6651970770006024,-5.940012459936245,-12.308617598033605,-9.443069515398847,-1.8842471508838177,-1.3743011384767794,-3.4123108922683194,-4.171097891404333,-4.007523008995177,-0.10273721962144222,2.7432983303526264,-2.1590062874927085,-11.808849201840893,-18.25832109142057,-13.55057772512169,-3.5902814359933615,-4.727833645248525,-14.462506587635135,-26.71933234261504,-47.34613208591026,-63.51699833099241,-71.77685495784975,-98.35412331193136,-130.3947481439367,-144.29099311286123,-163.6241920850277,-175.15963144181376,-121.87493326805142,76.09864281186421,531.8116650521544,1015.6857871260452,880.4421958290619,96.48490602093813,-434.8335942748831,-317.93735834267943,-144.5942085858328,-207.5010414455305,-207.70408011747833,-111.52117875387648,-95.75565391420318,-101.88285377442799,-63.071411038041205,-39.95291632960296,-32.97371918965003,-15.94357037991302,-8.14847794822386,-8.383935243796781,-2.330396210260261,2.80571660300739,-0.6692900745778694,-6.324921681049659,0.21149765840690193,8.456347592216886,-11.317251923646005,-39.50520731804641,-31.416604308595343,-2.692857462110439,9.59539800615105,12.542918476773476,21.705899658424705,31.647102247453834,35.043084630511814,34.055982928961825,39.81270670497275,52.00781145133498,48.94636078111894,23.58432445046101,-5.4310012589223575,-27.63033964611237,-45.86762722784458,-56.96235009249425,-52.71557504406023,-37.79137261708115,-30.013157873013,-29.787860844275013,-21.81624341068067,-12.034199841855973,-8.291410799805966,1.2961332710327014,8.133804414445649,-2.8084642278297913,-9.313715341491205,-0.5620503399889891,-1.2639535838838363,-12.353600813839716,-13.600755045110859,-7.80437910255873,-7.293741578895382,-13.83342818084266,-20.465531665881347,-16.542443941159277,-6.4579156635011365,-6.410452953715637,-13.754305272490509,-13.532764985909719,-7.60172350047473,-7.5416995293776985,-11.843586949667483,-11.005306435037422,-7.127793370228737,-7.151006097253671,-5.648248278200509,-0.516963978975415,-1.497323735201519,-4.365140497997643,0.22522477522956308,0.2879388117943762,-9.959671100840055,-15.570230126202063,-15.075063638870418,-18.045144299388543,-21.936632044207865,-26.529173803992464,-38.65055810128288,-53.70833288804427,-64.74945618974665,-83.96047916542261,-117.71067642163061,-137.18918655983288,-136.46843015147235,-155.91997494316658,-176.27566210944966,-115.49217100960021,105.34542608977969,563.8452127093726,1041.620726455962,916.298625250956,110.8334220128256,-476.9515053286272,-370.09942628792203,-170.69776293154732,-238.39871438972148,-240.5937832895069,-116.3918313020876,-95.22131536615692,-113.9848356872264,-61.4453701913576,-25.44405992937881,-30.099264338039994,-13.947783930690585,5.910390087959964,-3.183840676925783,-15.588851353802227,-8.686531071214883,-1.1127553788752778,-8.685751583953294,-13.928406487142873,-9.116935994546196,-10.740345807845312,-12.080964929310358,0.7530693052987605,10.132223211074688,11.173990012054588,25.629186846932186,44.60445573279109,44.76677959614978,41.88476940248002,51.44446343490537,55.10168223998569,49.18012954592679,43.918542333913614,25.054659657654106,-8.072015981308859,-31.59683416740792,-49.36769788397571,-67.4161316804257,-65.56451493197147,-50.15091407905662,-40.89796427294249,-26.590197523819985,-9.801008236904899,-9.799820130036213,-10.292473470006506,4.649441081511984,13.769548067109334,6.4686001907606965,-0.3658381853472825,0.3319009570212419,-0.6354495260807909,-4.7543836800802595,-5.435814097028176,-6.908180274627698,-12.001021441806309,-9.558153612447054,-4.974809182817696,-13.257913284322996,-19.387447695806806,-12.099252216618478,-10.880627413134407,-16.991438951650544,-11.980632962115774,0.6981222748779139,6.985634753360106,2.289284313148171,-6.257637203850518,-3.612259524324198,7.967782926200616,14.492291256048386,17.11449982382335,10.746840759538472,-14.42282269349528,-36.04173142419377,-32.07472842001967,-18.38178906149107,-13.89528098940297,-20.044554683318154,-33.00361396708386,-43.61684798951706,-47.49106320757701,-60.92116273189699,-99.49986660894334,-139.45116772048675,-149.12379691758167,-154.33199625704034,-179.58145434616245,-178.98472294752548,-86.09744221223784,222.51216431879382,800.3318056456081,1179.3365256445213,742.5848758507806,-138.73668630077825,-488.78438209444255,-272.8591350437307,-168.12388163539705,-248.072183558671,-208.66569134257415,-123.68802908324889,-119.11943437632415,-98.29979291719266,-48.14350877895755,-33.40225083053396,-24.809784677294832,-0.9721832901966501,7.877278717591047,2.3375155223479567,1.6402905487112776,5.578003969655189,1.9775848124943423,-12.958972957551996,-20.889080963236648,-9.179238671851152,3.750609033924133,3.222556495573925,3.6558850044366054,17.64262024478026,33.54184295343012,39.11465116728523,40.59870782573681,43.73023652202668,45.0102713007633,47.93856912865309,52.98948092554706,45.992616703737504,26.294121622242077,10.629310804883556,-2.0374743895769827,-23.974020681967765,-46.39994468023076,-54.27316138152194,-51.53848677990524,-44.71710410881429,-30.641462085872973,-14.997373705587854,-9.365416678108474,-7.057392943876048,3.7808401137524035,14.620742965564233,15.028958667298483,13.464063578876406,17.97357427295785,22.038899083367795,19.580682089622,15.119636237467327,13.82885240676848,7.831711156782697,-13.489703412551584,-35.80337490790307,-34.87938964275836,-20.146397691248332,-15.861442901206164,-17.311916090640658,-13.168427193077337,-10.48861759020505,-9.934636404566092,-4.349464945703163,1.3921212100710108,2.711803049781631,2.354739452632913,-0.2891498205597536,-2.8978223115599953,-1.2819591588986476,-0.4482880992870566,-2.853230146390821,-5.022870783787987,-10.959433016319252,-19.458781485257198,-16.748511559918665,-5.587790662751148,-9.582381158823353,-34.343620208253384,-57.619775270043476,-72.00097239223331,-95.55234038139356,-124.02011830286023,-142.19619228834057,-165.84165511786543,-186.71655687875312,-161.90409945892947,-36.26131340868719,337.89018794613753,921.7602805766284,1099.4229060339942,450.2353755741513,-320.68614987841073,-417.17622082608443,-187.4329581523951,-189.8751688669634,-241.1207239548512,-151.11232843274774,-101.48108798910604,-109.3576344901485,-71.00010247498642,-41.51215710568715,-41.50933077043983,-19.17587092172075,-0.3389898649753249,-4.688224182872062,-3.887031858443791,-2.3491553024315763,-8.800306549176582,-12.328363945617573,-14.30745018068202,-13.350449660945582,-6.2361580617238825,-2.2347863737812173,1.407642618843174,12.12398668767136,22.16065566664462,30.429188460070417,41.70282799155561,48.958252713546926,49.973158472966276,53.81707137443353,63.19224572116816,66.36403083097822,45.19268963540402,3.4880668586319508,-27.576330968268074,-36.7381110110568,-44.72578481062037,-57.811745195346575,-60.98628605445748,-51.73100999031572,-42.37790463719267,-37.590742800238985,-28.45402964975071,-12.142285591817258,-2.4147521910578806,-3.669829063141414,0.013489055276822981,11.919159387478796,16.199673070260182,12.173652341908824,12.808327696971219,13.812722291336398,5.682229256716629,-0.7624456414115173,2.135162926655145,1.5813510552935615,-5.104402138824069,-8.044411578577698,-13.089580508258013,-24.48802753729281,-27.372698116330703,-19.791461232719577,-16.258138303090416,-15.110255087270323,-7.925835362876276,-2.386350947073609,-4.730838012228922,-6.507493743457083,-2.180041331533614,3.074298569412786,4.989296726675811,4.310919775404006,1.3319706783469236,-5.2413429462071015,-14.150360245977609,-18.879556311526095,-15.512810956521633,-11.668170749542925,-13.080160984984243,-15.894837494714565,-25.727017359376962,-47.01283448042111,-66.92221849327301,-89.44236722882589,-121.52994196870523,-137.78570755913177,-144.214352412027,-168.9813122507363,-173.5402341240394,-97.15233549415291,165.01978666559867,698.2536546175679,1102.39129403138,737.0988806634687,-104.55705986750107,-450.5523355462949,-240.39282514159777,-151.83168286408377,-237.12999520662063,-179.53099402552363,-85.01973061478851,-88.60574349371481,-79.59976725863125,-53.78337527122385,-63.28291310480694,-51.1890578673449,-18.485290987763282,-16.28261751937366,-19.634139080951876,-9.497119455893529,-6.843240002382409,-7.296979756898196,-6.569165099768874,-13.498126934253762,-16.53120412734704,-8.108438079755176,0.6804502456220396,8.308896255401686,18.014198458437598,26.392865002083102,35.24802358806312,44.474016553269486,45.35878063507609,40.568305470365985,41.891653694342395,44.610070025031426,36.92812969470514,22.42229514268042,6.329255645318376,-13.72824032567688,-32.50212273495642,-44.2304810849234,-52.43866252964446,-53.43192885494628,-41.45896973786195,-26.491847000300627,-18.54123323539956,-16.43075736229121,-16.203903418077374,-10.208645154609911,2.5926896314098933,8.604995863797324,4.970358218083656,3.249504891886321,3.481767363596754,1.7808371806778895,3.2597346926994692,5.909844385639894,3.1184811044245784,-1.5271133476068162,-4.7541564043849665,-8.29994127543549,-8.763960155793326,-4.957861415858352,-5.418708341600286,-13.018348415270163,-16.958579335119428,-11.401667399007914,-7.082257759899887,-11.825442062311861,-15.756010533349212,-10.64073839620392,-5.107346446907872,-6.412540742827883,-6.192072522011671,2.1329117869229393,8.256902027030947,3.177943907283831,-3.4196364410405433,-2.4056474410162956,-0.9647774373369558,-4.26594041881777,-7.826331329948026,-11.795923079360982,-16.715063033945803,-14.756762473185294,-7.395964788405564,-11.98577873817413,-35.25861432125215,-70.72027235077528,-114.39322865957308,-143.6032013365536,-141.09916581615605,-149.66083136356434,-183.01381417952678,-174.76593437902062,-83.13410621347798,193.12202184066814,742.3298545087937,1112.7664089074326,672.1384568560755,-180.57062491495725,-469.03232898546673,-234.21620345504346,-157.23876288073362,-236.36763648584613,-177.69694122188343,-104.90335719551618,-113.12874548911462,-83.7234656979497,-40.979271477147705,-45.33312145274658,-35.83849983098098,-9.900210882671342,-10.531904749313142,-10.795435596384813,1.740461741273645,0.27066283490829335,-9.331077006874438,-12.38245143501786,-13.75948518831564,-13.514447703731967,-9.7586236084616,-5.0301754844166755,1.3673456892357017,8.212504351705197,14.926742826426326,24.82203778544053,34.53111729780839,39.60318563163335,44.0386837546657,49.24451506309754,50.302148833311705,44.58615336320153,31.647487788998504,10.746470412837873,-15.9216708452202,-39.12241005946271,-49.976583901375875,-53.493218705793424,-55.42928182205415,-48.481646019835765,-36.6017415359819,-33.24354799360829,-28.777758832221448,-14.98477227912122,-8.097152126822639,-7.640358063348092,0.6683491583152161,6.199385624804815,2.714308352799943,5.032258329576878,9.53635729191113,4.29367658973484,-2.8669585228867938,-6.759214725842645,-6.1021223804777645,7.901971814892514,19.43022726950225,-0.5225393180664568,-33.88897749834187,-41.34800034260562,-29.35666697303928,-25.324309640782054,-29.190373526016185,-28.963665489978126,-23.276163404450358,-18.06620567925689,-15.973767740511576,-9.91503420866443,-0.5437211837385796,-0.19929285014188736,-3.156513483318818,-0.3411788420943793,-6.261141951041417,-18.41410888039776,-13.969517463110243,-4.4505688617951265,-11.012273940350376,-19.887696889800267,-19.142443376973,-21.6902063757874,-37.98094147127839,-58.32646235234512,-66.88498515590732,-80.30918151987282,-119.53422868029595,-147.02625243510846,-146.92376046568722,-169.09751904481612,-191.6976104177323,-134.12583094699565,70.82225877771134,531.7662329351281,1060.2230675934136,983.3440241951162,165.90894084504555,-467.67558719748024,-379.80969005949567,-164.20179166111873,-220.33465694366504,-237.22054957767602,-129.79370426697523,-103.92276069865093,-110.30427956783748,-57.98122960285578,-28.647001721672268,-35.68840318802429,-21.888131787948993,-1.1859158021904328,0.29058682949222714,-8.15673940133798,-10.498385185933696,-3.3359213312985823,-5.1739586686026655,-19.032435195900547,-20.474691555689084,-11.912172120465176,-10.395650243838165,-3.2845443125707354,13.557160738689202,20.42318131480985,23.162097586965867,38.20072218000136,49.30072176327843,44.520938274290074,43.80311121870707,54.73297961355445,60.45508500690776,52.50377486755856,33.653484980518215,7.656334322703636,-18.96841713335004,-37.96712796717009,-46.660990022792376,-59.315799666410534,-83.69122695899287,-86.56593554512787,-50.13007449054375,-20.816722650640813,-23.845242831075808,-23.916216181426954,-8.649200436466892,1.9373201533236077,6.390157628911972,9.182312963402016,10.782199377973063,14.72527126968535,11.653792903334486,-2.6632192987923062,-8.622004399469763,-1.6450778244560027,-0.6841088882289235,-9.129311408945838,-16.33605184483337,-19.963272140104323,-20.97801763623018,-20.37200579874318,-19.703185434291626,-14.457838320646143,-6.5574314115827335,-8.872660940637854,-14.56153098107686,-5.868163403708138,2.2620324110779286,-7.3611046742355875,-12.735519838545807,-2.2643149455674703,3.401586518020018,2.1599461061455756,2.331604860521999,-6.8492420803272935,-20.19025430956816,-16.384566730948205,-3.8247963566791583,-6.844702671011419,-30.757236321878104,-60.61251332593902,-73.77360279745947,-79.40681142594667,-112.56602894757611,-151.73656055635672,-155.85260719710132,-163.37555765116824,-193.63610811349724,-164.53760266515567,26.30321791811693,473.3654907191358,1027.5848475756582,1076.5697848497225,340.66273931788,-397.98470581074736,-428.9683210559293,-186.75827241497274,-204.27330894710195,-255.84011629848277,-159.51227948613464,-108.87566484063777,-116.00017062716815,-71.5736163540586,-29.133195047315994,-19.76751819092096,-2.5331856353368263,10.688843753597828,11.899582778441271,8.988988219682795,-13.080389653672722,-35.747888304354454,-31.220403382026554,-21.92604424232024,-24.693368681845257,-25.70690338020899,-20.801054954726553,-11.107842178128626,4.656257878631703,21.65735677969425,36.631007602252,44.13870396697188,41.015942322842236,40.52277203183693,48.266871997348304,53.07953681874299,52.96333782555666,45.414481110996455,22.086925939320196,-4.582958176896545,-20.627458260711354,-35.17379610393139,-51.0628964099342,-59.23015353039828,-59.56138232692645,-50.66658074518507,-31.955248298430398,-17.864729961508292,-14.58546952334023,-9.92388756235457,-1.6068472539604848,2.5833500214394203,8.053421696458141,20.4301267766392,23.90525860974612,8.296063067974215,-3.4557717320319323,4.38843489713337,8.769719415565152,-1.920430851927053,-5.0647358332933425,0.8266650458006719,-7.321347900964984,-23.164833655205708,-23.007994951426202,-11.153304200467359,-6.614839502568147,-10.452981582256612,-10.958317721552998,-6.6240887773369135,-4.8540827915148235,-3.0371375914858536,2.4538105748183447,2.684793451861001,-0.44861248833458767,4.772217392733152,7.381421775985256,-4.207449536438979,-13.09962840406461,-10.052439025326393,-10.379198145842402,-18.937155463831505,-22.039805860609665,-16.739141007794785,-24.91202150769528,-55.73949218909905,-77.29873431275553,-81.04677374412344,-103.63691804747327,-135.0200679022874,-144.41482011419717,-162.82931477257142,-188.86514444972727,-148.4176106506229,51.441963431493946,523.2094837632819,1075.172921375679,1041.242507928978,242.53651818721565,-442.78715199894293,-413.09763529666174,-188.41600731699043,-219.59559616791645,-250.2033910557841,-152.25783486725146,-110.36670050989218,-111.85410641813311,-66.21212852066546,-32.81795050111064,-29.93530219696276,-10.181745139546475,6.937905845400783,0.604691277612595,-1.2949260571299597,3.2038702576192932,-7.4821934372663,-21.07732512971202,-16.584164811020045,-9.101612677361517,-13.501189165193207,-11.331151148973978,3.3387071673367616,12.623056716018564,22.814877889609626,43.638868812822224,51.9230081255902,42.224814632192576,42.872378715191026,55.18132020214701,57.11566453430693,49.17664246249832,38.14765985618449,18.618534699476562,-7.07361307061448,-28.793797030444754,-41.55181987701824,-45.11648019683071,-45.76609134750977,-47.66981141316873,-41.54345940106609,-25.57592896293829,-16.601525557831952,-17.635260753709076,-12.051842687498882,-0.7511674157637671,1.0275349419258628,-1.3274815314572397,4.531595320050256,9.682721541821563,5.810464184928645,3.6516798552563565,7.666834270760763,7.446640668365254,0.270350352259749,-6.2760115029733345,-8.44270362452856,-9.127865849755747,-12.827076324901514,-16.758184779185683,-13.117808668569474,-6.09464214650597,-4.320298718892833,-2.8566170926339023,0.5313400798329475,0.4767902307313534,2.6876322838930413,4.686666207395966,-10.62803530792462,-30.992799268319462,-28.691698178473374,-14.24569420288173,-9.501837476764276,-8.847185136378314,-5.090989172644919,-0.08218068205740181,7.380181268045913,9.252822689016348,-3.280147142138862,-15.548653161965035,-14.010008787782208,-12.345903992479219,-19.225291036789535,-22.128822049290747,-24.293988092487005,-39.37158995330506,-57.996276951039846,-80.45159536475532,-117.66689416183463,-141.31165684569916,-145.76995163975366,-172.96476441282832,-194.79031379920485,-141.38692836237422,63.14682619341008,548.102765641448,1093.7943187069136,994.6867066846509,164.7546597180093,-441.9415566911131,-348.8489457698586,-164.0713565867615,-228.3814002729074,-232.7747062151223,-128.7423724236321,-104.58385789868915,-100.20965685036194,-52.22665579772875,-37.94683827773958,-40.93934208063291,-15.08746844116606,-2.890405814775356,-12.50807830783777,-8.907795749797195,-4.336132684130604,-13.315979013699536,-15.886657088352038,-9.844173248087962,-10.707115181495817,-12.759791786084547,-5.278992403800872,4.774377493697477,11.904675916595327,20.92722505065387,31.84987679837962,39.548672833203284,42.574276554801855,43.95335896847326,48.396743194097496,54.38026740111141,52.48559919060531,39.169900796953605,21.54692035888827,4.358956963195755,-15.372350379404985,-35.12596657282438,-42.17699603677286,-38.25988409721495,-45.05524759808691,-60.602432864828145,-55.82404068275093,-32.362373903957575,-19.055115180860234,-16.552377932655443,-9.295718497762667,-0.8001537375614376,3.1092209119530665,6.600772053674219,10.890871685872586,12.823238323465446,7.850891731051765,-2.6723942887379533,-5.758748101066455,0.27613088559604293,-1.7703031475975806,-12.13543916643498,-13.6275477550958,-9.569793403342011,-11.525858249863909,-12.665053898902293,-11.672392864235462,-16.931927542190444,-18.86480164976242,-10.228433085044257,-5.115815493129352,-5.9589684442297965,-4.371907954021797,-6.437583534383641,-10.71189166428765,-5.276181757888487,2.444266228395941,3.0038323305713313,2.1562148152956144,-0.8375412960052877,-7.084947462204038,-8.30462969955282,-6.875605743385574,-7.983394222959063,-6.387730266680972,-5.408920029717368,-11.037483898925672,-13.806957363286049,-9.187821634408007,-8.088861725068508,-14.332369533654905,-20.25950392474389,-26.426950555074843,-40.03125636470164,-54.14333500766102,-67.56394243534545,-101.3795257920836,-141.9232376887883,-152.62591542970006,-158.15092438890795,-177.75616106358063,-157.63841825319392,-19.79267874983759,365.897202128519,936.1407466925629,1086.5531063892954,423.89040158306693,-338.85848517746,-422.09045136767827,-188.15299008787025,-188.61448171417493,-230.58505603787114,-130.62415729146522,-86.57456523380404,-119.1245835117145,-100.52226637194019,-66.98773011685098,-58.48952159953282,-38.60933453250395,-17.04025635585809,-12.262555259901532,-12.294528012486488,-13.03136983071824,-9.009465074018273,-2.241929364738734,-10.3838732161345,-22.789625342511485,-16.702361874624224,-6.260688590581381,-6.467611162489371,-0.8659427190661502,15.650335214205628,27.52082491036579,33.75722608141314,38.86820343346373,40.79585797647512,47.60558004648363,57.850551781813905,52.09494186338353,36.494815282680875,29.054422274254325,15.075607802730369,-14.116157709757267,-36.807958648965936,-48.82178122145665,-60.38262278580487,-62.67420958126369,-51.71814031355973,-38.93731486819201,-28.030513326846652,-21.224557031194124,-20.324491768116957,-13.459523180572255,-0.1234002786123618,1.26070125141257,-4.116917311414664,2.976756117548655,8.31148245244342,-3.026855381843653,-6.7650307989245135,5.705364830249632,3.361046044576245,-18.04824908766676,-26.741008988755716,-15.194505647556198,-6.269749544009674,-13.376164604065146,-23.31481457544325,-17.352520045424484,-5.603841917837588,-8.236960364084737,-12.291695295864683,-4.228459672018637,-3.4611846777551705,-14.14416548719959,-14.196806414062465,-5.231172145465404,-3.9273004069009367,-8.302665066737966,-11.60428521824165,-12.191882618027101,-6.3271765516219,4.016018700234131,9.04168218877183,3.7823887043160447,-2.97714571753356,0.38658286360392324,5.055676288642324,0.21154429173433087,1.800936338151189,7.175409590687714,-17.261821022772843,-57.50658092665756,-71.50013621932382,-72.97610793859461,-88.60334260627336,-112.38493872021778,-136.63673787017683,-150.6308978110892,-159.5517485394616,-183.89552150989624,-178.2883809412749,-38.54220755551279,339.32164632175454,894.3262235860109,1118.967627727056,548.3788916722019,-279.6473824894308,-470.10638564807084,-209.11861206091646,-174.35380030050095,-266.7522854889851,-183.34456374815608,-108.72654496398347,-131.24089258642238,-88.36995959035764,-24.042109963189354,-33.093080085351176,-33.21449982430478,-0.18380154043340013,1.7416508780665723,-9.399327402294759,-1.444196474578348,-1.2873797285208077,-12.750331762622906,-12.112322607849597,-8.345595767254835,-15.548802712467824,-17.205131082076537,-2.4875268104941237,14.902479962521367,24.761585081557882,28.364198307972124,31.658827589033304,42.494988206481366,54.84245013785538,55.02427449356369,50.623207206176275,55.07797108057538,56.85901584224082,39.93375701117574,10.900529642938542,-14.37431238687757,-31.118811137166666,-44.97505111811647,-57.96826913964057,-61.865065106634965,-52.3097879020406,-39.53681321940398,-32.289335837532725,-24.773504727521498,-12.375134441208672,-2.8894562701117827,-0.026685937198054788,4.155054591569104,11.492416593418037,13.862116810422032,9.789830990412263,5.963567078560063,4.817196397330266,3.337050070387809,1.9383514197481113,4.942269786006211,8.732977290337725,5.938858149383256,4.542795112520008,8.886964194224065,-2.2458364092562135,-28.552447394853843,-32.04883833918537,-12.207292869691527,-7.491743139303537,-14.020716892800532,-6.7382863315487285,0.46325430168235293,-3.585150144800462,-3.4468298724644484,-2.893600196426396,-11.990103813497289,-13.294345782497999,-1.086930853180208,2.1189111075585814,-4.958435838950722,-4.227368349817908,-3.8177068303430453,-13.503659047057923,-13.550662591186729,-2.4614167943365786,-4.205628210234554,-15.626831183268383,-26.86640877992482,-45.93319487585029,-67.54086578631026,-91.0607591700375,-121.1830491667714,-137.93932250388025,-150.46955307233318,-175.82548505374976,-164.58881692999452,-58.20089138985287,249.34277597325442,799.9269515388049,1110.6659164605487,614.6488381743063,-209.7744881106973,-442.2925553924139,-220.38584058881938,-182.50956965740596,-252.6021311168509,-172.68019537914705,-103.21739684858625,-113.72658638469412,-80.66803419768053,-38.58917577027616,-39.58477215015844,-25.788346682028333,1.8172892688138695,5.743635220854369,1.0653755290436493,-1.0237793804040152,-4.77328835002233,-7.146354240729796,-11.40209135706596,-15.723491701048513,-13.515135917810158,-9.725082284714267,-5.2274575393177765,5.270225787365067,18.82145099093736,30.913875137971793,38.82047964103995,43.04922445834918,51.48495594307868,62.045392953889845,61.69711897971344,54.425365062799685,51.8759387495957,44.007780115399235,18.685539529517353,-10.215829659736329,-24.345252150886473,-29.252693966088056,-41.92199285420406,-62.87538247505381,-74.56747971323624,-67.354331714266,-52.17240198492624,-38.21855962381514,-22.049395282542385,-8.10527962529111,-4.6441982597948765,-2.2706389140176633,6.479976222929173,10.279691549337873,5.9091471533519595,3.1296262428990733,1.8387183155792908,-0.26691406962123665,0.661637248453518,-0.10716039017595058,-6.734893998466585,-9.838163395086372,-7.4067712007017725,-7.410782226688573,-6.368675408763581,-1.6877616485805298,-2.8074584955419244,-7.794005606699908,-7.3854268974265125,-6.177101195350442,-6.2911932426617,-2.5137780876782685,-0.9974247999640049,-4.730393387424389,-4.1233810485242195,0.055071991934312337,0.5242136012064709,-1.1018934179008664,-3.9508697211988277,-9.075884694881552,-13.580629944144661,-13.932491333312184,-8.249984015887492,-4.472615018587806,-13.686928273344936,-28.943762086985092,-39.4005682716555,-50.719377437607804,-74.84321268526658,-112.23360470095704,-139.17718594168338,-144.5759440966524,-157.95737519592393,-173.63687664981933,-134.612760164998,39.55127700402798,470.7820896292717,995.0162992696544,971.0964329160278,220.42458229960573,-406.3580901231003,-354.74163651559843,-157.9969815027793,-211.15674672197989,-227.93202368807144,-124.80446339599864,-95.79871920186446,-95.64229124033935,-51.74876971882462,-38.79786524345654,-40.19817103322342,-8.03926968930659,7.948155523024727,-6.844278837196754,-13.987903565054335,-14.437499652505984,-18.324741440958277,-16.549266297712574,-10.920133714911671,-12.360423543836848,-21.91829904389406,-28.846077283218673,-21.682954797708966,-0.8645170719055049,19.474352330303795,25.43289739135904,25.434694812525116,37.01999551483556,49.99017903128588,49.99119250225576,51.87529417008154,58.22852652356252,46.759210836361035,19.565757535984368,-6.437257122016392,-31.152621734867637,-50.90032469968801,-60.2340034105608,-65.46905555953572,-60.653740747047145,-41.61915217404295,-31.072452373211284,-34.078010948001335,-28.740196333120053,-18.542633599938977,-16.089445794869576,-9.119229718888842,3.3200670991519843,5.783644361028145,1.6508113653303553,-2.130562484571616,-6.961194679298437,-5.971966243823815,-2.1921278687203625,-8.456554911976713,-13.633343619710075,-8.943742631150272,-12.957730552825598,-22.30490870736247,-13.570403255396723,-2.715504807483299,-13.913079221684981,-23.51821433265741,-9.701450445582346,1.3548991412217504,-9.905961874113324,-19.08035261062154,-9.463013703229642,-0.7404707472811403,-1.9326641208618653,0.7893095310391267,1.785017792314953,-8.054604820978646,-10.529943638204013,-7.413135091208865,-21.584317351755466,-32.504155278776935,-25.945972018688373,-44.35036360450701,-82.01573861807003,-87.92746348349954,-92.48524985270006,-127.43771262251076,-148.12762414128468,-169.5220987188241,-220.80521235735768,-208.871436297529,-33.62641313005278,378.59745172461766,961.7570650199212,1156.9359953552857,501.4666095046704,-348.00720643527177,-491.23444243537915,-223.16182271193168,-199.87785863011942,-262.83649804293225,-165.69937592031278,-110.40109596732151,-132.79014820160387,-88.43771508471198,-42.08889296356074,-46.697595382024375,-25.597475711824792,5.84478378906066,-0.1899293760397569,-10.557904437595031,-8.576719134784984,-10.406761015232739,-15.179055994586054,-20.594294348499098,-20.424435820801595,-9.90970670894886,-5.874309268967609,-10.731937133459892,-2.425364911327429,19.886516342232984,36.031721340409284,38.57375083534103,39.88990179103935,53.25408030146715,67.14524049304171,64.27438048652766,56.51636757600088,50.49203127618415,27.941866209706077,-3.29266053341608,-20.70169084406176,-37.17808638004293,-62.7904163762222,-75.20047361128468,-67.61005806057945,-57.31930482169007,-48.45089691992419,-33.73475210038714,-14.617453221009207,0.18365146228987328,5.030956417937894,4.617154526260826,9.956818061659076,19.342544890529087,15.204388894280985,-1.0883944504444472,-3.217587038962627,4.806894989062185,-6.879298370953698,-23.2397988971983,-13.854945043211812,-0.7741685371717963,-5.753881317086346,-9.195750621120025,-4.5289463145544495,-1.8406887960284486,1.4399202250343848,-0.349443988873972,-13.88594958856557,-24.92583696146429,-24.70138197015001,-16.613245194429197,-4.6865939730787645,-3.209459457251924,-15.85304078238412,-23.304583297126467,-18.897973208145917,-8.856094133084213,-4.227643470855256,-30.839898587600143,-71.96135203409817,-72.67626675742444,-66.48561303304297,-117.71853001529189,-162.7929898742051,-148.70760116237273,-157.34145862982984,-197.70914072632627,-165.80196576259448,4.432540411623648,416.6288528201324,996.9589657120333,1125.085210078959,418.86052211638594,-370.4429581819655,-448.42153541191084,-198.56445672089163,-199.47516453024286,-255.46375684612264,-159.442817809466,-102.96220895724005,-113.82975599913902,-74.66389263364422,-37.14232520744757,-33.69592430325207,-8.799484646155006,13.489918514831679,2.1970385141951887,-8.049871106258703,-7.508706385014165,-9.003294130864884,-7.913926406049706,-9.450829120536119,-17.406255234691407,-15.073705332444971,-1.6118913598960116,3.5823769007571435,5.546049826886505,25.500602227423446,47.64432918992964,42.77989738670631,31.639789605997116,42.69464999954689,53.798045183796816,49.89794747483959,50.39114998999348,46.586449488755036,18.39778285960968,-11.489518637355792,-22.027678283507694,-29.516055484741614,-45.647791550901985,-57.82377288007205,-52.02730957579022,-33.09761965565079,-17.090573827208978,-3.1593185620046427,10.811023525996593,3.3654980125285636,-21.36871927216338,-23.825592868945673,-7.244117813411428,-6.507578139143472,-12.384620472082736,-2.9306909168488477,7.82312682065052,7.15524552676786,3.6958682248411927,2.4782443180682314,-0.3386147082766833,-6.884561282923116,-9.257093609243627,0.35529053065283556,9.105678201370763,3.976318252380141,-3.4961238129088876,-4.380666407449272,-4.148964504659423,-2.1400280195653636,0.49474493014129806,-2.4282245284124713,-6.346883151617977,-9.41206750664584,-17.023858631761442,-21.056822686013703,-14.233977712056575,-13.264669006872822,-34.61250290324763,-62.22892616647984,-73.25069478873584,-85.75407228090188,-119.53879034145115,-147.6824104506388,-164.37162099785812,-191.02400932828905,-193.76892695123303,-104.54471016236629,201.5929128922879,788.456232884921,1191.1650464540653,762.3052613630811,-129.51699921779215,-475.240188495592,-255.85533408376816,-170.48982469372925,-255.4739897899644,-200.9347971105118,-120.11138896973182,-125.10533961268298,-94.5353117870599,-43.355349329779955,-41.240285119471146,-30.380313768428408,-0.4012087448186392,2.0463195171465216,-3.0313691967407372,2.824903877693906,-0.17956558308983972,-7.357361183792307,-6.9462614973825865,-8.589903125907666,-13.388649237376738,-9.0991212060035,3.575652394799363,10.66236988084873,11.358557283167855,21.574476432619022,40.43534588586616,46.7701004930792,39.80122969239799,40.209893380731124,51.77112424266847,59.42589039723123,52.016330215126104,29.993407831556397,4.0359445349205325,-16.85001763107565,-31.138081169430052,-33.993002508875946,-30.78756926150338,-44.089601738207435,-67.25583758840624,-63.94851355811157,-36.69845913977103,-19.069150584362824,-12.87171368493184,-4.91582565428102,-0.6403722016138804,-0.05377871986797089,5.625257550776783,11.379508796769551,11.375080744345361,9.266866613554303,4.65799468058907,-0.17617258453484208,1.708008910617866,1.6364806936658702,-8.885647214952353,-14.28565919322714,-6.590077372405922,-1.7848242462582498,-4.484642380280663,-5.52719325379754,-4.080546495451664,0.702766399515788,8.407050783749053,9.432252619666183,3.9404154502243216,-0.6079631353644572,-5.409530466424574,-7.2445846411267,-4.908952619316924,-10.866753977125718,-24.899537515836677,-39.5478789061269,-57.87909381363262,-72.27942483072522,-86.40710881080571,-118.79862897965218,-143.77258913381942,-146.69444438018388,-165.36800284030028,-180.1964329615274,-128.38253102310543,80.81534395396324,581.3265398546008,1098.307082162126,914.5206399779842,63.23240669825812,-459.0890837412634,-316.2430917290202,-164.51273976312407,-236.26626987030434,-217.39864820543784,-127.63110383284796,-118.7580830437945,-99.28867637720646,-48.14000724633132,-38.114273723799116,-30.23476613281078,-7.28001472121014,-9.672343543144038,-10.90339824769396,6.327235308819315,4.079360114566462,-10.408985609320169,-6.2531683585186055,-0.31398405614832114,-4.4020540595051845,1.9614465787832636,9.192819809588315,-6.41235761028099,-17.16968448493204,4.232792061483511,26.412967496765194,30.138081414106434,38.17247683858477,47.632241480065275,43.589768245681014,44.17736633788253,50.07460671431768,32.434629080642274,-0.9872478420152184,-22.893580919386125,-40.64043913586076,-59.152153141190276,-60.272096835577116,-51.60324177403136,-49.85436890889778,-39.48155601584056,-20.41607245498624,-17.939172733698115,-18.4908056626131,-1.5467503030927006,7.74627017199618,2.658344545490582,8.992889838848889,15.051238473272146,1.2567459072470903,-11.343366886659368,-10.25108500833735,-7.63358441950821,-8.526142991435893,-14.862873980218541,-19.73343775533896,-10.447377237774212,-3.301337611177715,-13.057973930215983,-15.911256504933151,-5.141818413269075,-5.170964661611428,-10.947051818466392,-5.5219431865576105,-2.5652261977144555,-5.805695509894072,0.27846759814475774,3.2673324173966662,-10.843166271494866,-20.17238762065511,-15.668566997517914,-13.951551471236339,-15.781759928933674,-27.600207353784945,-60.08735526909567,-81.85468537851736,-84.08352063113611,-109.78481015747292,-142.52679317425304,-147.5023026291175,-167.74169385556357,-196.40111135009482,-142.285059668722,82.04148748122847,564.0372237776842,1073.273263001981,950.6312319766687,129.8694273266603,-457.98797097800457,-351.2890896683857,-154.3551401280017,-209.650233892419,-226.59682876995808,-154.2939189603707,-139.3921964961096,-116.15855849140674,-62.64393855431133,-52.949216632667806,-50.58935430919331,-30.968714202895825,-23.576162640392425,-6.609695348234567,10.702288114692031,-6.481188523871467,-20.81535806971322,-13.233056134497161,-15.646884320446095,-18.245121987384856,-9.95660154054004,-11.253436926342236,-7.023673669785082,17.825389703680035,33.16613232330518,31.523768004566346,34.37001131476465,38.256333578801005,36.24017761872032,39.058857045333475,47.545798683094844,47.82817218739504,30.05921187825435,2.956169697768429,-15.595288096495457,-28.96854891163573,-49.13111603516751,-63.272649952486034,-58.907091234945426,-48.70767138995105,-43.25863509383916,-38.08713686171711,-27.662514610987998,-12.108468000273113,0.7307123327248206,3.5643839319141843,-0.026130400172156953,-1.7219690282185738,4.240136501815521,14.27529203831535,13.880877532753999,-0.127281276384414,-10.471468466984792,-5.326497092161555,5.547766648447094,3.781836802890643,-11.37052780557493,-19.73865084459978,-16.182705591388206,-12.959294059009762,-6.463110860409085,1.4724677719002166,-5.9789758854603825,-13.507449595804449,-2.2089859402480556,5.085052880054457,2.4064846687524604,7.127852237428073,4.062985073713328,-8.00935659874293,-1.9576294220656383,4.118696121348691,-10.35482898151866,-21.832565082781258,-39.25297444092287,-79.67887850469964,-106.95378101252545,-117.18247404770686,-140.83326743456138,-161.73485807789197,-173.81986761133447,-188.79084767085868,-162.53436507169863,-3.64020958248463,415.6750498217212,992.2157315727985,1106.6595752528215,404.7999797817537,-366.0035812435701,-435.6540222151244,-191.84304922052297,-198.79942330147864,-259.5858375804368,-171.93940889374738,-117.26482737876553,-122.12967205499474,-78.72637248243251,-36.98100907831558,-34.99615312064658,-22.101165944795415,-1.698364307639448,-0.09685024608396375,-2.223954786858698,1.4169023328627972,-1.2326390190218888,-11.7939119489448,-16.10718540862424,-10.926172571944614,-7.997932785382716,-7.458704953430218,-3.209471413588572,2.117460550446734,12.888554064827195,32.44395258360616,45.286123827124754,42.093631806915894,35.60204768357677,38.091949692895504,45.2702870802415,45.04114444295399,34.89282501457272,20.109499834330034,-0.01942808786219352,-23.987384232536122,-41.55425319362753,-48.03218210639007,-46.028535756855526,-40.931371451462205,-39.60267724603715,-36.96862950135211,-23.833157377988314,-9.476485225916171,-2.866258913594807,3.929509200732282,11.302656624932752,10.47865498564495,4.142725708742169,-0.4951594707329878,-1.5620816303751646,-0.03664131397476922,0.24488805517775702,-1.189186852989664,-0.6781934187950487,0.7408373663213954,1.3899395561216537,0.5656044703161598,-4.268856227658723,-5.461760393373661,5.80079593108099,14.607355413973423,3.69189618855634,-16.446182624958418,-26.4096591143807,-20.49837150919778,-5.668908532294548,3.718506026389239,0.33208741417629994,-8.905597648261995,-17.115559243464702,-21.71712563846757,-20.3415557071578,-16.079472101863374,-16.13791627866551,-27.656891895557585,-48.72473355865329,-61.60306707532783,-70.06345807778771,-103.21128398580736,-143.81101430833564,-157.07901886908886,-165.60254473633734,-176.08315334180543,-140.73886665544393,30.043177198155774,480.81503145259546,1040.50517709383,1025.345784116812,242.95563895319827,-419.62651036402815,-377.63948304038104,-175.1319432975692,-228.3345661544856,-246.71953510778758,-136.9567905562691,-106.4419488355844,-114.65960012157646,-66.02055260987156,-34.41409603041359,-33.59569984743338,-17.11109343417099,-3.424501380235604,-1.6000978352927753,0.780425618176281,-4.302412785035262,-8.987263950260129,-5.010670393559735,-8.466093254424383,-16.305383259147945,-11.710136294861101,-2.4920217227865162,0.3619898942420763,4.539031576679773,16.358966682481704,28.156273925492314,31.56620032766065,31.75496484449551,38.47476042721013,47.748881849784134,49.23008857942136,43.987698992867415,36.74601520692693,22.035901016956323,-3.2115363042695044,-26.535303885923675,-39.15858371219998,-46.804943665673406,-46.70665034939368,-33.10149240150322,-20.63530567034557,-15.657127995929633,-5.838574976010985,-2.1400413236030147,-16.49783614640825,-22.494580816058246,-9.340851702158414,-3.666928130587621,-9.899759145131679,-10.631973382845423,-4.870595555389386,1.0722781312890888,2.228148711198644,-4.048344977799751,-9.110899752316893,-7.757011135740383,-5.625065238685304,-3.9734923597443377,-3.698073912904988,-7.99309305041079,-11.871008523010111,-10.515482843680012,-6.071234089472437,-0.9797817882049031,1.6634571965500964,0.7118569575261695,-1.1746176106140087,-2.676647194929405,-0.46808426786667745,5.569845170961315,4.8539052617277125,-3.3255318590874445,-5.971587478324945,-5.396722204062694,-12.246059374858898,-17.726132747463534,-15.742752391426222,-26.128200034047957,-53.21558494396736,-71.00658085080761,-83.45456570833994,-112.57115922448571,-137.9442181215673,-153.31149675808686,-180.1251681819381,-182.06435384841674,-102.82322101660593,151.8954799950356,683.8147371542091,1130.6068065314157,813.9482539992343,-55.42752116983959,-473.6872154722347,-283.6675470106712,-172.13720112824717,-255.21633669332996,-211.20351181018208,-118.27217511490464,-116.54553509445739,-95.13324760989377,-44.052552622393215,-36.746005397514494,-32.37230203610688,-10.69281941012522,-5.738924193032172,-5.154176077754347,3.2182327332398515,3.85361462511937,-3.271840197927336,-10.939710108350972,-11.972072643201596,-2.220833517880621,1.8791569243163266,-5.495715724609205,-1.8650278378221385,15.642060045887252,29.696886225781206,44.365840693816025,59.108466551040244,48.65571387369659,18.958458403653147,11.06413240240467,28.702080354928608,36.863850177066205,22.791628801231923,-0.6503124914814116,-24.12215002823968,-42.15973485370529,-52.00277101782487,-56.042347905397186,-53.84270755029838,-45.74746857476371,-37.739759349907544,-29.632870286984488,-16.988247029335263,-5.271579971321472,-1.8559345667165204,-2.0651591115017442,2.838023865536135,10.932750829822197,12.474638336702325,6.227759063581102,1.756109638463892,2.8283803908195804,2.226377974307299,-3.302090871315821,-5.47341635964397,0.4827941734842778,3.5329667281686756,-5.56342012414683,-17.012718843840283,-19.314602387301925,-15.500841612685214,-11.869946439925878,-9.575492291768267,-9.731923388152214,-13.83368080317884,-16.044755605252817,-7.02948250328447,4.98539318621512,2.771328169360146,-4.15150188779608,2.3473756876903646,10.18913665247849,4.019787218670345,-7.056049338605565,-12.14639188433626,-11.816429579171299,-13.379811431348838,-23.0681147002554,-37.76115776153061,-55.8424493691112,-76.94142487681151,-95.14673936980861,-115.79741181218944,-140.0785111783763,-156.7478684330552,-175.76875417779894,-191.6139840240636,-152.71933740076793,30.551052744248892,489.08927065948274,1058.492109040367,1063.1607578983937,268.8761958571956,-443.7973924158832,-417.67222927635174,-181.8170758337617,-217.85386190168043,-251.3947313264009,-150.34785521880178,-109.60907883619501,-106.81925580433258,-56.55526406935866,-22.70975816154712,-20.75780612350397,-24.039688638459605,-35.259010289715214,-29.345259395798255,-9.038809998800104,-9.091991695318455,-15.205563808923117,-16.474256562801433,-26.494989425099448,-25.12635216639535,-5.908233480654594,-1.4832431306421512,-10.879097810275988,-4.959085555207269,14.090509594850857,26.396057953857408,33.292140488441405,45.17833737030209,51.69507866110351,43.19881058079743,38.60919670602158,45.1261546747879,40.398699012621826,22.885834713553812,5.905429040678529,-21.97389426466837,-59.35196237104516,-72.93401299247557,-59.54610595700093,-51.151803703952204,-50.39614468444772,-38.450050677019,-25.054763208084218,-21.940799927115776,-11.946783794062787,7.552770768351358,12.540568954354676,1.2174373578635524,-3.297888675147714,6.2788767487489725,12.046233515635887,1.716713471614895,-6.604956886318311,1.1223544269829162,3.40705721935365,-7.204694351137835,-7.147839597517422,0.8879464033478328,-2.3755271439928833,-10.303377296338386,-14.591179785558559,-16.08311099706853,-11.977371116005546,-11.569409875349258,-20.61213164440367,-19.300300403204368,-2.1954503765445033,7.03483462182013,0.39689205071545075,-5.905242219554907,-4.737543536825832,-4.6755789648533295,-6.966030132156796,-2.6225795202108486,1.8785076514321517,-8.161713891365576,-23.32293212417182,-33.48929538720472,-50.61616171167964,-68.69187830304055,-77.14031981286232,-104.76564608880808,-156.414979724478,-189.88539200231233,-202.4853219866552,-207.066370910215,-163.081118115239,18.13937391812857,462.9304463881823,1041.272600629551,1119.3553302999076,379.91006013521053,-400.844159771897,-465.5528097388541,-214.99697825590965,-212.74975659324468,-258.86024023556666,-157.40822253893654,-107.21660965082438,-126.53446580010142,-80.72693770981724,-31.459382072819025,-34.17057824694819,-18.995869332745954,8.620626397340764,-0.09884912274502611,-14.618239572455373,-7.922776678501492,-2.9627203140959217,-7.718726151060839,-12.776211262545825,-16.211434478735107,-15.772294057470472,-12.531121437712546,-6.191273982787173,9.420355513863516,23.61791706740245,27.300571449616818,38.428516477158325,55.160671349716644,51.991140168106774,42.9483545030571,56.25759450726548,72.94408156938515,62.1280868111377,28.57992135809826,-6.3634148415120535,-33.67054015883525,-54.144083689384146,-64.66605401162079,-64.76883590698978,-61.07727848725861,-51.595960756413845,-37.991726229607465,-33.025590563177204,-24.7507669896318,0.19453402204015902,11.963496166111467,-0.18509784176074362,-0.9237990994461187,10.822271743452106,10.19880607050326,7.687157955845077,11.718375951377677,9.206325581152335,5.053752793847613,6.635845948278698,6.234956110990841,5.085296039001207,7.446456376992853,7.0296064334235675,-3.0351484915791946,-20.569405383511274,-27.367237787882374,-15.278430601417053,-9.934925286786044,-18.831543072640038,-13.804616585224348,2.3763105857791817,3.1504652050169284,-4.122600541782575,-2.9558518183514906,-0.007543391988825476,-4.329039834420218,-13.031209308235002,-15.625721461052947,-12.78420037881726,-17.558346441709922,-25.00419229133191,-31.811549040570604,-53.81949736173661,-73.86043791829246,-77.59359065952083,-106.70592454791995,-151.67367273460417,-159.38111255459484,-168.2605137612142,-198.81907230094745,-162.38636341596035,30.672110502045115,482.88503641155637,1063.2055104978742,1113.8927411901855,336.4123191352629,-415.5860764945576,-422.64868342099066,-184.22186207299296,-217.39047259205876,-253.0526267133564,-142.17291055122058,-101.47945221018915,-117.88493730965376,-79.64555983705313,-50.68653131278618,-48.80601963274548,-23.99623793384202,-1.1369777510342054,-0.5848117521909799,-3.5562488809767636,-7.840277160052757,-10.629219105970083,-10.2050305801333,-13.35231088262972,-12.614542241394554,-8.848131517777103,-10.898594799539225,-3.5990102773460517,15.577056111663131,24.074919891765166,27.39457927021142,39.83487449522998,45.64023604728287,41.624035384100445,46.427330767834654,56.01125290746515,55.30516161131335,42.63759805191982,18.713491247444612,-7.833265635700849,-23.089152009429895,-31.038014117632382,-40.13047880737474,-47.94340896007235,-52.62291715015604,-46.007954479227536,-21.483196282750058,-0.9906069119549734,-3.8088590898363286,-15.28453465242966,-22.746979952030742,-24.72605783758246,-11.800213233317024,4.9957765661711555,0.8032398985301263,-8.5582874587781,0.315191518380912,5.9451389555804806,-3.3785714979517145,-3.6508031837435624,2.5233042185346424,-4.331752056125222,-11.33071085135558,-8.485979968480507,-6.316328798340653,-1.0358361313446895,4.89697472804326,-4.319261441427042,-11.256215797206053,1.7350552772519006,7.303913207388517,-2.61071857840885,0.06262103494822036,8.70470213987161,3.1019005989765454,-1.994483446130861,-2.8907180429173494,-13.54141759606324,-21.014489860740078,-20.21847746468387,-28.99317881638843,-34.86634703524136,-28.903197846963714,-43.03175013509866,-71.2288282714714,-81.50662935316662,-101.07050545224479,-138.00178905726722,-150.30693890155823,-163.9578147885147,-201.33138159191424,-185.18933515540343,-42.81705174734469,327.63422145240696,918.6027429234626,1179.2957816139879,588.1265609797895,-265.4060834627444,-466.3205785215586,-228.92939677109757,-197.98607461661453,-269.3907056942695,-187.23172390501793,-117.20940096522014,-125.16358875857726,-87.39350234517298,-38.6199741113127,-34.00874751557153,-22.786409646543596,-4.549429372104434,-4.33251369180681,-1.1396987889637487,4.531216192131879,0.14543622755392605,-2.051900763040944,-4.134584983612321,-11.718945386281492,-6.076931784651654,11.087856596727347,8.622967522478522,-12.07425849609946,-13.879124748805694,10.045608039544383,29.099925525013507,32.732615294072936,37.035386544069766,44.80206155724132,48.12293855323442,48.19506656769794,43.43353899711815,27.312999769928275,3.5522659874830356,-19.95615295335361,-40.93083445353828,-55.5607226342642,-56.2987347956074,-43.133946840087525,-30.541505318952723,-29.576714279693284,-27.185640111804563,-11.504889490395744,0.5553695487968717,-1.4162248033961262,-0.30239502981451416,5.8354834752272655,0.8116108897962722,-6.698451388782052,-1.0427762494256232,3.943058963756778,-3.46040785598462,-7.931098876444587,-3.163060015017198,-2.8449543588709094,-6.485793980166694,-3.170613827376517,-0.4469195080521864,-7.082965337812979,-11.711797850380588,-7.248442998995149,-2.5660072651701142,-1.7323840700629383,-2.253278991104736,-3.5390562839486144,-3.5287614804793748,-2.475299946827972,-2.7970433238086443,-1.798799110940653,-1.2534917658272704,-6.545595521446295,-9.927118896715118,-5.823299765756094,-5.534887961945447,-12.740266490271654,-19.458285864975792,-23.53958034923155,-24.286634209807048,-29.331609990056617,-50.40925245951222,-72.13016781150425,-86.01461605699826,-114.64079854257182,-145.02165768461555,-155.18037010200578,-173.3255012683987,-187.87182704571657,-134.5969624961512,70.91446862233212,554.2661856223779,1102.0054703000267,1014.0420215532233,178.38565883101722,-453.0055542068478,-364.8493430578228,-166.39795568294568,-230.7786775601263,-241.1231894770478,-130.76872332310447,-101.97549774209364,-104.32233043170474,-55.57730596785821,-22.549820618378448,-19.570433551095505,-21.66413034346153,-27.999869597475577,-19.783457631812144,-7.784120458755076,-16.966086833549404,-21.13749871919078,-9.788495007547581,-11.295131614407104,-22.49828926363265,-22.032240408518877,-12.664582027530376,-5.30236831786211,0.6446459295652653,14.214766876002688,32.12009707928796,37.99271857701963,35.66491815080707,41.942442520804796,52.32674359816135,55.87354052627539,53.3272786200687,42.61804408038287,19.519972156260273,-10.63945142817653,-35.4384366127363,-45.81826347706751,-48.204891030547145,-53.73911123922824,-54.198938074246435,-39.2093766547686,-23.012164758440004,-18.828073803371968,-15.599262258876124,-5.981560003770971,-0.7988751428780745,-2.5350220403848738,-0.7847573168787605,3.76477220673679,2.7457213389401005,-0.6730458272152262,-1.0876060410218429,-1.9338883629373775,-3.606375613128657,-3.092705956610418,-4.167969834573981,-8.034779269269862,-7.425353506790902,-2.1823692523075344,-3.0998853220865286,-12.587561886713738,-16.851091602685138,-8.023271768512624,1.0644786980162024,-1.3751731248438617,-8.950985471960307,-9.914797110079558,-1.1435708440256782,4.457417832423046,-5.877163958244999,-12.20014955842599,4.33827076337921,16.636778230418543,10.774244112670704,8.947479725468941,-1.3003404331403985,-32.65082591358896,-42.97554941253837,-26.001279579032726,-27.28312936330866,-45.985461571007065,-58.910306025883735,-70.36025895648268,-82.72627467858074,-106.60884483838619,-144.00523268415503,-163.02641410226883,-171.9638263270048,-190.0285493981577,-157.21799842824916,12.669993916089567,414.3731797157909,961.8088442377847,1084.8411808033534,402.7490885137703,-381.2735493609199,-456.8390977856717,-186.8742181623636,-183.97412443504467,-257.3168074187353,-168.7628098990617,-107.073785996694,-112.91271161374365,-71.92146958667435,-34.037270406261,-29.115179460706585,-8.783178003302318,1.5810759050451004,-6.395198967693773,1.1062060681900405,-0.764583446416804,-20.90483538570117,-19.310234935084686,-5.557787372580378,-9.786030311831166,-18.483817607034016,-17.832910009286884,-11.661648999340322,-0.20915800804422036,12.852241662974935,22.65735221676747,28.845666522578725,30.724364919939042,35.12215667629962,49.02820716027263,62.605749003218904,63.30936150201465,49.80643272913491,26.525373652919324,2.928848291585429,-13.83290906470993,-29.667091674912044,-49.676093244947666,-63.458458993097835,-61.43811199598713,-51.350111197698254,-39.921338340618384,-20.75309014132679,-1.6772947040189692,-0.6270709737270828,-3.0182011144034853,10.063806386092688,17.73180083249161,13.202429140934782,19.937517781454353,20.01475488947269,-11.156099751948595,-32.606608194029995,-17.789517404696454,-7.258651865029634,-16.51260367448505,-17.60284131259533,-11.272805634146177,-13.646867555116117,-15.25887231651824,-9.401314348805219,-8.730553866600417,-14.946399653703093,-13.876961107240831,-5.07830502801048,-3.404388561509844,-10.424616865055093,-13.524310194128546,-8.297431873211252,-1.4587528173678592,-0.7619456374400713,-4.049412816224713,-0.23808783257312527,4.911143775424907,-5.581085114624159,-18.91719139975539,-14.854593961004792,-10.596467654401748,-24.450145779888622,-44.52347419392761,-62.295474388771005,-83.6517307633834,-110.73505073293346,-133.8778847697,-144.11479823381515,-161.17361760990107,-192.4579787949102,-179.06737573453836,-38.22785349627395,329.1258346757661,887.1404706265708,1132.318411620795,574.9765473310897,-270.3101711689501,-494.1975061044107,-235.02965790571713,-168.4583090285946,-248.99070594451484,-180.70676776285825,-108.05724785632589,-123.81341672776588,-89.6277165391077,-30.098372308997483,-26.049988553418416,-21.402056272898342,1.0293295045186337,1.0022700614788782,-4.072635775168067,2.504267082714751,3.2227455654115182,-3.585804780649891,-12.866398605326047,-22.39884180819581,-20.66557035952003,-9.752126129385,-6.043760995331311,-5.590599081887667,6.33978697264971,24.894056716101726,40.329640744199594,52.45677713808712,55.70269633477932,49.16410571248273,49.394911230470996,60.68957996836751,65.59326183213852,51.23096649792024,13.82411235775465,-35.32543229546396,-63.805262431449435,-62.315019478725155,-60.46045010151211,-67.09540051006292,-60.63562476899306,-42.771145443154325,-31.70341923779344,-22.288495954243892,-5.0585220766722525,7.134628842058648,4.307318339184581,1.1164523119728305,9.632248810952674,15.685242078776461,7.138622813397296,-1.3838469150613015,1.6702191435666656,4.677220752894834,1.332661688720183,-0.8629360914362625,-3.251833503195142,-10.365446232113467,-14.526033783689913,-10.667313902958114,-6.928112034953957,-7.960389046334759,-7.14467937401662,-4.942710864976192,-11.976506291748787,-21.41950234500163,-14.729548360573972,-1.286296766534699,-1.6578203870842891,-8.144825281816123,-8.807828177250565,-7.416934443802637,-2.6194341799132523,5.063143318831049,5.7137708126976605,-0.6692370655967217,-9.37318924668006,-16.61061161132487,-12.865866264033777,-5.4471118549622375,-17.466224449414604,-45.8606082849611,-69.08624590943413,-89.06242522286857,-116.29387224688438,-135.80850982103107,-143.05240546324885,-167.38746087267492,-195.5002688368374,-162.61579062980687,-2.920633984290646,400.25505730816735,978.4083986947359,1135.2912912836182,462.14855971241144,-347.9284277641053,-464.9928345244381,-211.19366353879533,-196.7740916876881,-258.8728048217717,-162.37426874545855,-96.85716433826138,-110.17005409260766,-71.75196941233055,-34.206190119262416,-50.3052420649548,-43.535385222936036,-13.65964555742098,-11.80320709661276,-16.06450692202202,-7.043292856530826,-5.6198686753645966,-12.955425838257415,-15.412486858674438,-14.037207152071218,-15.557524497491007,-17.785059006705602,-11.361569048720526,3.2288170246951196,17.04382342741182,30.71869623339247,42.278381038457866,42.81262779800201,42.215450102989955,51.81796676980618,57.39668165944606,50.79598496128685,42.90638092254197,34.36850758800112,17.121434785113816,-9.927642745420325,-38.92840591687788,-54.62605136429037,-54.426099741074964,-51.72659901541547,-47.0378055281139,-35.18105723317389,-24.45189804163485,-16.845933708767816,-8.390690523357016,-4.201869478551815,-0.8759040497741992,8.531681090190778,13.313017667294407,8.760134754380763,6.319539990661262,6.852276697902997,4.928700799547239,1.7672826895984306,-3.591161813192141,-7.666188362854644,-4.336888834121055,-3.0769468824323667,-8.540874062098862,-7.260312947529378,-3.063482428782267,-11.475330840353916,-20.265913427642673,-13.923059623039208,-3.6004603554757253,1.3312201502262795,1.3419102805284737,-7.435635476967157,-14.619409748902825,-5.112018230816872,4.981615532124202,-0.48667222073996896,-5.252408359094293,-3.266913697740076,-8.013208634377229,-11.925151050324011,-4.0281017494400935,1.2211906393690821,-11.001304072557632,-39.84510797938231,-74.29097918988413,-104.12246404420534,-132.7062879393925,-156.56988691363017,-169.72414962542788,-191.25384807663104,-211.47286311037232,-174.7790354630736,1.7137084944106107,458.7800457681649,1066.412942471731,1143.9217317510331,376.98626587604895,-395.1592330672701,-431.23770042573153,-194.11260169308872,-220.2843626142121,-268.27319077426455,-164.96373584498102,-112.70707143659158,-118.76507493802896,-74.17462317487423,-36.37332608968451,-33.76891616168261,-17.916666514654253,-1.7580932019472506,-1.1126032475905774,1.8359496983798564,1.6769407159368015,-8.109302895014459,-15.343645090665277,-14.378911128728573,-8.695527428258382,-5.866879273271691,-6.977243741442909,-1.7150944304592197,9.030626807490693,16.421442075619503,25.404172849690774,37.73443644515233,43.935055665029964,45.334718463097566,48.16975057089435,50.9827759579858,52.98095793805465,48.10790309919806,27.467043933413066,-0.7664402768729968,-26.141423706038708,-46.520082275804604,-50.22173821976792,-41.019627858771784,-46.48869079920643,-57.08066145596074,-42.372043312476194,-21.504037863176727,-17.9885340838384,-13.310064617544466,-3.8643617278987428,-3.681676900096317,-0.943618298260958,10.430510433819867,14.502753036694145,10.086472651913624,6.774382479260353,6.852836190455169,9.512934267193678,6.855377127106559,-5.426827539711201,-13.309999469180703,-9.076724700634603,-5.912996632270929,-10.345678850509099,-11.389654484476814,-6.114127147677436,-6.934285631798414,-12.356220425345118,-6.793286444265643,2.9433738430551397,3.47516075679761,6.733684810383428,11.26078913151925,-4.405302970852713,-25.52204557014119,-24.80218031418736,-14.034099860538205,-10.332789337977133,-13.284380210881896,-22.106226850493137,-27.51714109147961,-21.960171158968627,-20.82746387020338,-36.280837041931846,-57.022796424218335,-73.70603220826217,-96.77962079890185,-128.50003037000107,-150.5280455305257,-167.2880143099725,-190.09814396655648,-184.53368510980593,-83.94341926401924,249.15402578712755,851.685014680569,1205.2969679106532,699.5028116105638,-199.3141431269496,-493.02692956103954,-255.51322969130575,-187.8126328273093,-267.0494993818851,-193.27242298858147,-113.01854417046266,-123.81410371010932,-91.47559402778674,-36.48617611439923,-27.290821584153704,-18.90399216360877,-9.316327437990825,-16.193934577372787,-9.002733172793008,1.8433880234541107,-6.334239939702542,-11.279621835017874,-9.998520037909543,-15.762588423458787,-13.63501847556098,-1.6029556718805917,0.2532564379086306,-1.908665926835053,10.193353637937694,27.265552412946306,33.87164005536088,36.185947881587644,41.36066480173599,43.58034218818366,43.759943587156684,48.554924628273874,49.75839138201811,35.680701663083774,11.160457733917212,-14.368293294864008,-37.95529645517214,-53.398969481226615,-54.68014687867271,-48.12697375641629,-40.65560385045488,-30.326013122131357,-20.36396798274539,-13.448962376375047,1.0793586641354125,17.323751457365013,8.56294984569431,-15.92462978727923,-19.610865357696937,-8.827367018489458,-8.618480902934474,-7.047554663867416,1.7553170414990902,-2.127900662382615,-8.52150164908413,1.3350962173932945,5.455872166790833,-6.433252961237358,-9.800118249070518,-5.506540981511373,-10.152133965482728,-13.399452804406787,-9.636165597234791,-11.102953639403452,-14.916488018635484,-13.089278589688266,-11.17258114767252,-10.930703239802398,-6.7022256500039745,0.45015894378391863,2.3616418893185838,-3.070046812886318,-2.6706422506709124,8.195730926777816,5.821775295277021,-14.90957653891768,-20.029578035875744,-8.28543903552217,-16.04045125687284,-37.615858154779275,-47.826711266913314,-59.5101398888348,-81.55381620831204,-103.63051063875713,-125.5536858177321,-143.8159933160033,-161.39956485384056,-183.0188582670073,-175.60045023330463,-74.50080300676422,254.25854615524872,836.3480507984783,1156.3611735790623,640.2860476649257,-227.42816761673367,-486.6404614279134,-238.08064879625303,-168.53144938807975,-253.6194465068922,-193.22614108591122,-113.69096080975132,-119.9581780827141,-94.73870904910382,-43.399105273992646,-33.554557262460634,-29.12625946863038,-7.798262660033824,3.677611262403758,2.322874155857445,0.5533387978014801,-0.8607122658526372,-6.053270518152935,-10.425170517811711,-8.533480644227287,-3.790393534289983,4.93646160861644,9.59782647008782,-7.181633775486851,-21.42898625461619,-2.744778042965543,18.861085432674145,21.343140684451637,31.998996265003605,48.82372753240585,46.95841247442986,42.575957976182494,50.672471192985846,45.48816273367241,14.734616797924684,-15.418256427825973,-31.879283758690917,-51.58902801567287,-69.78719385301936,-60.943200258544465,-41.41278557790902,-41.01814241118505,-38.01283590607713,-14.58326387924919,0.5696595221681768,-0.054756993528453535,3.011975247469408,6.246269335522268,6.808630531499359,10.022460653517907,2.232382917238681,-13.228959644820492,-11.35283871800922,-0.36262366727053497,-0.30502532644430147,-5.428774899124843,-11.226648436510498,-13.23133132818911,-2.6635939582935,1.973118146966513,-12.838244516964068,-21.193574034424607,-14.289418564584231,-15.017232888872641,-22.98463624496858,-20.403924563079695,-10.185051457866223,-6.127255537137998,-7.874272896580258,-3.893269647612641,3.2955722588456666,-0.27905867193091183,-8.425214554167333,-6.742060852976888,-2.111160326064983,-5.222698168550156,-14.847282442031158,-24.047507030166578,-24.975768317842675,-27.926333053298507,-48.04978320324059,-67.14010901342479,-78.70104627450922,-114.32868089804074,-155.2649629737501,-158.01892194056316,-164.9952015570522,-198.213009670194,-165.11250267505977,26.66650359027139,453.59113519365985,1012.8067288351431,1122.7905233042306,407.3066677131204,-402.23746678996673,-475.664078061573,-192.58671999776095,-180.66111337796042,-245.07054245933648,-164.59612039665262,-134.11553977982805,-151.12375751908806,-90.3177086997023,-44.50019242399151,-44.561947320831294,-13.19792506987153,6.843841428042424,-11.964747913980634,-7.961589931052636,6.893368578528516,-6.898593580492808,-17.438746118817523,-7.294943679516777,-4.766062489650505,-13.407676582018915,-14.08651675350888,-7.354156284772315,-2.788862605264698,3.7897175225358284,18.578931971556223,36.90822015897183,49.739336570859145,52.53482951630263,51.28217567603214,52.79820929397927,52.3522645435753,48.20490202000569,39.80962794598639,13.192536683077723,-26.05582174507436,-49.02013088323696,-56.14700226792156,-61.5712965610538,-57.167096266416635,-46.80225672080263,-42.6047924102221,-32.24400361035104,-15.371439664558963,-10.322823954402427,-8.46545826285546,2.793901641220815,7.494020697114338,0.7882250063670941,3.0573825168730924,15.47188020180685,14.285164204700768,-1.849518060431949,-5.908812378511348,4.538140740767749,4.33916370629811,-4.160904553210242,-2.1085115078939527,-0.4382323035290625,-10.80438560700877,-17.381228798488465,-11.566924752525532,-3.357117309046423,-3.5165857314238487,-16.21136476440948,-25.159248979254482,-12.437187260342647,2.7914532051786303,0.4778395593597722,-1.8128402884379788,5.222929544070038,6.939228175127713,5.178648587135022,8.734587319258837,6.9353584121605465,-11.253041405645419,-36.00001271756258,-47.23056256385,-47.38797376580354,-59.64118078483419,-79.1831029972937,-89.77242759029451,-112.18328683283247,-148.65409408709166,-162.02863050446902,-160.1096704645665,-170.50697786796493,-152.0112012836948,16.98170593506495,475.72534003768374,1044.437489200737,1071.2336536126877,315.5963764337956,-411.8827902876711,-434.60126212607577,-195.4953276838188,-205.05956749519402,-248.59873852966643,-159.81855972785894,-116.06349066822483,-118.7433324254928,-71.79991880091667,-35.686703308804326,-29.25415060546073,-7.508440192988495,1.6513044614707297,-6.879142401472652,1.2797441061312753,4.000105672276668,-11.181880575580202,-11.585317273423293,-4.271232725159756,-13.432952414728955,-19.335889722601337,-8.563192192208424,-1.0266933682028183,0.6411071643286097,10.995212319480071,25.407574121472848,36.161509034307485,46.32077463166801,50.387872366170946,48.58944117938985,54.77101983746562,58.74695922485889,43.67965357214905,26.909835890253223,14.721441925780784,-13.510093418269701,-45.10765873550866,-55.15266422622804,-56.000109945942825,-55.987747340403885,-45.51616753364964,-33.122435015172954,-26.38496068276679,-16.46708880736267,-2.7563399928762458,7.881726317391097,9.948049627922499,5.569908098502096,9.76379051006854,20.393827620073246,20.114710496962672,18.98347996679652,21.997479644142203,4.1401745332582855,-22.302188573585205,-20.61388790959844,-7.962960584987149,-10.27081358314506,-10.792127515055858,-7.731916664231772,-17.674324404481215,-23.850005371198726,-11.838696212900643,-5.243765841121576,-14.3951470879801,-17.954495073041628,-11.012842080900501,-9.232065872164405,-11.499676980479244,-6.827686066053122,-0.24128525170215553,-0.5556498344219705,-6.3659170779953875,-13.006878779813306,-13.774374087450447,-8.196370812055719,-8.886200734223149,-17.98115867630166,-25.999470147084782,-37.58543942434612,-55.41689125128377,-74.75002399066337,-106.49991639940829,-140.97058647310828,-150.1065863573989,-159.0491427071921,-187.8549599949684,-180.0245512243032,-48.789245352308086,337.65726553172,933.7161139684313,1152.808967737241,531.3594096905512,-294.15249355216827,-458.0318321537267,-217.09604326045996,-191.0609191112828,-257.8315604496474,-174.71687716406007,-109.6102237608045,-122.21352787219166,-88.57723344398026,-40.44200763484875,-33.88350762420479,-22.788218115512983,-2.32293229952316,2.214509786596338,1.816316699440371,-0.5162811224233366,-6.1606233857453425,-6.508398351076849,-10.247825286446494,-19.933709394369338,-18.157814361138293,-9.090647669501513,-7.953482337201811,-4.010710579556927,11.45460275687125,26.56422597926572,37.70240405691432,46.118521263112264,47.291313602883804,50.9036648020945,65.48772878246605,74.74665250595525,65.71958752311639,43.12763739662247,15.033397126046173,-9.106686899887787,-33.712655348336305,-70.11401367262508,-93.27517805446163,-76.02172147837378,-49.38611593584129,-45.747044111365724,-44.863092706450956,-29.78372619053508,-12.934425066460637,-0.2568928938993338,6.476654270283255,1.7694954583632079,-4.659803018869409,-0.08143506174588389,8.240106593333728,9.0673855943402,5.6758372498714476,4.437195306859044,2.6615186692057566,-1.3175374650266107,-1.6094786657442004,-0.35789464267249826,-6.744826240368157,-13.93375750951347,-9.481727765070536,-1.8985528030605465,-5.034590839871441,-12.60428728466096,-11.396982137824155,-5.934292255547891,-7.380568942058165,-6.29366054671371,5.2378141515458765,5.616472938487398,-9.46094234717436,-11.452070845005402,-5.540434410831267,-15.365337523059289,-21.827550856366166,-13.036899958159818,-12.239392784934875,-18.681332944900614,-24.87070757229102,-43.64005837314359,-62.62516768772977,-74.9026729052539,-105.97951975562108,-136.8808600517832,-144.73854336535197,-168.91103990631177,-193.0281392440796,-151.01272469747138,-1.021843063666438,395.64690887104666,977.0801428999887,1084.3212119186803,362.3560637969562,