ECG_baseline.csv,0.7153846153846153,0.723076923076923,0.7307692307692308,0.7000000000000002,0.7076923076923078,0.707692307692307,0.7000000000000002,0.6846153846153848,0.7000000000000002,0.6999999999999993,0.6923076923076934,0.6923076923076916,0.684615384615384,0.6846153846153857,0.6999999999999993,0.6999999999999993,0.7076923076923087,0.707692307692307,0.6923076923076916,0.6846153846153857,0.6769230769230763,0.6692307692307686,0.6692307692307704,0.6692307692307686,0.6615384615384627,0.6692307692307686,0.6692307692307686,0.6692307692307686,0.6692307692307686,0.6538461538461533,0.6461538461538474,0.638461538461538,0.6461538461538474,0.6461538461538474,0.6615384615384592,0.6615384615384627,0.6538461538461533,0.6615384615384627,0.6769230769230745,0.684615384615384,0.6769230769230781,0.6999999999999993,0.7153846153846182,0.7230769230769205,0.7076923076923087,0.7230769230769241,0.684615384615384,0.7076923076923052,0.7000000000000028,0.6923076923076934,0.6923076923076934,0.6923076923076863,0.6923076923076934,0.684615384615384,0.7076923076923123,0.7153846153846146,0.7153846153846146,0.7384615384615358,0.7461538461538453,0.7230769230769241,0.7384615384615429,0.7307692307692264,0.7153846153846146,0.7153846153846146,0.7153846153846146,0.7230769230769241,0.7153846153846146,0.7307692307692335,0.7461538461538453,0.7615384615384642,0.7461538461538453,0.7384615384615358,0.7307692307692335,0.7076923076923052,0.6923076923076934,0.684615384615384,0.6923076923076934,0.6769230769230745,0.684615384615384,0.684615384615384,0.6769230769230816,0.6769230769230745,0.6769230769230745,0.7000000000000028,0.7153846153846146,0.7076923076923123,0.6999999999999957,0.7000000000000028,0.7076923076923052,0.7000000000000028,0.6846153846153769,0.684615384615384,0.684615384615384,0.6846153846153982,0.6769230769230745,0.6769230769230745,0.6769230769230745,0.6923076923076934,0.684615384615384,0.6769230769230745,0.6769230769230745,0.7000000000000028,0.7000000000000028,0.7076923076923123,0.6999999999999886,0.684615384615384,0.6923076923076934,0.684615384615384,0.6615384615384698,0.684615384615384,0.6769230769230745,0.6692307692307651,0.684615384615384,0.6692307692307793,0.6692307692307651,0.6615384615384556,0.6692307692307793,0.6538461538461462,0.6538461538461604,0.6538461538461462,0.6538461538461604,0.6538461538461462,0.646153846153851,0.6384615384615415,0.6461538461538368,0.6615384615384698,0.684615384615384,0.684615384615384,0.723076923076917,0.7692307692307736,0.7615384615384642,0.7384615384615358,0.723076923076917,0.7153846153846217,0.6923076923076934,0.684615384615384,0.6615384615384556,0.646153846153851,0.6384615384615415,0.6307692307692321,0.6153846153846132,0.6230769230769226,0.6153846153846132,0.6230769230769226,0.6153846153846132,0.6307692307692321,0.6384615384615415,0.6538461538461462,0.684615384615384,0.7000000000000028,0.7230769230769312,0.7307692307692264,0.7461538461538453,0.7461538461538453,0.7307692307692264,0.7076923076923123,0.6692307692307651,0.6538461538461604,0.646153846153851,0.6461538461538368,0.6384615384615415,0.6384615384615415,0.6461538461538368,0.6692307692307793,0.723076923076917,0.7076923076923123,0.7461538461538453,0.7538461538461547,0.7615384615384642,0.7692307692307594,0.8076923076923066,0.7923076923077019,0.7923076923076877,0.776923076923083,0.7846153846153783,0.7615384615384642,0.7538461538461547,0.7461538461538453,0.7307692307692264,0.7307692307692264,0.7230769230769312,0.7461538461538453,0.7538461538461547,0.7384615384615358,0.7615384615384642,0.7846153846153925,0.7846153846153641,0.7615384615384642,0.7615384615384642,0.7461538461538453,0.7307692307692264,0.7153846153846359,0.723076923076917,0.7461538461538453,0.7384615384615358,0.7692307692307736,0.776923076923083,0.7692307692307452,0.7538461538461547,0.7538461538461547,0.7230769230769454,0.6999999999999886,0.6846153846153982,0.6923076923076792,0.6923076923076792,0.700000000000017,0.7307692307692264,0.7692307692307736,0.7538461538461547,0.7307692307692264,0.7307692307692264,0.7307692307692264,0.7384615384615358,0.7384615384615358,0.7538461538461547,0.7538461538461547,0.7538461538461547,0.7538461538461547,0.7692307692307736,0.7923076923077019,0.7692307692307736,0.7846153846153641,0.7846153846153925,0.7692307692307736,0.7461538461538453,0.723076923076917,0.7384615384615358,0.7461538461538453,0.7461538461538453,0.7615384615384642,0.7846153846153925,0.7923076923077019,0.7692307692307452,0.7615384615384642,0.7538461538461547,0.7307692307692548,0.723076923076917,0.723076923076917,0.7307692307692264,0.7384615384615358,0.723076923076917,0.7384615384615643,0.7307692307692264,0.7384615384615358,0.723076923076917,0.723076923076917,0.7153846153846075,0.700000000000017,0.6999999999999886,0.700000000000017,0.6692307692307509,0.6846153846153982,0.6923076923076792,0.6692307692307793,0.6846153846153697,0.7076923076923265,0.723076923076917,0.7153846153846075,0.7307692307692264,0.7384615384615643,0.7461538461538453,0.723076923076917,0.7076923076922981,0.6999999999999886,0.6923076923077076,0.6999999999999886,0.7076923076923265,0.6923076923076792,0.7076923076922981,0.7153846153846359,0.7384615384615358,0.723076923076917,0.7384615384615358,0.7538461538461547,0.7538461538461547,0.7153846153846075,0.6769230769230887,0.7076923076922981,0.6846153846153982,0.7153846153846075,0.7153846153846075,0.7153846153846359,0.723076923076917,0.7153846153846075,0.723076923076917,0.7153846153846359,0.7076923076922981,0.7076923076922981,0.7076923076923265,0.7076923076922981,0.7307692307692264,0.7384615384615358,0.723076923076917,0.7153846153846359,0.7076923076922981,0.7153846153846075,0.7153846153846359,0.7076923076922981,0.7076923076922981,0.7153846153846359,0.7153846153846075,0.6999999999999886,0.6846153846153982,0.6846153846153697,0.6923076923077076,0.7153846153846075,0.6999999999999886,0.7076923076923265,0.6923076923076792,0.6846153846153982,0.6769230769230603,0.6615384615384698,0.6692307692307793,0.6615384615384414,0.6692307692307793,0.6692307692307793,0.6769230769230603,0.6923076923077076,0.6923076923076792,0.6923076923077076,0.6923076923076792,0.6846153846153982,0.6846153846153697,0.6769230769230887,0.6923076923076792,0.6923076923077076,0.7307692307692264,0.7076923076922981,0.723076923076917,0.700000000000017,0.6999999999999886,0.6769230769230887,0.6615384615384414,0.6538461538461604,0.6384615384615415,0.646153846153851,0.646153846153851,0.6615384615384414,0.646153846153851,0.646153846153851,0.6384615384615415,0.6230769230769226
ECG_olfative.csv,0.6153846153846154,0.6230769230769231,0.6230769230769231,0.6230769230769231,0.6153846153846154,0.6000000000000001,0.6153846153846159,0.615384615384615,0.6230769230769235,0.615384615384615,0.6000000000000005,0.6076923076923073,0.6000000000000005,0.5999999999999996,0.6076923076923073,0.6230769230769226,0.6307692307692321,0.6307692307692303,0.661538461538461,0.6692307692307704,0.661538461538461,0.6538461538461533,0.6461538461538474,0.6461538461538456,0.6461538461538456,0.6384615384615397,0.6461538461538439,0.6769230769230781,0.7384615384615394,0.7384615384615394,0.7461538461538453,0.7538461538461547,0.7384615384615358,0.7538461538461547,0.73076923076923,0.7230769230769241,0.7153846153846146,0.7230769230769241,0.7461538461538453,0.7307692307692335,0.73076923076923,0.7153846153846146,0.7615384615384606,0.7923076923076948,0.7692307692307665,0.7461538461538488,0.73076923076923,0.7153846153846182,0.684615384615384,0.6692307692307651,0.6692307692307722,0.6769230769230745,0.684615384615384,0.684615384615384,0.7076923076923123,0.7230769230769241,0.7076923076923052,0.7076923076923052,0.7076923076923123,0.7153846153846146,0.7384615384615358,0.7153846153846146,0.7307692307692335,0.7153846153846146,0.7153846153846146,0.7230769230769241,0.7230769230769241,0.7153846153846146,0.7153846153846146,0.7153846153846146,0.7000000000000028,0.6999999999999957,0.6923076923076934,0.6923076923076934,0.6923076923076934,0.6923076923076934,0.6769230769230745,0.6692307692307722,0.6538461538461533,0.6538461538461533,0.6538461538461533,0.6692307692307722,0.6615384615384556,0.6692307692307722,0.6538461538461533,0.6692307692307722,0.6538461538461533,0.6461538461538439,0.6307692307692321,0.6230769230769226,0.6230769230769226,0.6230769230769226,0.6307692307692321,0.6307692307692321,0.6384615384615415,0.6384615384615273,0.6615384615384698,0.6692307692307651,0.6769230769230745,0.6769230769230887,0.6692307692307651,0.6769230769230745,0.6692307692307651,0.6692307692307793,0.6923076923076934,0.684615384615384,0.6615384615384556,0.6615384615384556,0.646153846153851,0.6384615384615415,0.646153846153851,0.6615384615384556,0.6615384615384556,0.684615384615384,0.6769230769230887,0.684615384615384,0.684615384615384,0.6999999999999886,0.6923076923076934,0.6769230769230887,0.6692307692307651,0.6615384615384556,0.6538461538461604,0.6384615384615415,0.6230769230769226,0.6153846153846132,0.6153846153846132,0.6230769230769226,0.6153846153846132,0.6307692307692321,0.646153846153851,0.6538461538461462,0.6692307692307793,0.684615384615384,0.7076923076922981,0.7000000000000028,0.7000000000000028,0.7153846153846075,0.7230769230769312,0.7076923076923123,0.6923076923076792,0.6923076923076934,0.684615384615384,0.6769230769230887,0.6692307692307651,0.6692307692307651,0.6692307692307793,0.6769230769230745,0.684615384615384,0.6923076923076934,0.684615384615384,0.6923076923076934,0.6999999999999886,0.7000000000000028,0.6923076923076934,0.7076923076923123,0.7153846153846075,0.7230769230769312,0.7307692307692264,0.7384615384615358,0.7461538461538453,0.7461538461538453,0.7461538461538595,0.723076923076917,0.7000000000000028,0.684615384615384,0.684615384615384,0.6769230769230745,0.6615384615384556,0.6615384615384698,0.6538461538461462,0.646153846153851,0.646153846153851,0.6538461538461462,0.6615384615384698,0.684615384615384,0.684615384615384,0.6923076923076934,0.7000000000000028,0.6923076923076792,0.684615384615384,0.6846153846153982,0.6692307692307651,0.6692307692307651,0.6615384615384698,0.6538461538461462,0.6615384615384698,0.6615384615384556,0.6692307692307651,0.6692307692307793,0.6769230769230603,0.6769230769230887,0.6769230769230887,0.6692307692307509,0.6769230769230887,0.6769230769230603,0.6692307692307793,0.6769230769230887,0.6769230769230603,0.6846153846153982,0.6692307692307509,0.6769230769230887,0.6692307692307793,0.6692307692307509,0.6615384615384698,0.6615384615384698,0.653846153846132,0.6692307692307793,0.6615384615384698,0.6615384615384414,0.6615384615384698,0.6615384615384698,0.6538461538461604,0.6461538461538225,0.6538461538461604,0.6538461538461604,0.6769230769230887,0.6923076923076792,0.6923076923077076,0.6999999999999886,0.6999999999999886,0.6923076923077076,0.6923076923076792,0.6846153846153982,0.6769230769230603,0.6615384615384698,0.6538461538461604,0.6384615384615415,0.646153846153851,0.6461538461538225,0.6769230769230887,0.7076923076922981,0.7076923076923265,0.6923076923076792,0.6769230769230887,0.653846153846132,0.6615384615384698,0.6538461538461604,0.646153846153851,0.6538461538461604,0.653846153846132,0.6384615384615415,0.646153846153851,0.646153846153851,0.6692307692307793,0.6999999999999886,0.723076923076917,0.7307692307692264,0.7384615384615358,0.7230769230769454,0.6999999999999886,0.6999999999999886,0.700000000000017,0.6923076923076792,0.6923076923077076,0.6923076923076792,0.6769230769230887,0.6846153846153697,0.6769230769230887,0.6846153846153697,0.6769230769230887,0.6923076923077076,0.6923076923076792,0.6846153846153697,0.6769230769230887,0.6846153846153982,0.6923076923076792,0.6846153846153982,0.6923076923076792,0.6999999999999886,0.7153846153846359,0.7153846153846075,0.7076923076922981,0.700000000000017,0.7076923076922981,0.7076923076922981,0.7076923076923265,0.723076923076917,0.723076923076917,0.7307692307692264,0.7461538461538453,0.7230769230769454,0.723076923076917,0.7153846153846075,0.7153846153846075,0.7076923076923265,0.6999999999999886,0.7153846153846075,0.7153846153846359,0.723076923076917,0.7153846153846075,0.7307692307692264,0.7538461538461547,0.7615384615384642,0.7384615384615358,0.7230769230769454,0.6999999999999886,0.6999999999999886,0.6923076923077076,0.6846153846153697,0.6769230769230887,0.6923076923076792,0.6769230769230887,0.6769230769230887,0.6923076923076792,0.6923076923076792,0.6846153846153982,0.6846153846153982,0.6846153846153697,0.6846153846153982,0.6846153846153697,0.6846153846153982,0.6999999999999886,0.7153846153846075,0.7153846153846359,0.723076923076917,0.723076923076917,0.7384615384615358,0.7538461538461547,0.7615384615384642,0.7615384615384642,0.7384615384615358,0.7153846153846075,0.700000000000017,0.6999999999999886,0.6923076923077076,0.6846153846153697,0.6769230769230887,0.6615384615384414,0.6615384615384698,0.6615384615384698,0.6692307692307509,0.6923076923077076,0.6999999999999886,0.700000000000017,0.6999999999999886,0.6846153846153982,0.6769230769230603,0.6769230769230887,0.6769230769230603,0.6923076923077076,0.6923076923076792,0.6923076923077076,0.6846153846153697,0.6846153846153982,0.6999999999999886,0.6923076923077076,0.6923076923076792,0.6769230769230887,0.6692307692307509,0.6692307692307793,0.6615384615384698,0.6615384615384414
ECG_sound.csv,0.6692307692307691,0.6692307692307693,0.6692307692307691,0.6769230769230772,0.661538461538461,0.6615384615384619,0.6846153846153848,0.6923076923076916,0.6923076923076925,0.6923076923076925,0.6923076923076916,0.6846153846153857,0.6769230769230763,0.684615384615384,0.7000000000000011,0.707692307692307,0.6999999999999993,0.6923076923076934,0.6999999999999993,0.7000000000000011,0.684615384615384,0.6769230769230763,0.6692307692307686,0.6769230769230781,0.6615384615384627,0.6615384615384592,0.6692307692307686,0.6692307692307722,0.6769230769230745,0.6769230769230781,0.6769230769230781,0.684615384615384,0.6999999999999993,0.6999999999999993,0.6999999999999993,0.6923076923076934,0.684615384615384,0.6769230769230781,0.6615384615384592,0.6615384615384627,0.6538461538461533,0.6538461538461533,0.6615384615384627,0.6538461538461533,0.684615384615384,0.7153846153846146,0.7230769230769241,0.7307692307692335,0.7230769230769241,0.7153846153846146,0.684615384615384,0.6769230769230745,0.684615384615384,0.684615384615384,0.684615384615384,0.6923076923076934,0.684615384615384,0.6692307692307722,0.6615384615384627,0.6769230769230745,0.7000000000000028,0.7384615384615358,0.7461538461538453,0.7615384615384642,0.7538461538461547,0.7538461538461547,0.7461538461538453,0.723076923076917,0.7076923076923123,0.6999999999999957,0.6846153846153911,0.684615384615384,0.6769230769230745,0.6923076923076934,0.7076923076923052,0.7000000000000028,0.7076923076923052,0.7076923076923052,0.7153846153846217,0.6999999999999957,0.6923076923076934,0.7000000000000028,0.6999999999999957,0.6923076923076934,0.6923076923076934,0.684615384615384,0.684615384615384,0.6769230769230745,0.684615384615384,0.684615384615384,0.6923076923076934,0.6923076923077005,0.6999999999999886,0.7000000000000028,0.6923076923076934,0.6923076923076934,0.6923076923076934,0.6923076923076934,0.7076923076923123,0.6999999999999886,0.7000000000000028,0.7153846153846217,0.723076923076917,0.7230769230769312,0.723076923076917,0.7307692307692264,0.7153846153846217,0.7076923076922981,0.6923076923076934,0.6769230769230887,0.684615384615384,0.6769230769230745,0.684615384615384,0.6692307692307651,0.684615384615384,0.684615384615384,0.7153846153846217,0.7076923076922981,0.7153846153846217,0.7307692307692264,0.7384615384615358,0.7461538461538595,0.7307692307692264,0.7153846153846075,0.7076923076923123,0.6923076923076934,0.684615384615384,0.6769230769230745,0.6615384615384698,0.6692307692307651,0.6615384615384556,0.6692307692307793,0.684615384615384,0.6923076923076934,0.6923076923076792,0.6923076923076934,0.7076923076923123,0.7153846153846217,0.6999999999999886,0.7000000000000028,0.7153846153846217,0.7307692307692264,0.7153846153846217,0.7153846153846075,0.6923076923076934,0.6692307692307651,0.6538461538461604,0.6538461538461462,0.6692307692307793,0.6538461538461462,0.6615384615384698,0.6692307692307651,0.6692307692307651,0.6692307692307793,0.6692307692307651,0.684615384615384,0.6769230769230745,0.6769230769230745,0.6692307692307793,0.6769230769230745,0.6769230769230745,0.6769230769230745,0.684615384615384,0.6769230769230745,0.6769230769230745,0.6692307692307793,0.6615384615384556,0.6692307692307651,0.6692307692307793,0.6692307692307651,0.684615384615384,0.6769230769230745,0.7000000000000028,0.7000000000000028,0.723076923076917,0.7153846153846217,0.7153846153846075,0.7076923076923123,0.7076923076923123,0.6999999999999886,0.684615384615384,0.6769230769230887,0.6615384615384556,0.6538461538461604,0.6538461538461604,0.6461538461538225,0.6615384615384698,0.6692307692307793,0.6846153846153697,0.6846153846153982,0.7076923076922981,0.7153846153846075,0.700000000000017,0.6923076923076792,0.6846153846153982,0.6769230769230603,0.6692307692307793,0.6538461538461604,0.6538461538461604,0.6384615384615131,0.6384615384615415,0.6384615384615415,0.6384615384615415,0.6230769230769226,0.6307692307692321,0.6153846153846132,0.6076923076923038,0.6153846153846132,0.6384615384615415,0.646153846153851,0.6615384615384698,0.6615384615384698,0.6692307692307509,0.6615384615384698,0.6538461538461604,0.6461538461538225,0.646153846153851,0.6384615384615415,0.6384615384615415,0.6307692307692321,0.6307692307692321,0.6230769230769226,0.6307692307692321,0.646153846153851,0.6615384615384414,0.6692307692307793,0.6692307692307793,0.6846153846153697,0.6923076923077076,0.6846153846153697,0.6846153846153982,0.6769230769230603,0.6615384615384698,0.646153846153851,0.646153846153851,0.6384615384615415,0.6384615384615415,0.6461538461538225,0.6384615384615415,0.6384615384615415,0.6384615384615415,0.646153846153851,0.6538461538461604,0.653846153846132,0.646153846153851,0.6615384615384698,0.6615384615384698,0.6615384615384414,0.6615384615384698,0.6615384615384698,0.6692307692307509,0.6769230769230887,0.6846153846153697,0.6846153846153982,0.6846153846153982,0.6769230769230603,0.6769230769230887,0.6615384615384414,0.646153846153851,0.6538461538461604,0.646153846153851,0.646153846153851,0.6461538461538225,0.6538461538461604,0.6769230769230887,0.6846153846153697,0.6923076923077076,0.6923076923076792,0.6923076923077076,0.6923076923076792,0.6769230769230887,0.6769230769230603,0.6769230769230887,0.6769230769230887,0.6615384615384414,0.6538461538461604,0.6307692307692321,0.6384615384615415,0.646153846153851,0.6615384615384414,0.6615384615384698,0.6538461538461604,0.6538461538461604,0.6461538461538225,0.646153846153851,0.646153846153851,0.6384615384615415,0.646153846153851,0.6307692307692321,0.6307692307692321,0.6384615384615415,0.653846153846132,0.6538461538461604,0.6538461538461604,0.6692307692307793,0.6769230769230603,0.700000000000017,0.7076923076922981,0.723076923076917,0.7076923076922981,0.700000000000017,0.6846153846153697,0.6923076923077076,0.6769230769230603,0.6615384615384698,0.6692307692307793,0.6769230769230603,0.6846153846153982,0.6923076923076792,0.6846153846153982,0.6999999999999886,0.700000000000017,0.6999999999999886,0.6769230769230887,0.6769230769230603,0.6769230769230887,0.6769230769230603,0.6692307692307793,0.6692307692307793,0.6769230769230603,0.6769230769230887,0.6692307692307509,0.6615384615384698,0.6846153846153982,0.6846153846153697,0.6846153846153982,0.6923076923076792,0.700000000000017,0.6999999999999886,0.6923076923076792,0.6769230769230887,0.6692307692307793,0.653846153846132,0.646153846153851,0.6307692307692321,0.6230769230769226,0.6230769230769226,0.6230769230769226,0.6307692307692321,0.6307692307692321,0.6384615384615415,0.6538461538461604,0.6538461538461604,0.653846153846132,0.6538461538461604,0.6538461538461604,0.6538461538461604,0.646153846153851,0.6384615384615131,0.646153846153851,0.6384615384615415,0.646153846153851,0.6384615384615415,0.6384615384615415,0.646153846153851,0.6461538461538225
ECG_video.csv,0.6307692307692307,0.6461538461538461,0.6461538461538463,0.6692307692307691,0.6769230769230767,0.6692307692307691,0.6692307692307695,0.6615384615384619,0.661538461538461,0.6538461538461542,0.6461538461538456,0.6461538461538456,0.6461538461538474,0.638461538461538,0.6307692307692303,0.638461538461538,0.6384615384615397,0.638461538461538,0.638461538461538,0.6461538461538456,0.6461538461538474,0.661538461538461,0.6538461538461533,0.6538461538461551,0.6615384615384592,0.6538461538461569,0.638461538461538,0.638461538461538,0.6307692307692285,0.6307692307692321,0.6230769230769226,0.6230769230769226,0.6153846153846168,0.6076923076923073,0.6076923076923073,0.6076923076923073,0.6230769230769226,0.6307692307692321,0.6538461538461533,0.6769230769230781,0.6999999999999993,0.684615384615384,0.6923076923076934,0.6923076923076898,0.6769230769230781,0.6769230769230781,0.6615384615384592,0.6461538461538474,0.6538461538461533,0.6461538461538439,0.646153846153851,0.6384615384615344,0.6384615384615415,0.6615384615384627,0.6692307692307651,0.684615384615384,0.684615384615384,0.6923076923076934,0.7000000000000028,0.6999999999999957,0.6923076923076934,0.6692307692307722,0.6692307692307651,0.6538461538461604,0.6538461538461533,0.6461538461538439,0.6461538461538439,0.6384615384615415,0.6384615384615344,0.6384615384615415,0.6384615384615415,0.6384615384615344,0.6307692307692321,0.6384615384615344,0.6384615384615415,0.6461538461538439,0.6384615384615415,0.6461538461538439,0.6384615384615415,0.6384615384615344,0.646153846153851,0.6461538461538439,0.6384615384615415,0.6384615384615344,0.6461538461538439,0.6384615384615415,0.6461538461538439,0.6384615384615415,0.6538461538461533,0.6538461538461533,0.6615384615384627,0.6692307692307651,0.6846153846153911,0.6769230769230745,0.6923076923076934,0.6769230769230745,0.6615384615384627,0.6538461538461462,0.6538461538461604,0.6384615384615415,0.6461538461538368,0.6307692307692321,0.6384615384615415,0.6307692307692321,0.6384615384615415,0.6307692307692321,0.6461538461538368,0.646153846153851,0.6692307692307651,0.6615384615384698,0.6615384615384556,0.6692307692307651,0.6615384615384698,0.6538461538461462,0.646153846153851,0.6384615384615415,0.6384615384615415,0.6230769230769226,0.6230769230769226,0.6230769230769226,0.6307692307692321,0.6307692307692321,0.6384615384615273,0.6384615384615415,0.6384615384615415,0.646153846153851,0.6538461538461462,0.6538461538461604,0.6615384615384556,0.6692307692307651,0.6615384615384698,0.6692307692307651,0.6692307692307651,0.6538461538461604,0.6615384615384556,0.6538461538461604,0.6538461538461462,0.6538461538461604,0.6461538461538368,0.6538461538461604,0.6615384615384556,0.6615384615384698,0.6769230769230745,0.6769230769230745,0.684615384615384,0.684615384615384,0.6769230769230745,0.6769230769230887,0.6692307692307651,0.6615384615384556,0.646153846153851,0.6384615384615415,0.6461538461538368,0.6307692307692321,0.6384615384615415,0.646153846153851,0.6615384615384556,0.6615384615384698,0.6538461538461462,0.6692307692307651,0.6923076923076934,0.6923076923076934,0.7000000000000028,0.6769230769230745,0.684615384615384,0.6769230769230745,0.6692307692307793,0.6538461538461462,0.6538461538461604,0.6538461538461462,0.646153846153851,0.646153846153851,0.6461538461538368,0.6615384615384698,0.6615384615384556,0.6615384615384698,0.6692307692307651,0.6692307692307651,0.6615384615384698,0.6538461538461462,0.6615384615384556,0.6615384615384698,0.6615384615384556,0.6615384615384698,0.6615384615384556,0.684615384615384,0.6769230769230745,0.684615384615384,0.6769230769230887,0.6769230769230745,0.6769230769230745,0.6692307692307651,0.6692307692307651,0.6615384615384698,0.6692307692307651,0.6538461538461604,0.6538461538461604,0.6461538461538225,0.6384615384615415,0.6307692307692321,0.6384615384615415,0.6307692307692321,0.646153846153851,0.646153846153851,0.6538461538461604,0.6692307692307509,0.6615384615384698,0.6615384615384698,0.6615384615384414,0.6692307692307793,0.646153846153851,0.646153846153851,0.6230769230769226,0.6153846153846132,0.6076923076923038,0.5923076923076849,0.5923076923076849,0.5923076923077133,0.5923076923076849,0.5923076923076849,0.5923076923076849,0.6076923076923322,0.6153846153846132,0.6461538461538225,0.6538461538461604,0.6615384615384698,0.6538461538461604,0.653846153846132,0.646153846153851,0.6230769230769226,0.6153846153846132,0.6076923076923322,0.6076923076923038,0.5923076923076849,0.5846153846153754,0.5846153846154039,0.5846153846153754,0.5923076923076849,0.5846153846153754,0.5923076923077133,0.6076923076923038,0.6076923076923038,0.6076923076923038,0.6230769230769226,0.6307692307692321,0.646153846153851,0.6538461538461604,0.646153846153851,0.6384615384615131,0.6384615384615415,0.6384615384615415,0.6230769230769226,0.6230769230769226,0.6230769230769226,0.6307692307692321,0.6230769230769226,0.6307692307692321,0.6230769230769226,0.6153846153846132,0.6153846153846132,0.6230769230769226,0.6153846153846132,0.6307692307692321,0.6307692307692321,0.6384615384615415,0.6307692307692321,0.6384615384615415,0.6384615384615415,0.646153846153851,0.6692307692307509,0.6769230769230887,0.6846153846153982,0.6999999999999886,0.7153846153846075,0.7153846153846075,0.700000000000017,0.6999999999999886,0.700000000000017,0.7076923076922981,0.6923076923076792,0.6923076923077076,0.6923076923076792,0.700000000000017,0.6769230769230603,0.6769230769230887,0.6769230769230887,0.6615384615384414,0.6538461538461604,0.6384615384615415,0.6384615384615415,0.6538461538461604,0.6461538461538225,0.6538461538461604,0.6615384615384698,0.6615384615384698,0.653846153846132,0.6384615384615415,0.6384615384615415,0.6384615384615415,0.6230769230769226,0.6153846153846132,0.6076923076923038,0.6076923076923038,0.6153846153846132,0.6230769230769226,0.6230769230769226,0.6384615384615415,0.6615384615384698,0.6615384615384698,0.6769230769230603,0.6692307692307793,0.6692307692307793,0.6692307692307509,0.6615384615384698,0.646153846153851,0.646153846153851,0.6384615384615415,0.6461538461538225,0.646153846153851,0.646153846153851,0.6384615384615415,0.646153846153851,0.646153846153851,0.653846153846132,0.646153846153851,0.6615384615384698,0.6538461538461604,0.6615384615384414,0.6615384615384698,0.6769230769230887,0.6846153846153697,0.6846153846153982,0.6846153846153697,0.6846153846153982,0.6769230769230603,0.6769230769230887,0.6692307692307793,0.6461538461538225,0.6538461538461604,0.6615384615384698,0.6769230769230603,0.6846153846153982,0.6769230769230887,0.6846153846153697,0.6923076923077076,0.6846153846153697,0.6769230769230887,0.6615384615384414,0.6692307692307793,0.646153846153851,0.646153846153851,0.6307692307692321,0.6307692307692321,0.6384615384615131,0.6307692307692321,0.6384615384615415,0.646153846153851,0.6615384615384698,0.6615384615384698,0.6615384615384414,0.6615384615384698,0.6615384615384698,0.6461538461538225,0.6384615384615415,0.6384615384615415,0.6384615384615415,0.646153846153851,0.6307692307692321,0.6384615384615415,0.6230769230769226,0.6307692307692321
ECG_interactive.csv,0.6615384615384615,0.6769230769230767,0.7,0.7000000000000002,0.7307692307692304,0.7461538461538466,0.7461538461538462,0.7461538461538462,0.7615384615384615,0.7384615384615376,0.7153846153846164,0.707692307692307,0.6769230769230763,0.6692307692307704,0.661538461538461,0.6538461538461533,0.6692307692307704,0.661538461538461,0.6538461538461533,0.6692307692307686,0.6923076923076934,0.7153846153846146,0.7461538461538453,0.76923076923077,0.7538461538461547,0.7461538461538453,0.73076923076923,0.7307692307692335,0.6923076923076898,0.6769230769230781,0.6538461538461533,0.6615384615384627,0.6538461538461533,0.6538461538461533,0.6461538461538474,0.638461538461538,0.6461538461538439,0.6461538461538474,0.6461538461538474,0.6769230769230745,0.6923076923076934,0.684615384615384,0.7153846153846146,0.7307692307692335,0.7538461538461512,0.7538461538461547,0.7615384615384642,0.7384615384615358,0.7384615384615358,0.7307692307692335,0.684615384615384,0.684615384615384,0.6769230769230745,0.6769230769230816,0.6769230769230745,0.6692307692307722,0.6384615384615344,0.6769230769230816,0.6615384615384556,0.6538461538461604,0.6615384615384556,0.6769230769230816,0.6538461538461533,0.6769230769230745,0.6692307692307722,0.6692307692307651,0.684615384615384,0.684615384615384,0.6769230769230816,0.684615384615384,0.6692307692307651,0.6615384615384627,0.6538461538461533,0.6615384615384627,0.6307692307692321,0.6615384615384627,0.6615384615384627,0.6538461538461533,0.6692307692307651,0.684615384615384,0.6769230769230816,0.6923076923076934,0.684615384615384,0.684615384615384,0.6692307692307651,0.6615384615384627,0.6538461538461533,0.6461538461538439,0.6307692307692321,0.646153846153851,0.6692307692307651,0.6538461538461533,0.6692307692307722,0.6615384615384556,0.6692307692307793,0.6769230769230745,0.6615384615384556,0.6692307692307651,0.6615384615384698,0.6692307692307651,0.6692307692307651,0.6769230769230887,0.6692307692307651,0.6692307692307651,0.6692307692307793,0.6538461538461462,0.6923076923076934,0.6769230769230745,0.7076923076923123,0.7076923076922981,0.6769230769230887,0.6769230769230745,0.6692307692307651,0.6692307692307651,0.6615384615384698,0.6538461538461462,0.6692307692307793,0.6461538461538368,0.6538461538461604,0.6615384615384556,0.6384615384615415,0.6615384615384556,0.6692307692307793,0.6615384615384556,0.6769230769230745,0.684615384615384,0.6692307692307793,0.6692307692307651,0.6615384615384556,0.6692307692307793,0.684615384615384,0.6615384615384556,0.684615384615384,0.6923076923076934,0.6769230769230745,0.6615384615384698,0.6615384615384556,0.646153846153851,0.6384615384615273,0.6307692307692321,0.646153846153851,0.6769230769230745,0.6692307692307793,0.6923076923076792,0.6923076923076934,0.6692307692307793,0.6769230769230745,0.6692307692307651,0.6692307692307651,0.6538461538461604,0.6538461538461462,0.6307692307692321,0.6153846153846274,0.6153846153846132,0.6153846153846132,0.6153846153846132,0.6615384615384556,0.6923076923076934,0.7384615384615358,0.8461538461538538,0.7999999999999972,0.8076923076923066,0.776923076923083,0.7769230769230688,0.7307692307692406,0.7307692307692264,0.7000000000000028,0.6923076923076934,0.6769230769230745,0.6615384615384556,0.646153846153851,0.646153846153851,0.6538461538461462,0.6692307692307651,0.684615384615384,0.7153846153846217,0.7307692307692264,0.7692307692307736,0.7692307692307736,0.7846153846153783,0.7538461538461547,0.7384615384615358,0.7230769230769312,0.6538461538461462,0.6692307692307651,0.646153846153851,0.6461538461538368,0.6615384615384698,0.6384615384615415,0.6692307692307793,0.6769230769230603,0.6384615384615415,0.646153846153851,0.6384615384615415,0.6384615384615415,0.6384615384615415,0.6461538461538225,0.6384615384615415,0.6384615384615415,0.6538461538461604,0.6615384615384698,0.6615384615384414,0.6692307692307793,0.6615384615384698,0.6538461538461604,0.6461538461538225,0.646153846153851,0.6692307692307793,0.6923076923076792,0.6615384615384698,0.6846153846153982,0.6769230769230603,0.6692307692307793,0.6615384615384414,0.646153846153851,0.646153846153851,0.6384615384615415,0.6615384615384698,0.6846153846153697,0.723076923076917,0.7461538461538453,0.7615384615384642,0.776923076923083,0.7384615384615358,0.7076923076923265,0.6846153846153697,0.6692307692307793,0.646153846153851,0.6307692307692321,0.653846153846132,0.6384615384615415,0.6384615384615415,0.646153846153851,0.6230769230769226,0.6307692307692321,0.6307692307692321,0.6230769230769226,0.6153846153846132,0.6230769230769226,0.6230769230769226,0.6230769230769226,0.6384615384615415,0.6615384615384698,0.6461538461538225,0.6538461538461604,0.6769230769230887,0.6538461538461604,0.6692307692307509,0.6692307692307793,0.6538461538461604,0.653846153846132,0.646153846153851,0.6538461538461604,0.6615384615384698,0.7076923076922981,0.6923076923076792,0.6538461538461604,0.6692307692307793,0.6615384615384698,0.6307692307692321,0.6384615384615131,0.6615384615384698,0.646153846153851,0.6538461538461604,0.6615384615384414,0.6769230769230887,0.646153846153851,0.6538461538461604,0.6384615384615131,0.6538461538461604,0.6384615384615415,0.6307692307692321,0.6384615384615415,0.6230769230769226,0.6384615384615415,0.6538461538461604,0.6615384615384414,0.6846153846153982,0.6846153846153697,0.6384615384615415,0.5230769230769283,0.7384615384615358,0.6307692307692321,0.6230769230769226,0.6230769230769226,0.6384615384615415,0.6307692307692321,0.646153846153851,0.6384615384615415,0.6307692307692321,0.6307692307692321,0.6384615384615415,0.6230769230769226,0.6307692307692321,0.6230769230769226,0.6230769230769226,0.6153846153846132,0.6307692307692321,0.6307692307692321,0.6230769230769226,0.6461538461538225,0.6538461538461604,0.6769230769230887,0.7076923076922981,0.7076923076922981,0.6923076923077076,0.6923076923076792,0.6923076923077076,0.6846153846153697,0.6692307692307793,0.6769230769230887,0.6615384615384414,0.646153846153851,0.6615384615384698,0.6538461538461604,0.6461538461538225,0.6538461538461604,0.6846153846153982,0.6846153846153697,0.7307692307692264,0.6923076923077076,0.6999999999999886,0.6923076923077076,0.6846153846153697,0.6769230769230887,0.6615384615384414,0.646153846153851,0.6384615384615415,0.646153846153851,0.6307692307692321,0.6384615384615415,0.6230769230769226,0.6076923076923038,0.6230769230769226,0.6230769230769226,0.6153846153846132,0.6230769230769226,0.6384615384615415,0.6538461538461604,0.6307692307692321,0.6538461538461604,0.6615384615384414,0.6538461538461604,0.6692307692307793,0.6692307692307509,0.6615384615384698,0.6615384615384698,0.653846153846132,0.6538461538461604,0.6538461538461604,0.6307692307692321,0.6384615384615415,0.6307692307692321,0.6153846153846132,0.6307692307692321,0.646153846153851,0.6307692307692321,0.6384615384615131,0.6384615384615415,0.6230769230769226,0.6384615384615415
ECG_final.csv,0.6923076923076923,0.6923076923076923,0.6923076923076923,0.6769230769230767,0.6692307692307691,0.6846153846153844,0.7000000000000002,0.6923076923076925,0.6923076923076925,0.7230769230769223,0.7538461538461538,0.7461538461538471,0.73076923076923,0.7307692307692317,0.7384615384615376,0.73076923076923,0.7307692307692317,0.7384615384615376,0.7615384615384624,0.7692307692307683,0.7538461538461547,0.7384615384615376,0.7384615384615394,0.7384615384615394,0.7461538461538453,0.7461538461538453,0.7230769230769241,0.7076923076923052,0.6923076923076934,0.6923076923076934,0.684615384615384,0.684615384615384,0.7076923076923087,0.7230769230769241,0.7153846153846146,0.7076923076923052,0.7230769230769241,0.684615384615384,0.7000000000000028,0.7076923076923052,0.7153846153846146,0.7230769230769241,0.6999999999999993,0.7076923076923087,0.7000000000000028,0.7076923076923052,0.7230769230769241,0.7153846153846146,0.7000000000000028,0.684615384615384,0.6538461538461533,0.6461538461538439,0.6538461538461533,0.6538461538461533,0.6461538461538439,0.6769230769230816,0.684615384615384,0.6923076923076934,0.6769230769230745,0.6615384615384627,0.6538461538461533,0.6461538461538439,0.6384615384615415,0.6461538461538439,0.6692307692307722,0.6769230769230745,0.6692307692307722,0.6692307692307651,0.6615384615384627,0.6538461538461533,0.6461538461538439,0.6615384615384627,0.6769230769230816,0.6769230769230745,0.6615384615384627,0.6692307692307651,0.7000000000000028,0.7153846153846146,0.7384615384615358,0.7153846153846146,0.7153846153846217,0.7153846153846146,0.684615384615384,0.6769230769230745,0.684615384615384,0.684615384615384,0.6769230769230816,0.6692307692307651,0.6692307692307722,0.6461538461538439,0.6384615384615415,0.6384615384615415,0.6230769230769226,0.6307692307692321,0.6461538461538368,0.646153846153851,0.6615384615384556,0.684615384615384,0.7230769230769312,0.6923076923076934,0.7076923076922981,0.7000000000000028,0.7076923076923123,0.7153846153846075,0.7000000000000028,0.7076923076923123,0.684615384615384,0.6692307692307651,0.6538461538461604,0.6384615384615273,0.6307692307692321,0.684615384615384,0.684615384615384,0.6692307692307793,0.684615384615384,0.7076923076922981,0.73846153846155,0.7692307692307594,0.7538461538461547,0.776923076923083,0.7692307692307736,0.7846153846153783,0.7384615384615358,0.7307692307692264,0.7153846153846217,0.684615384615384,0.6923076923076934,0.684615384615384,0.7076923076923123,0.6923076923076934,0.6999999999999886,0.7230769230769312,0.7538461538461547,0.7999999999999972,0.7846153846153783,0.8000000000000114,0.7999999999999972,0.7923076923076877,0.776923076923083,0.7461538461538453,0.7384615384615358,0.7384615384615358,0.7384615384615358,0.7230769230769312,0.7307692307692264,0.7461538461538453,0.7615384615384642,0.7384615384615358,0.6923076923076934,0.7307692307692264,0.7615384615384642,0.7846153846153925,0.8076923076923066,0.815384615384616,0.8076923076923066,0.7923076923076877,0.7846153846153783,0.7461538461538595,0.723076923076917,0.684615384615384,0.684615384615384,0.6769230769230745,0.6769230769230745,0.6923076923076934,0.6769230769230745,0.7000000000000028,0.7384615384615358,0.7692307692307736,0.8076923076923066,0.8076923076923066,0.7384615384615358,0.7000000000000028,0.7153846153846217,0.7000000000000028,0.684615384615384,0.684615384615384,0.6461538461538368,0.684615384615384,0.6692307692307793,0.6769230769230745,0.6999999999999886,0.6923076923077076,0.7076923076922981,0.7076923076922981,0.7153846153846359,0.723076923076917,0.7307692307692264,0.7384615384615358,0.7307692307692264,0.7076923076923265,0.6846153846153697,0.700000000000017,0.6999999999999886,0.7384615384615358,0.7538461538461547,0.7692307692307736,0.799999999999983,0.7384615384615643,0.7538461538461547,0.7307692307692264,0.723076923076917,0.7076923076922981,0.6769230769230887,0.6692307692307509,0.6769230769230887,0.6769230769230887,0.6846153846153697,0.7076923076923265,0.7153846153846075,0.7384615384615358,0.7538461538461547,0.7538461538461547,0.7384615384615358,0.7307692307692264,0.723076923076917,0.7384615384615358,0.7076923076923265,0.6999999999999886,0.6923076923077076,0.6923076923076792,0.6923076923076792,0.7076923076923265,0.7153846153846075,0.7153846153846075,0.700000000000017,0.6923076923076792,0.6923076923077076,0.6615384615384414,0.6615384615384698,0.6615384615384698,0.6384615384615415,0.6769230769230603,0.6615384615384698,0.6538461538461604,0.6692307692307509,0.7153846153846359,0.7384615384615358,0.7692307692307736,0.7615384615384642,0.7615384615384357,0.776923076923083,0.776923076923083,0.776923076923083,0.7615384615384642,0.7461538461538453,0.7076923076922981,0.6999999999999886,0.700000000000017,0.7076923076922981,0.7076923076923265,0.7307692307692264,0.7538461538461547,0.7692307692307452,0.7538461538461547,0.776923076923083,0.8000000000000114,0.776923076923083,0.7615384615384642,0.7307692307692264,0.7307692307692264,0.723076923076917,0.7384615384615358,0.7153846153846075,0.7461538461538453,0.7461538461538453,0.7384615384615643,0.7538461538461547,0.7461538461538453,0.723076923076917,0.723076923076917,0.7153846153846075,0.6923076923077076,0.6769230769230603,0.6692307692307793,0.6615384615384698,0.6769230769230603,0.6692307692307793,0.6692307692307793,0.6846153846153697,0.7076923076922981,0.7230769230769454,0.723076923076917,0.7461538461538453,0.7461538461538453,0.7461538461538453,0.7384615384615358,0.7307692307692264,0.7384615384615358,0.6923076923077076,0.6923076923076792,0.6923076923077076,0.6923076923076792,0.7153846153846075,0.7307692307692264,0.7384615384615643,0.7153846153846075,0.7076923076922981,0.7076923076923265,0.7153846153846075,0.7153846153846075,0.7461538461538453,0.7692307692307736,0.776923076923083,0.7615384615384642,0.7692307692307452,0.7692307692307736,0.7615384615384642,0.7538461538461547,0.7307692307692264,0.7538461538461547,0.7461538461538453,0.7692307692307736,0.7461538461538453,0.7846153846153925,0.7692307692307736,0.7692307692307736,0.7384615384615358,0.7461538461538453,0.7615384615384642,0.7461538461538453,0.7307692307692264,0.7153846153846075,0.723076923076917,0.7153846153846359,0.6999999999999886,0.723076923076917,0.723076923076917,0.7307692307692548,0.7307692307692264,0.7307692307692264,0.723076923076917,0.7153846153846075,0.7153846153846359,0.7153846153846075,0.723076923076917,0.7076923076922981,0.700000000000017,0.6999999999999886
