ECG,-5.388306707096255,-0.22268012635344192,9.606501992322558,26.99692206380299,37.51299322779558,22.680489915753274,-7.0480023634979165,-30.301480887086758,-44.50867727272572,-49.58810295940299,-51.67385863524732,-65.02516051962495,-73.07602840908879,-66.57413499419042,-77.26495596448437,-79.94844361276797,6.266758211443303,193.80428404716406,390.0518190032054,394.9941068739938,96.48991379048493,-215.53640409359406,-203.07745806319545,-54.40321375753713,-63.0144075050524,-100.96986126138758,-49.001521916956584,-34.02768475740777,-55.14149751769979,-28.140474424117,-7.540740293296029,-18.166697041100505,-13.401360457502298,-7.997360940653303,-12.534241203433737,-3.952416467611581,3.809588167143527,1.7485964367437017,4.899447129766063,6.647884537260309,4.450656103648568,8.823511208837555,9.63159741223769,1.4769973279643374,-1.9745467086891413,-3.6692442607839624,-12.782653408322748,-17.641019918855587,-12.049823410043318,-9.807293629825104,-14.409343406675406,-13.5974408272968,-5.525752797315597,1.2686337025863548,4.9532979335429115,5.328138479462015,-0.9824525310191774,-8.223181036003208,-6.615781216452024,-0.06385776342137639,2.300202389852225,1.1114779939943231,-1.2306400467652772,-5.6841794023485335,-7.7940195511666435,-2.4171574527555846,4.5357951977178335,4.755564179542813,0.6846881321427167,-1.0881186087743444,0.7777576740172041,4.292839103656416,4.879530202461037,-2.751775692363154,-15.723864571403729,-23.96659603212213,-22.24702831579952,-13.828992690546585,-4.841867913426453,1.1141042542965298,3.591016276218639,1.107493616020614,-6.37313595319017,-10.886826736972838,-5.463005074445883,4.005894632571582,5.724883831741984,-5.070072596080573,-19.220841813744617,-20.988122363875913,-11.23635807450117,-4.916522561403797,-3.2112312159555287,-3.163718073574504,-14.769351683230859,-31.765265624142135,-30.43834588526585,-13.885323089020357,-0.6295591676135697,11.76526377159687,21.67005306079713,13.137617036169857,-6.093642484195978,-18.311323677888318,-27.84971572951506,-37.57950857914334,-46.73025574018253,-61.75870339306693,-69.75036595159878,-66.83481846993082,-78.76752787595477,-79.36798716461738,6.288723209724736,197.23008532258697,393.76241285122614,370.68300731989467,41.683474663514424,-252.29125383726148,-200.33290641359315,-43.52284359026932,-57.398781869337434,-89.1282870772194,-35.946800473737525,-25.08006754974535,-44.39022951836664,-20.38148499675235,-8.929647235644154,-21.644087274270618,-11.336506871838843,1.3832925774805087,-0.33413678649703726,1.9958597139031298,3.3616248912230464,2.378348093150996,7.236484487798771,8.069892954072172,6.568043497054861,15.60089887337966,23.694488955243976,12.87219532144075,-10.288428014434126,-22.73836522001617,-14.933585853832767,-5.85168877162968,-11.679933533506189,-18.880669369507167,-15.131011403802285,-8.252842076633382,-0.4815404809229995,10.933914391495602,15.977071478649044,8.178498839611361,-2.2606733814750095,-4.846628481991868,-0.4387844582192928,3.7564827719916876,2.3652005364321314,-5.0697229858517545,-14.223863051476444,-16.551884041986575,-8.592496657171141,2.3008602257251,8.942345207777834,5.1101758153068495,-13.894280980686744,-29.552961823322185,-18.74901914693624,-0.06520898056964874,-0.2753981589269987,-5.098303742312707,-2.255653117552521,-6.961772196054856,-15.093473848980455,-10.216327272340374,-4.171545139952066,-9.785915085321719,-16.094231568119266,-14.81992107064611,-9.12811604699791,-3.160825003062655,-0.8057340166534832,-1.6469124930129109,-4.145268968059899,-9.00010922362149,-10.845562100040834,-7.707512184107923,-7.707207801426533,-8.82329021248712,-4.763770773040692,-4.030900218243218,-6.145826444746278,6.281752027900784,28.073841133472637,31.932878907695798,13.113392392680135,-10.817577972157439,-30.904870019605937,-42.12733715463561,-40.46067150095405,-40.937425182038886,-50.48397610130608,-50.11379015994462,-47.621335358683844,-62.98286901473918,-54.15383808904271,45.7070153595525,239.17815556003367,393.55692005717526,278.1320494285229,-87.25454510023289,-297.56550794323783,-168.27752052148816,-26.51780220125078,-59.728101859034226,-75.59729204312748,-20.60331338555787,-14.794861188715721,-31.440841053794017,-15.908589327483275,-8.085931418954708,-9.777455056137716,0.9205812153837982,7.3808956674245465,6.723440013577718,7.303977580347558,7.949601585254298,12.066884344190838,10.685411006299677,-1.619194750228285,-2.924753307862824,9.757995935231143,14.597170406127951,12.280444912806285,10.76259961038302,0.6029558543410474,-18.32665617376556,-30.248255856682192,-26.735762367642238,-13.796490270211901,-4.002493381105895,-3.2712291808710674,-5.091566704402398,-2.6245497454134927,0.6846373506235839,-3.7596992325929897,-14.8096321323089,-18.806663222562335,-13.516227309168135,-14.141803272659175,-19.962097189456077,-14.207811012458867,-2.70442133270274,-2.612685719488086,-5.7243335660424535,-0.19117802117063132,3.3619755943744503,1.159705191693205,5.491056274926525,11.186689239232889,5.07384730305966,-1.9002741479824934,1.1109272789891698,2.6302610558106876,-0.6117626988991178,1.428798508819197,4.144159186711991,-0.8876747695934313,-6.282986092472045,-5.033557023549649,-1.3093281591145605,-3.150728315936906,-16.842532544166286,-34.60761803944636,-36.108825662662575,-19.23799496816568,-5.6071414277904505,-6.715980016092146,-13.466025295505101,-16.611949570710834,-14.090105805630216,-6.044288122873777,7.435122145381929,25.15304496067348,34.35511768753541,18.421200853884095,-10.586179067000879,-26.64268616275376,-32.963943581919004,-40.554152376742,-44.95781973168951,-50.70444512135098,-58.076019895727555,-56.91371761575043,-60.09118121914687,-60.55060736858485,4.0184355352029755,167.61402179932722,354.1362454304614,370.5835566743916,97.69601481230833,-219.7756336483984,-233.1652759860977,-60.96086947677735,-33.70076582037769,-96.59148375394714,-68.89762029380296,-28.25586862521429,-38.40753610511458,-28.33144815331952,-9.176691099862104,-17.625222319433586,-15.692673805618153,0.7851363167087975,4.454659971129383,5.360863865243431,6.591803900447516,-3.6182902528300644,-12.586141724861054,-6.731029050772763,3.7613045381250814,5.499846305045793,1.7853595486774037,3.135746822757924,5.764586057824015,1.9896996986376276,-0.32674999415469586,2.542252870858178,0.6396059865778252,-5.337552211079959,-5.618433528613583,-0.23360708600073377,4.649097446049109,4.134061541520232,-0.4953304436324011,-1.0800494475022937,0.7498788577176008,-5.853785171828848,-17.51466719854627,-22.885205493747833,-21.42020238944127,-15.261294761656039,-6.945678350305556,-4.538778718636818,-7.11734893466004,-5.598285046767273,-2.0628435598380275,-1.8631302047906217,-1.4376717479407795,0.36675647367229924,0.6462718672204879,0.5742819848999545,0.5065246533138144,-1.9413341349344186,-5.890761191648949,-8.152512351062633,-7.855303234035826,-7.053583009427424,-6.1056402290752665,-1.9151732479378678,3.6050675010081807,3.011688217022882,-3.0028143999418235,-6.682952722085161,-8.282785310161607,-11.428902134226126,-10.125991502880504,-2.662766294039816,-2.034314789725217,-8.748515969796761,-6.434015473512053,3.136904439342817,12.054243898053027,30.72001470777584,45.24106437128955,22.121184010576762,-16.446416427567367,-28.20546516910813,-29.703279232248963,-40.404349503908435,-47.47507015170069,-63.54290321954143,-88.70397542383326,-83.1135769499677,-66.66759585760062,-79.27062418442841,-61.05725039675547,55.58079556530187,246.91226495303104,394.9429200994873,296.8182583841489,-42.320460783665695,-240.73790820169842,-124.6244944210134,-16.790345006299525,-68.09525532240917,-72.80067323421834,-18.1973198043587,-30.519047154656676,-46.264109866499055,-18.11140569269208,-10.409486819150942,-14.197291423991786,-6.266582904973777,-13.463275160977716,-20.808879082309687,-10.919613247115269,-6.812957896963365,-7.066394642572654,0.1591934833376012,4.208338914988577,4.16922776239223,5.838717123627384,5.551689105875015,3.26367092139769,0.09892681506377876,-3.3212266070493115,-3.6518423530169963,-5.981844324286339,-13.024374800895632,-12.744340363102868,-3.8921462573199137,0.5683139921830103,2.7085838398013755,9.117829622824216,9.119796189231513,0.5755817688759008,-0.2494465005847193,3.941342133012691,-3.5948650824125865,-12.171475477765647,-6.633027357096133,-2.6229216354728457,-7.482936880850211,-3.722840689252129,4.899484257355565,2.1739964010567743,-1.4363592793045785,4.015686342428908,7.5508186017382695,6.662740220130438,8.825650686625735,13.234656486317546,14.26100463597204,5.66234935542571,-10.569386217324512,-19.163327271682025,-14.922764469776322,-8.36978437588649,-4.08610561191975,-4.238037258174256,-13.445904496309844,-23.504725802038163,-22.943724909963702,-15.097761449122965,-8.3620950783479,-6.088172302530843,-6.445190165460751,-4.935546964173007,-3.5469465662637116,-6.298462472500727,-8.10320404048678,-5.609008780937003,-1.23460564203544,9.997116964666418,28.615517356177246,35.97340042535327,19.842874086724322,-8.907279151169067,-37.67282203101517,-56.712469380200346,-59.230237807533456,-60.67331405609202,-69.12870193783235,-64.73799321984094,-61.79461848753429,-83.16355810533469,-69.89056827969428,47.97456939340434,251.94782604408454,410.5038805888111,305.5156647898545,-53.55177402971306,-264.800668662112,-139.59261793241532,-16.711692262601353,-69.89141914668188,-79.24924315414845,-15.909534274109959,-24.407596625305047,-43.223353713123174,-7.2804252942077365,0.7805098677014115,-20.214545856442445,-11.642620990743271,-2.4268280432803593,-14.986363790261809,-16.14784734144647,-4.027215339168411,0.5040776903036033,2.3010876063060994,6.662287079475256,5.242430295642004,0.8995882312979893,3.7429289627430444,9.95966168488124,8.881148545088791,-0.5742931558074691,-10.659259312016328,-15.925128627999179,-18.35676583377354,-17.3113982637973,-7.82555542769586,2.8659251514563935,4.319411929697995,4.65058652831895,10.722332138954714,12.694309974510857,9.586422776113974,8.934026940794107,4.650207645260082,-5.60982848071637,-8.091333406028157,-0.33493815967899154,4.856099471830832,3.4458092657264174,-2.295829702325305,-13.279477115083825,-21.384619084363468,-15.015403356976634,-2.7741358573121495,0.4427079268617877,0.16005137526773439,2.9451018000835667,-1.3550629651689938,-13.791274596665227,-20.13014475559458,-17.493667916648683,-14.680864419453368,-14.095759893511197,-11.230040400579123,-5.03239982014777,-3.5343755855551926,-10.845284887717183,-14.857286920261682,-9.017684543635692,-5.867839726927279,-9.934937408558705,-9.78963561905857,-3.168054175425924,0.43775998395037163,-1.9975181769418775,-5.613819513620111,-8.347506095315257,-9.40095141345951,-3.962996660501271,6.8147168385058885,14.909044323619366,18.391229506329346,13.148618189963145,-6.926555035943519,-27.208990309303616,-31.273949634544135,-30.126899494828628,-37.32555892095391,-47.14359450432206,-51.06463157139347,-55.66871938587009,-72.08033327760378,-79.48336921613425,-28.160221372373908,117.2162373722399,321.0175528998781,393.5710329717882,152.83267622764936,-188.0378067409563,-233.30802509435665,-62.57808029016002,-25.55855713608554,-86.41270285299007,-57.49629613134333,-17.55290378537049,-35.170069919083396,-29.2291592392776,-5.962646344465089,-11.274403851749142,-11.339916106406111,1.6519888894993304,2.030971143143807,0.16813712550304416,1.313964275142574,-2.4767002094131225,-0.5194583052689659,8.664904966673504,15.666678494724575,24.956710668806906,29.18711491706022,12.472477635918398,-4.692054067504728,-0.9669711733365727,-2.3054829867799036,-21.45203934704362,-29.67351524682639,-26.898656539160367,-33.00428163923182,-30.91981393805895,-11.517959122453846,-0.9631966496448925,-3.914921414544981,-5.594225990954143,-7.516034023708222,-8.600238524488516,-4.063436380723905,-1.7383217514079483,-1.4148723625922983,2.339625954187671,0.31356450446378226,-6.342733096437116,-1.4989442000710058,9.253452551371861,7.885986506258764,-3.5032091721800533,-13.313156655616664,-16.01640055739853,-10.664002107064693,-4.586693390899441,-5.529354148083176,-8.971542609223489,-9.420138911159741,-8.560233304698626,-6.686735802434079,-4.506195869582777,-4.463609180439519,-3.960663003725866,-2.809437968648716,-4.812891454543031,-4.696262652040801,0.09386208913548799,-1.8072671789058372,-10.195058695233309,-11.576487715898649,-7.828675129297558,-5.831923638027096,-3.4495640946420654,-7.121180841870082,-17.34290036115673,-14.345503784502057,2.188458761964468,13.295708659007484,20.632017643529267,23.176909443134946,4.761067869725376,-22.348512928956374,-35.75846135201645,-43.13486257069319,-51.745563815169774,-54.52000041340769,-51.71813578866307,-48.699694602216454,-54.00901481349682,-60.752270780438316,-14.77515675563427,143.53373123846978,363.3465013482999,420.3676837067495,143.33060516948223,-225.0218601213632,-278.74880068870664,-95.16691406920076,-36.57183093204608,-84.69047850873565,-47.63660614146701,-6.491250979687905,-40.07146854051081,-44.51906528866521,-10.630824006255267,-10.129452779107776,-13.982366737479026,4.306211731515997,4.716756545996752,-13.804101194575747,-18.7569305078543,-10.066702220188773,-2.9639709929923406,-1.2708279696161622,-0.7262405927313971,3.546113264854065,8.016760440532542,5.959013912658069,1.652936002105287,1.9187188818388243,0.7299378700663031,-8.831702131077122,-18.725534872880118,-19.340253808964952,-12.499168819475985,-0.8176893234132754,11.917568146128994,13.158800467056796,1.9289148187572156,-5.241439475598682,-6.19743667250431,-11.483260474238843,-15.34087413340161,-12.199976186489582,-12.979860243707867,-16.23973166275543,-8.784884696749648,2.2389000042485554,3.6531063935870556,1.20557879153694,0.350854439286195,-2.351311991211407,-2.030344531606228,4.751844667885613,8.209420766640676,4.006540483495121,-3.1248607274333047,-11.0778775086074,-14.842512259795246,-11.544507008984336,-8.522871670928241,-6.267064002850637,-1.1981059566455645,-1.5400575965675412,-7.637473659642524,-7.142106276284844,-0.10004073231212285,6.763827531949472,11.337493381615348,9.008641469155709,1.5978347991613653,-3.7555357072667164,-8.056710193336198,-5.363049802370638,11.719952407008735,20.0266071713893,-2.374114857767765,-30.283816328571305,-35.7785949665354,-31.975953354123263,-33.071703495766926,-37.63674694066222,-53.90690306087145,-72.67857541858845,-67.98957966821213,-59.1064870238912,-66.22149666808454,-31.043963678254368,113.63963956865211,329.0988166464069,421.07605305119296,193.64579389785553,-181.8845969356348,-282.428425074191,-107.8224919216825,-30.846474041497686,-85.25061931993797,-63.95514500206302,-17.501171820394994,-35.40042873810066,-35.3535849537304,-10.784621620697571,-14.215608659370503,-12.921566872707025,-2.3182770621927222,-7.761663398017831,-2.6701301794656462,9.100254349462007,-1.5024480535465052,-7.69063790823825,5.288170062025939,8.412423420954653,3.4676844923062635,8.305181695814037,12.196361295636336,8.512855735933353,5.673358508790494,2.383332220051148,-2.1186338414743187,-1.1087565704575377,0.8169913076623541,-4.443638987553356,-9.46239030880266,-6.08660452398081,0.222756756221683,3.1148775159333706,0.3228213195358727,-9.805514600912282,-19.869354541306116,-19.777101708233374,-14.251558770890963,-9.876119602221234,-3.5566588248346065,-0.1525098824850044,-3.316683641541468,1.0267211068768312,9.7895262623512,0.7000976886590475,-13.470629352725396,-8.567633000016798,-4.355912861739107,-15.081489064494306,-13.985906029487946,2.550993666565425,5.333007253175284,-7.612851312160355,-14.970164187780618,-11.90179622099444,-7.7369365896093765,-6.49029617184955,-2.874656372914159,3.3497262445846694,2.766579982343429,-2.7760187448144737,-2.3904415953927325,2.3774630626260933,6.838696736632878,8.29428950687898,-0.8358677734274149,-13.828220898125801,-15.480562201808713,-9.140040794848336,4.205863723669041,25.848146678827813,25.792435798211546,-8.692518077939043,-35.30586255146894,-37.70210918307197,-44.1352131364675,-51.40135262430418,-49.385128422009714,-59.465699868585105,-72.4863629413372,-66.71796351589565,-66.34150326025525,-66.25204159905107,-1.5053386020485746,164.98113347988507,373.98070384270636,419.06779670469876,142.64023396153334,-196.87901544260774,-218.75069175448442,-53.79626012469515,-36.486122924580684,-96.04833802667399,-66.02606243759456,-33.80327822272856,-46.24334468326798,-35.771870274752686,-21.202817362640758,-23.885644494914736,-10.481119736988937,0.9802852680300767,-7.683435218656875,-7.36914857401935,-0.33875140685337435,-1.3239891314249732,4.60495724922281,12.308967854193067,7.806917264476055,7.009469233892368,9.577892641934495,-1.9028556544409785,-9.449342100595032,-0.4650061394244407,-2.092350159470964,-16.06898545806991,-15.690244258690921,-7.839204975295976,-8.159295717945312,-5.083605385730416,4.106377613196795,7.697053716866144,6.911573497663241,4.56056727831688,-2.6663726028422126,-11.545994051340276,-16.597465095688026,-14.609084013984486,-5.9565731797501345,-0.7424326693495091,-3.3905969435414027,-2.277604151384325,5.355298947682728,9.502108492834026,11.17321988119058,12.710688835486271,4.835979959699177,-8.900482339175614,-11.514242045986368,-4.023050149351233,0.8096534159878921,1.1184839549957815,-3.8247167968288025,-16.025217271503177,-24.805400545877518,-20.697254956255065,-11.060619833084408,-4.69321316860907,-3.6547549418862104,-8.936571397131086,-13.590545419911447,-8.038023112645078,0.060915295595689756,-1.2762790212558137,-4.362677466203225,0.43837434120213103,3.5502864419505045,-4.25262950902855,-14.317745941411978,-16.85238262608759,-15.695013611316153,-15.909628736380219,-13.046725256182782,-4.551583266329132,6.243442588305231,17.333458843606692,18.239177705213294,-1.4101648571372447,-23.992863653874657,-32.301688349425504,-37.83976879771443,-43.313402481441756,-42.48408530764458,-45.56211143220275,-51.967212438845834,-58.864922288892394,-74.51832200448344,-60.5092699050058,56.29944956461719,278.3292790515366,449.4026701243366,328.1547703497202,-45.32757682196915,-255.83955706870267,-142.2084428266628,-37.65523308810217,-91.23425416683457,-96.33318822776322,-35.32740310174415,-39.372874963693775,-54.44945428811815,-26.062836138902824,-18.159764119185,-28.973694587579764,-18.22506154406452,-5.930819437317211,-4.3378155810778125,-1.1410978967081427,0.9308558747526678,0.6889374275916165,3.308833595814332,9.648022754742112,18.151535546868352,22.116577403054432,19.324466014642447,12.398626775847852,-4.105499101424254,-21.949440328466018,-19.81699648844734,-7.905672828056293,-7.4813085039087,-8.942783745816506,-6.759394634591263,-10.215906282701631,-9.258800209129436,-0.2854703147015165,-0.23632819898920943,-5.136823519967406,-4.064138146847137,-6.551430800312927,-12.459635209974904,-13.014728036935713,-13.001416138913845,-12.196222107291334,-8.372247386919566,-9.880388288370852,-12.164146668902346,-7.05263427769448,-4.8854094342223,-6.3772051994435515,-1.3392529116410614,1.5040139783834245,-3.474285377814766,-3.0383529884879064,3.0418559965294296,2.667434854782927,-2.9196587139777144,-5.942978508383706,-4.541013390675016,-0.8943873284310611,2.4211872534944057,5.319671831178737,3.6146367316135617,-8.9105174841566,-20.721241919363184,-16.118350129022947,-6.083363041325187,-5.182786038937259,-4.9442781012912125,-1.9301808440897474,-5.574039005105952,-9.247621527783734,-3.9377897955007413,-2.272879044235104,-10.19357627444839,-13.147252179657917,-8.769946693028682,-9.534771613355089,-14.636923974281785,-14.226363859848476,-8.953209892271852,-4.857799755881656,-2.0134812229875525,-0.42365735212553624,-4.75728590894578,-9.246353207388456,0.5894764123904803,17.77081204704957,23.811126284436078,22.10236383923814,16.650038995490895,-1.8703071686142039,-24.933416824982444,-35.85398474331987,-37.69575479553028,-43.632096804421764,-61.173947190040536,-74.50370033342692,-67.26862478302857,-65.40169223085044,-69.0719080676492,-4.335479778498595,171.13789860353302,385.37530360869937,439.72577287109834,168.14707994240746,-207.5677489333179,-269.86479448386336,-93.12549256716513,-56.603238302424344,-122.33478528367444,-79.24987552881849,-23.857135933713373,-43.04243470908447,-40.082268135998305,-14.282167278254061,-16.423517617959916,-11.01867664386052,3.6692196204640073,-1.7113469989422185,-3.6986131159038003,5.428534044427852,2.783259622052385,-1.5968651367463043,5.804421415579558,11.176405792140129,13.072965877281575,21.482110572820638,21.82446554204391,2.4885150295258507,-10.461611216238536,-0.6613960176408265,6.187718561033915,-3.5491405656182673,-10.388797562986753,-6.0291277296355865,1.044667994831347,6.7110068067968704,7.287841174248497,2.4192426671117033,-1.83545496207981,-7.0231443921805425,-16.28037702585506,-21.868236634179013,-18.902764694874108,-13.871858866119856,-12.949422790720584,-13.526125881980484,-9.322842631212476,-3.4400571762489225,-3.530456161296314,-3.3772116899989424,3.814622155197478,7.68448845781196,4.1922034713613,3.6149194884603153,5.007420479557187,2.9779720418694033,3.0666005767329176,3.8475516274385306,-0.5462029685171155,-2.8165097586284995,-1.301010669303876,-4.554611920678413,-6.8204562519221925,-2.530984187994795,-2.03485725871748,-3.6335339416225585,2.020278922923726,5.152207338525219,1.1241372525912503,-0.2303783465479352,-5.199236548438835,-18.771230841811786,-22.623344186893203,-11.369838313033073,-0.9804577239897512,1.330368888627108,-4.898029922253702,-16.753693363217923,-21.874271555641347,-16.656057713080088,-8.126934956998983,1.226420442382798,5.141396404829704,0.2973698349189142,2.162068974553888,15.678967265406294,18.37400078210948,0.8460084895274349,-17.485402153796876,-25.88658176260995,-33.43951874431649,-44.90535265514488,-60.57363169700252,-75.30374663811011,-71.94991760988242,-63.79324231685342,-81.23480321804945,-79.3093770442234,16.4107663894941,202.7182307922312,395.39103485083433,401.85115090520986,94.52763670946462,-238.94659265877257,-230.6479254789412,-59.175386372035526,-51.92315632951804,-96.46699416213794,-49.802670409559376,-30.21142391029209,-48.790994500795136,-21.462249605841706,-1.17951324829939,-15.155338471651454,-10.748684952223854,-3.098265891135357,-9.672385874278628,-1.8158775677082843,7.292695259710159,-1.2046478092722719,-4.015384173139202,2.6032300140537945,2.374611029111943,3.4502811273697556,13.489750373066382,18.4776465876662,11.619982944086157,4.281612343066194,4.283380802639283,6.576804854014388,4.765112393834981,-0.7382782239373133,-5.411663977693211,-6.9066801717262765,-5.687584292219881,-0.4098610693016207,6.0755632252449,4.873783274674083,-1.1032890273331137,-4.729891126454419,-14.904147918186057,-28.038257372424273,-21.75640682765839,-4.730699285354682,-0.6769902786167634,-1.0393818649378659,-0.5953996155164205,-10.805297858343827,-15.92408164405992,-2.6438212370061134,4.988056096665014,-1.811902252871418,-4.13473555897291,-1.1913171305586765,-0.7539236614988294,1.984214292388506,4.224513180574446,-3.8323567168659025,-17.971312749438027,-24.305239780109886,-17.789172863530183,-9.327639288497092,-9.273243585381287,-11.625304364910903,-11.66853739830625,-15.509584785616362,-18.85655437572604,-13.056716285277032,-5.9052595291875605,-4.0659237531496615,-1.1940396645268425,3.3639677095371106,4.291608569365657,1.6948049662045452,-2.8413367376889944,-6.591099568837468,-6.231670889102656,-6.356679212326954,-11.357567212107718,-14.237071497467241,-11.346455682903844,-10.173963488565608,-10.240884985078793,-4.998415639792345,-2.693249939737301,-9.036615333635982,-10.07583908630755,-4.5652164979041245,-7.232237694199819,-11.584515830979138,-7.65573965534352,-6.241646865247567,-4.271883614757342,13.148606387239953,32.76192672368346,31.34641593609502,7.802276313175996,-22.65241673991718,-42.60118118008162,-48.46053476310444,-48.80099108513073,-50.00441200592887,-58.19366534670102,-67.30041676609144,-68.24512449258675,-79.51702800142733,-90.04874499065191,-28.921898262381745,141.4081102186301,370.34159919407205,480.8941331676605,264.8348827347226,-126.63467295815515,-253.748371511715,-99.86786154683774,-39.30638771781045,-105.55376417456009,-91.30281371270152,-42.195694074499784,-47.74947213713089,-41.64868183832156,-14.731075724068077,-7.7969445108488245,-3.409252519160585,0.09896301066437374,-5.76276152303314,-0.007520435338548737,11.568011648866513,5.225501682023898,-12.575451515048373,-22.383839577893248,-17.458669001886477,-7.410854964851707,-2.1616568306099815,1.073439697460289,2.0835490879898,0.4586444845424218,4.388346616657359,7.9534503153506915,0.958602294357485,-5.848282993697268,-6.634363475091575,-8.280177731526692,-5.713204694894938,1.7174466515503566,0.8864261830376723,-5.575581515764341,-6.808474297237652,-8.203249919669286,-13.915752788847723,-16.55303503430087,-14.246222395339828,-10.79987360468086,-7.967066090278376,-6.601390746693102,-4.275664551299695,0.7094788555501932,4.68594288596711,7.626325605872209,9.839850968357418,5.157536210943764,-2.6188187125351323,-3.3123455472013656,-3.911508105635958,-9.972078212065034,-9.27079471686251,-4.717561707074342,-11.999044146122879,-19.82325642072731,-12.948215154517925,-6.491009604053589,-9.58891621862907,-8.669465582374313,-5.2619173977265525,-9.762161761227857,-12.49165378544486,-5.973831843087486,0.20988472541440828,0.8271483429500535,-2.323499197112854,-5.122037496478578,-0.7799211968421922,4.8229133056539215,2.272186423557037,2.6530053259972677,10.040402270087775,6.055167969886139,-6.125254849145346,-7.839064693925897,-10.630584845207318,-22.91270596611322,-21.319022467891728,-7.466455853324883,-9.022571476373088,-16.75777633755459,-9.100667710182421,2.1971358619743526,5.846453559310188,2.5613126435066143,-12.69200293946999,-26.032289151696492,-17.5973009651719,-5.178001692955789,-7.570761949631951,-10.081572637658825,-7.278689756186969,-11.862874110303217,-18.177070602410403,-12.146887307231266,-0.08470755358888304,1.9107667947850242,-7.17315542102952,-14.298598293728984,-11.027551224344482,4.06160334859711,27.246533219152894,40.44240104317659,29.496109718760028,8.47260058665038,-6.420584897739795,-19.45003400789889,-32.840293202076126,-37.96727447176414,-36.47004031004433,-43.973743333209825,-60.15203072181109,-64.85625204112874,-66.52021191019993,-83.57765378529726,-69.96889203054633,41.015386162478066,248.6889892316444,440.096079854946,383.261089732624,18.46911209577855,-277.0932005818957,-209.68634173281066,-54.08504598844722,-73.24689000911192,-95.8898602570797,-32.24801180348254,-19.412156088353996,-39.25220910243512,-16.05185984810885,-5.729834198861617,-16.007655612784326,-0.20325203687876758,13.770962554949268,7.454728345108521,6.9488628904681295,7.870897781121885,2.180215494488989,2.9528639916883352,7.9589543813786,8.92929330695917,6.538358220296889,-0.029123021359776402,-4.618252578746748,-0.34246852037393616,3.9108224045105935,5.057832969748315,8.706946870675145,2.387213793470071,-15.622259886610877,-15.847973633079977,1.1911202161042347,3.4264108517632135,-2.9521990904661166,-1.3823375027167675,-9.632155062182694,-25.81667275714579,-26.498143828338975,-21.758488066694348,-23.602791911943797,-20.64504814484932,-17.380768063856753,-21.286172429892698,-20.435125877537846,-13.794498760160923,-8.423920322433723,-2.0533621006735316,-0.22161068451983468,-5.402710820364394,-3.9837630342567962,2.533996771110223,0.9416584114497084,-1.4056352892792106,3.977336399548153,6.062472381255095,-0.9857682095122478,-8.420260486136275,-10.06764992198039,-7.009402833149402,-3.948733260931526,-5.502243798435472,-10.120080649504196,-11.971724836837002,-8.949425991371314,-4.68752831016158,-3.12221818129086,-3.4504035692661255,-4.08701440663879,-6.168607888894294,-7.541393329458312,-4.430789080648948,-0.22119825994014164,-0.15183954572584657,-3.3941631903220273,-6.828252740894231,-7.788368886438898,-4.154205490702512,2.8142965230167047,7.905756763460954,5.829337976849181,-1.2542031407848713,-3.8704404041438014,1.1354317260534152,7.992813314172773,13.240392778329234,14.934560547956309,9.094622229379832,-4.2969155412376665,-19.516053774716024,-26.883158486823916,-21.763363744437637,-16.37664174145666,-21.521447518623855,-26.316823076527577,-20.701544491088548,-9.238235417135819,6.747575452294615,24.697299015449758,29.062962856214348,11.684656971325676,-11.670762762165198,-21.725713464833206,-21.261957883276974,-23.311184897553105,-33.099018277080184,-54.2775528590044,-72.69640093489478,-64.53245703426603,-54.97745348355947,-66.05562225131452,-39.25772914424863,76.10181231675628,265.3834655410052,427.35558151546,334.3214982348749,-35.112617343208406,-268.61909938884924,-161.84764696557033,-55.52926106237264,-109.82352647666116,-106.1972963373079,-39.818549818169814,-46.846735667231286,-55.565755504088685,-20.73901937144985,-15.446550483896281,-20.933497042411105,-3.764866748708945,-1.2409877810925067,-8.704323124422256,-2.835814658815689,-1.6912658685261661,-5.716046894506164,-0.8207169778310721,3.2981550812369296,2.9828220785075006,4.663561551303958,4.178292552586678,3.3378709506747457,8.079723263802105,9.574423293963461,3.7864459402884205,1.2472816414436045,2.3569350374255267,0.3596003590053414,-0.4918534433064581,2.8304199109848103,5.585739043424134,7.354218455179433,7.9525759221413495,3.6168769755942893,-3.1503262093051028,-9.04629186901019,-17.878032138377012,-27.122796326720483,-26.3984752205941,-17.70485052258354,-12.699821050159319,-11.486161038147467,-8.03517642327844,-5.120959237243175,-5.291171060311234,-4.492264225951001,-2.9198301878438535,-3.934603427530714,-4.322666234870484,-1.1424948966797839,0.3061934482620625,-1.9511455310690238,-0.8347111895301769,3.0920753332163793,2.0077074167165847,2.109730707803079,9.228848906678165,6.9307823843717635,-9.229854984445305,-15.548841870096648,-7.821833420733352,-3.6900339757825193,-0.8242665674183911,3.9686250189636425,-4.186949637182732,-19.51812588830652,-21.41108295731887,-15.323594890036832,-12.33496967207664,-7.748000098884841,-4.433485644437237,-8.292541824262841,-11.16874338436275,-8.682114514947738,-6.153160683234994,-5.050905875900876,-6.542760738951724,-11.832189946023956,-14.572143217985168,-10.59697270004748,-5.508167495860286,-4.3750778388724285,-6.967279786803429,-12.347389008022553,-16.56845971120014,-11.948441594443954,1.5794764629260492,15.171931207931845,22.85111910929463,19.463097215762424,2.235612502014094,-16.46532172453226,-24.560751517570257,-24.736555857266623,-23.279462262312528,-33.20140825225714,-54.69254419328813,-60.01797235412188,-59.411127828594516,-82.73968742258891,-75.23522640329007,30.80502892680468,217.81068164666235,395.9175160763377,366.20040539954687,37.27361171041484,-254.58038917944432,-200.41642653514327,-52.388158905494805,-76.9232416291421,-104.71562779397038,-41.33065465716509,-25.50329113958871,-44.494328779462684,-23.35657491476533,-12.953203096973269,-20.287094728126025,-5.279571383599436,3.8024751659319627,-4.504544044450288,-3.0994009553283437,1.1161749407926056,1.9409547460075691,9.065910736748894,12.44681713554602,12.277995874719354,20.642046330679413,19.575001770396995,1.3625799737479305,-3.004801609055063,7.27499765249447,2.5738534573148586,-6.282257236559229,-3.275050080568885,-11.093571708706328,-25.850974845132342,-18.186102982951333,-5.9776621760389155,-11.441563998723561,-11.958361080278388,-3.524364247399708,-8.705952661768201,-19.117121626587178,-19.071784805677808,-17.262402680897857,-16.270101394478548,-10.25979289511552,-4.137933954643401,-1.019770455726027,0.7832972288360889,-1.2547500007623587,-4.715544628034136,-3.18574894983969,0.39926108555602724,-0.4540682264977498,-4.1008314157680665,-3.5544257600765086,2.681551284914833,5.784076362805789,1.2347501823508047,-1.1998095957062667,0.5601435540982713,-4.130620849268507,-9.152928935377048,-1.9390431777846375,4.5952442545080565,-0.8812997688551167,-4.706653422662319,-3.6479029466257415,-8.886929373451927,-13.4934895324468,-9.37314852891091,-8.813178640198096,-16.052633120626215,-18.50463248794567,-12.855293614312554,-5.961975809955721,-2.5926846989439163,-5.8319712320199475,-12.380169889928696,-14.153174343543176,-10.923482855167748,-5.888981806866161,-0.9201278719158044,-2.6919845817328216,-6.959255985073404,4.844431391245663,25.907240450780243,27.23221004398203,10.133466619665535,-5.855686101118134,-22.261091717726195,-34.77041200151754,-31.4165367688572,-33.67689021190648,-52.91049638174975,-59.00294004538408,-58.96628663228704,-79.05794363778604,-70.20437963624352,33.17099450497392,233.6082838510013,430.881130358609,378.8186067895232,-2.582216890530212,-312.9926795439164,-230.44390367559782,-43.04116898337603,-42.79632704497249,-73.71809786673663,-36.96875675383046,-40.07873891959929,-54.187997914591904,-22.62002196157166,-9.254286781352917,-17.244846307032002,-6.8532728902982,-4.262394656534736,-11.787336207798045,-3.9896550729832434,2.775415958010866,-0.04753748360544563,1.7570899054758629,4.6778278743357316,7.796743699512175,15.795326691125753,15.273044898325683,5.0959256378737825,6.839801037748068,17.057033763652715,13.652981516739242,5.954779565827554,10.442250537493955,11.081279116043032,-0.6409774278960354,-6.110154123093185,-3.364512223312607,-3.975256720116912,-4.424736463993035,-5.686503822843957,-15.55809411974876,-24.872965687591208,-24.781525075646492,-22.850368230596878,-22.56865369155323,-18.651573634081203,-11.39178157218921,-7.346732208904633,-7.691442734750845,-3.2477687197484695,6.401381050898519,6.337751227433956,-0.37373745925412827,4.458178229194692,12.303929341897781,7.727675407080676,3.04604727120829,6.0802571116724025,4.86433476407657,-2.1467049853389124,-8.078240188570588,-12.181362602085922,-13.157324389995072,-12.083312388737925,-12.516851181679236,-10.648109628493511,-4.801060282600886,-1.335112191237405,-1.5088832021394278,-2.2829708610433226,-2.7225113531497573,1.2786644902274986,8.62058263852288,4.554855143238038,-13.101453857201047,-20.36887165359151,-4.909225131352421,17.329564308468747,32.1270686272653,29.330807607429517,-0.5250019976073972,-35.99269558476084,-47.9343954468754,-47.3656183335641,-48.279772359041466,-44.355788065641285,-45.418767150878125,-56.05924715652735,-60.661491829823234,-63.031771974330404,-50.99626639854402,42.532328300037236,242.3554653706891,407.15183398996396,301.9142945557124,-58.78021934441239,-289.4641393546443,-176.35483507185907,-16.333051476554537,-44.85035112670033,-86.37583136504625,-32.18569142107678,-7.083852376573745,-26.669285276671758,-17.83214031101471,-7.254988240592727,-17.24464987126259,-13.286183850484994,-0.08672728165146637,-1.4465609689101626,-8.754785324957764,-10.870562848099786,-9.4686364514511,-5.661845891843749,0.6073913851691062,7.154319974391713,9.53503276737648,7.047445572142551,5.1818180243410445,6.295676739007025,9.055915165105354,12.928386305872772,12.298995315688444,3.158260339552662,-5.186656130201861,-5.191219603291321,-1.972934424128522,-0.14267512552045858,-1.1369712661299243,-6.281900952567064,-12.606816076676164,-19.084820068653563,-25.505624081292293,-24.227778512560914,-16.96297608164378,-16.25245508015204,-16.9968113969801,-8.917642014523455,-3.055689458253699,-5.965502918729143,-5.616376618910958,0.49628637730890546,3.6938915919988826,2.493060863181003,1.7898546943253235,5.401808582068573,8.896078788361333,8.01226193609903,11.01192433945598,13.262769986596549,-2.68091942419095,-19.42789976937428,-11.443374327488526,1.7764803117373233,1.2632898241722792,-3.413905735937778,-12.815538652511755,-24.091021133400908,-21.336361705998982,-12.951649523696268,-11.104872267606098,-6.980576327063751,-2.2371293923077644,-3.328163466571297,-5.7270763190960885,-14.486578069029704,-27.24520806718111,-23.334110624922722,-5.358770289483342,7.624775578597897,14.44120077235044,11.832113584025226,-6.103954183477658,-23.103744463339766,-29.494416012118023,-35.48130355035998,-40.455114135581034,-46.15445032082693,-58.54596987684257,-59.77084480184402,-55.29622389537741,-72.67034769504006,-64.30218231464292,42.73850988559295,235.79290680098478,412.7474361472206,374.74336351506923,41.17293430082889,-257.0088760832433,-208.27100265594527,-51.87277496086876,-66.60422396848799,-96.70187617322937,-36.70445402084384,-22.270834843725233,-45.229378827495395,-21.42678244615267,-2.5408489844842634,-8.97504163752023,2.823243833515715,12.196726217077602,2.4110835696298984,1.0741089713934393,3.5701085941437327,-4.1443320374531325,-5.969851195128426,0.7403241798643379,0.04065974706018327,-3.4016126447365505,1.5280619205495443,5.13101541816609,2.2624025125219953,3.0826785287325387,3.7291523790316026,-2.128075430061987,-2.856855696760176,2.027965786751739,2.8943675980166215,4.663590567089208,3.8152418227834457,-6.224144545191221,-7.061832203149403,2.8176112420178754,2.20837531708834,3.6896508873241336,15.984064757852893,7.009454595717777,-16.305771851340047,-11.826223718716582,3.9820499564332454,-3.6505899083356006,-18.44172516536264,-26.123343593092567,-35.084310855352456,-35.54816563068825,-23.124876044389058,-15.995507392246978,-15.629338876275884,-12.070108516382447,-10.745827102828951,-13.006718035390683,-10.503029555802367,-5.764425708652791,-4.221121538605015,-4.264307980179048,-6.478645820676732,-8.961737272022388,-6.616506155947338,-4.466868951256213,-5.939830450255435,-4.342094942967064,-4.005231691060462,-11.607623112989778,-14.561229920700669,-8.004916871147604,-6.561252306224798,-11.62952045535277,-13.084344327077206,-10.318020308998893,-3.3886138810222963,8.829581339061729,20.237987785669823,21.778959645514362,7.605676748569517,-14.005820371678269,-27.45967555128238,-34.80031570026412,-42.231353631729334,-46.972371523682106,-53.90620758719616,-59.85479631387288,-59.53611261109833,-71.73387835786974,-79.97464349539621,-18.344342075760004,143.39766068480768,355.5134530529025,433.616879874117,189.87378348107416,-171.53860760489002,-237.70892766602623,-76.42067388852814,-41.96107552381717,-97.85358056987813,-62.508982855977386,-23.173783838330273,-41.36560099102991,-32.74251319788103,-8.142225349447472,-11.767656830146112,-11.141589719269014,0.039821145895750476,0.8531242843570546,1.9105253967999687,9.021085076473959,9.032915334235176,-2.1289360954563,-9.398847530353134,-1.2792481544887053,5.613795236313565,3.758228003368888,9.3153441801736,9.185408962138606,-9.314304453018158,-12.923172538922664,2.7105149327952915,3.304983976967325,-3.0896375706385353,-2.8551168487948075,-16.33534040712334,-29.64080271932057,-15.312260304170042,-0.0359294618818371,-4.393313248708369,-6.954098448443254,-6.396177308679029,-13.726756795468624,-14.649078592938807,-6.125007371279462,-4.438624728850236,-7.778977011581318,-7.518547504813927,-7.322313012456322,-7.445942757841044,-4.3231701519655505,-0.6563156556692853,0.5278445792915889,-1.0919841557229049,-4.178549681662691,-5.427484613020255,-3.720294349226757,-0.585556212773751,0.7136898569960888,-3.108377188557318,-6.016567914685375,-0.5215923079013303,3.9549895772199353,-0.9811908055280192,-3.142888513856075,3.3831666566371723,4.315473504522595,-4.82367214230486,-10.602228583556721,-8.629180802037554,-9.323243475865862,-15.188490580759463,-17.18515448071314,-16.722438450137535,-20.57696594444817,-17.550071188847205,0.7781421488738589,18.296023387280684,21.281496531792094,8.976116531741159,-12.94259079338918,-24.470411344341244,-21.06515095673736,-25.621443548703986,-36.91504056088706,-39.25630514112318,-39.60376423757895,-42.304407483330024,-56.56341719160906,-85.22266467485652,-67.10801423810862,54.38342354346257,249.07851896842243,397.6638023980486,300.4639026574577,-47.1925276208489,-263.0364494898926,-148.8642958504801,-33.277371476758944,-90.94946209195348,-97.12563431760726,-23.967517625484618,-26.110379707200742,-45.35173422453318,-13.818234197778235,-7.608900961596863,-26.06001394977964,-19.121610461739476,-10.175189955696307,-10.738487319358612,-6.721728922298741,-7.682157827047927,-9.248863359933218,-1.493361868057148,2.3331618941020356,2.981434495172662,10.232287535585353,11.49757160999604,2.885647861526749,-0.1313126148189161,1.6874377795094855,-1.0412859217875514,-4.749137097751177,-8.000579873677735,-10.784334011352232,-4.7220332631165345,5.455164048537841,4.636355330574757,-1.1616257450515697,0.12700168326488104,-1.046324364823926,-11.861292515524006,-18.554278460070336,-12.76802687293364,-4.065198466405901,0.5885452434177703,2.960617216535603,0.7609976087207553,-7.268275751935584,-10.90448501820335,-4.855395233042794,-0.09141654068782934,-3.1725987380394063,-7.047096288717205,-7.795064158729139,-7.42293829879904,-4.295083198408214,2.1130794120373633,5.760328369819631,4.297003101086212,4.517468573089788,8.264861176073033,5.965916051031979,-6.235031391316063,-18.56308234306384,-21.202092499126252,-13.953131501495957,-7.220288051521674,-9.539564204451704,-8.788052088405799,4.150001115670506,5.5742403085110634,-15.844937149721407,-28.088437497518488,-16.46002648542629,-3.8184889741398855,1.636592410227797,5.940383882316627,7.108330511436545,10.036418798932374,12.941000224677097,-0.04316450716551046,-19.612579319590424,-27.723045580054915,-35.643410786963614,-45.35052704075552,-44.52156912219364,-48.97254795594393,-63.12082915045774,-64.35710431425538,-66.61330671232363,-80.12569729403643,-42.28390345017192,111.4799347258019,339.815165588681,436.5086482452539,196.77431767458012,-188.9800566040868,-282.50517129102104,-99.09175386949886,-22.628111336427324,-80.91005054465799,-63.404208690565405,-18.224257682361326,-32.9215949320716,-27.028521878719715,2.827581772332838,-3.1396162561638903,-8.891322445558075,5.060141937449342,4.901007388753431,0.8285213887965721,3.1971876068150777,-5.636776267842574,-11.15340966144084,-0.5677454424971895,2.8166429955546266,-0.8114716782520004,7.758869816905063,14.36704784360541,7.514700627226477,5.112298693043195,6.812929077644401,-0.3838453081965447,-5.357522367179167,-2.3303812136965654,-0.15058797292444714,7.929445855512176,20.298869771606945,15.618211257681995,-1.5031133257210065,-9.689138526874691,-12.880158312152401,-19.96753612044555,-23.326073024376075,-19.54262827395229,-14.773101453791128,-12.475146501741163,-10.519031818112051,-3.8790145312496707,5.988677489683795,10.231190644297376,8.2855236603929,5.314009705217668,-1.030471478109252,-6.908818448024448,-0.7360925109781089,7.718758539418853,0.7227022574197051,-9.720180280523007,-7.679101411223115,-1.9008851054479425,3.7276771848291386,9.277255578325011,-2.0514859215967167,-23.70557233187408,-22.704336096432765,-5.547082143695119,0.4244246527849427,4.648468981544371,9.627067590097079,-8.63948228288789,-32.86417495263457,-24.965334907121928,0.9598387259352075,17.127751295769457,23.34620610393775,11.76671685227345,-17.505309422429683,-34.246780858034455,-34.219905003055146,-38.62851376232852,-42.826466900474436,-43.96324224514361,-51.107472948244634,-52.9128706278201,-54.525847805293445,-70.14743747405694,-46.22518573884457,92.14877885106952,316.4584467261871,437.5617985367506,242.28719780829033,-145.86863840674772,-298.7663071669069,-137.11968695725398,-26.250577785687106,-74.24445791932389,-68.30043334918864,-8.995210601966221,-16.092800755300164,-29.27788228127244,-2.9117306357910735,3.474023064046648,-7.743012141678253,-7.121509916296357,-10.140472908186968,-16.075768380005766,-14.917984065749582,-15.413594104052262,-12.848112212524734,-0.612979068400886,9.087817733462053,12.684870116566222,15.887667806986878,14.516492224625361,11.556043244137186,16.44947229306004,14.404481654613805,-6.453273685283649,-15.92913494802451,1.85127572816537,9.977401773106639,-4.544498312505695,-6.551861456066151,7.504146979602792,5.897881561783265,-10.576589914959937,-15.62787706793359,-6.708579151289985,-3.204546544544659,-10.687605233367083,-12.545259512541271,-6.382965528034083,-12.71823774142817,-26.39060391021376,-20.714007327103097,-3.457220710074786,3.30420840896673,4.438116542020389,3.929493414052546,-2.2785414924204783,-4.852751773929361,-3.0916338724085897,-5.577638619452456,-3.8268909584850785,2.501811237308557,-2.34187387632946,-10.50392416898027,-7.130936274338609,-4.744772370271168,-12.112043445984032,-17.512259759594432,-17.012023002081435,-15.132713285365647,-12.732719148178234,-11.880828842076156,-9.180801946146406,4.348382539102982,23.648344847911133,32.73980687292109,22.914970942349978,-1.8286246058763833,-23.683390956063143,-29.488643105798204,-30.47827728075735,-37.91962918805358,-46.26269444396023,-50.46700931162867,-49.23213757889315,-53.60966391553917,-77.45291934665035,-81.24109304229279,7.211126637621433,200.70691876567423,395.33893708655603,372.6685976248341,47.827659166685336,-258.81281385759246,-223.33941044989564,-46.32208902229871,-32.8302302081875,-76.9904235834623,-37.74225095422852,-15.001790067016756,-37.65579118751565,-31.30057788457464,-16.664708483638208,-20.15577683722347,-12.333475053142383,-3.203752277503522,-11.952852644689177,-17.239096460815595,-10.099420670407063,-4.646193936822618,-1.960669377508239,4.091485639519101,7.48693737955136,3.489032753328468,4.167918110552241,15.16672768253212,22.732382357176576,22.71447029659289,19.10624753663817,4.819773004146035,-10.654061268798252,-4.5041707619568125,11.011555110874314,12.947087427184433,8.955975243449718,0.2730575024160622,-21.17484456940187,-30.707276050111957,-15.296906005442418,-10.190244140703541,-25.84854318205248,-31.649577959365065,-26.74524505062063,-26.45135923814442,-19.35813971870987,-6.220047648443945,-5.585957506620193,-8.982474531901389,-4.7372509931343,-4.807429648457028,-7.508030334054194,-0.2633572355641931,5.722548251914036,-0.2749670650533975,-6.288736052704536,-3.862518186694029,1.7295239730704104,4.0024910633289466,1.9322425252865223,1.0247377768549022,0.5078101273524105,-8.155511738590949,-18.13474530330582,-15.824909489599124,-8.468779739326603,-7.574607449622528,-8.610293490653696,-6.989011082960747,-5.446011524352796,-3.4023863794688847,2.529369272485062,10.453302223088778,14.885786759612975,16.674054145676557,16.087963510313912,2.454631948715023,-20.719652058893754,-30.316357401137232,-27.425355899026822,-33.663349578761384,-50.42209942880043,-65.57891280935725,-69.29905541690461,-66.67128967153484,-78.66592811524458,-82.12589473521365,-8.352252452454799,167.79060977697165,381.17093292929775,440.9261564059176,179.64129509670943,-180.98282897879557,-239.71327669570604,-80.94841581810364,-54.14464945631358,-106.89339163865445,-59.244854879896224,-15.501874515780678,-34.5579577730386,-19.500434167364325,7.670263852449176,-1.8209339584422182,1.5438607583807524,17.013131247369863,5.7377938097814365,-12.524595958277448,-21.250102105603588,-25.021564045761643,-16.464380289812183,-3.095333192543089,2.2951531769730007,1.974574437709995,-6.767264973459824,-17.28551725570045,-11.894935579622212,-0.2074007070014563,0.03410113701834838,-4.06111431720262,-5.076022027496492,-5.8941834378784375,-4.04919829860885,3.0330493804523107,10.64570836014641,10.133412638488705,0.20825152240812628,-6.664693960827828,-8.136194379448302,-16.18532459818437,-23.66008485829176,-17.998919351722684,-11.516859612168211,-11.803693424431081,-9.462057715976123,-4.953318493076342,-0.04078235096731753,6.954113535597119,4.789930475908319,-7.495853315858184,-12.051984535279052,-9.084197483270252,-8.807212468612654,-4.207716357928767,3.301982198910908,-1.1482726551979425,-10.26740884209792,-8.631543238760798,-4.560580496724526,-6.085076049431487,-4.452680215331702,-1.3502431809731839,-6.768596794734254,-12.888188912483159,-9.362824063782915,-3.6602177222246706,-2.509428513043666,-2.498685218542402,-3.902353519479197,-7.781195161173205,-8.697054540956106,-4.08486784294433,0.8028926961816865,-0.8286001565707686,-8.410902398043046,-11.575771863865358,-4.9945440047819725,4.504894975092231,14.53201580637521,27.398575772106568,32.104017707633034,15.859334946680631,-9.144113980202603,-21.78951421973354,-27.233406446133955,-36.674815593477064,-41.64601439449099,-49.89082957231955,-73.30872726830162,-82.97507924440225,-76.40363181083248,-86.45985148835369,-71.96409461573725,29.957452443387353,212.5132229475888,408.25548988577793,414.89992716646907,98.63219117919974,-216.88212720084135,-185.66172277634365,-46.8815703752768,-80.13590350478015,-106.11813299747746,-30.350680291508983,-19.454903145156393,-56.185999438997996,-34.3304346187364,-14.362287765955877,-31.103944440832002,-27.467952054541833,-8.003851056794087,-6.581112965275466,-13.06563266556671,-13.756877009851767,-12.222669107737467,-11.30717689161103,-7.065030438673183,1.1245621150099048,4.082147550592788,-0.356743220135499,-2.1716432376413124,1.496892267682279,4.475459444730849,4.064228731898906,1.911459134585396,-0.9910456528883653,-3.8994367532368273,-3.0196208077081472,2.329899078903436,5.575191387826699,4.74062334311165,2.2023694826789626,-4.8133752207646125,-13.59598753103053,-15.684296260574545,-12.64864755473419,-8.645925837088363,-4.626564840232589,-6.298573619430737,-11.238416400022576,-7.352261521694885,2.8989156321743232,8.221053284591227,7.0134478970304714,0.3015402266578757,-8.467388509530897,-10.343326601305467,-5.636636420261359,-2.205860792672669,-1.261659809152544,-2.2177633550972553,-4.342523140927247,-2.0052443606922337,4.520280532290961,8.16678170423526,8.749094889931332,6.034201675887747,-6.170508053111684,-20.998346010996638,-21.888324770508163,-11.391403485547375,-4.856772963367684,-4.669976435755938,-6.710008233403498,-10.308237672069279,-8.90539166746926,1.3975177306268503,8.772559677905711,7.682161596082063,9.615812182282367,12.306112782345675,0.7369962757026514,-14.946162040527248,-15.108224732460839,-9.606060904836127,-13.320250644306615,-18.519092725919165,-18.83133279637152,-16.39498553536622,-5.916454726097546,13.561550739804304,28.513792077229752,24.0613291911871,-2.4537284499215204,-30.64402371135202,-37.54767830595981,-35.452765139854975,-42.52924171618092,-47.991413923971734,-52.774695826105855,-64.58710835462243,-63.882619896561394,-60.28852181772178,-77.04933084558347,-58.74202099415359,64.41554630536532,278.68829260919466,452.1069503070265,349.5455447923003,-30.87260586960415,-270.7406988630671,-163.0448202096796,-44.937588332354636,-93.25038108440631,-97.9358963423999,-34.95604005456361,-35.06966340204278,-42.45425552387931,-14.023329145533346,-14.591332581054381,-24.470961184699718,-8.514570161018806,-1.768601266780129,-5.8239719825470875,-0.4908751051005851,0.9091559534135261,-4.611745764585557,-5.0553010345431435,0.3104547343965365,7.18567902945845,7.821089441479645,1.3500244154865335,-0.9456718152390495,0.9319852903659598,-0.7103349902477207,-1.149724169636928,3.149776667189852,6.552009300015481,8.256750527375814,10.074162619051519,12.144497476476635,18.471622503582015,24.736923477901883,14.629093423263928,-9.432146921991661,-24.89971477060869,-28.824368754731523,-32.07915737891619,-27.14058892569301,-12.15239274594425,-7.186839824144311,-13.051778641141812,-11.253790552453253,-2.792890917872489,4.185533776662361,8.014883773610826,-1.202326540970402,-19.561891006436294,-22.481659287542314,-10.222782015305704,-3.5041424116433966,-3.57134992353909,-5.03403102486519,-8.738112942603452,-9.358644090214442,-6.775778809217481,-6.179198061338175,-3.5133767733626176,-2.7415870383998584,-10.87219355882143,-11.183472479347115,2.6602069971197384,7.024657881819159,0.8908961641230544,1.3732209843460286,-2.980656614409794,-16.091616850011278,-13.582494857604669,-0.04190413977779173,-0.48092519506686493,-6.9746561036454,-5.127673654497686,-3.4280429275900968,-7.2517840349112035,-12.403877284729848,-14.19084022681735,-8.994382778303004,-5.576332285116941,-9.580121773475494,-4.610834630125516,12.997378456849692,24.553562130084508,25.431765141058577,15.214994592865143,-9.866878208750025,-28.111641584095334,-26.080389903059693,-28.693333153290038,-43.438083728029326,-53.04848759945311,-58.54538904671704,-62.83815046935524,-66.28579527066711,-73.81207927717543,-44.26006812146521,96.07153665481717,325.55780531918134,444.29726188552803,241.8627316611445,-139.35667403487645,-280.1967071024864,-121.35050241302332,-20.913815203496483,-74.84275601685084,-76.51185138100386,-31.109661227233346,-45.948488867709806,-50.1145391648855,-11.199050402291983,-4.781881449220368,-16.37502310582873,-3.275693386558543,3.752865110414202,-1.6161007223668449,6.7730154688896915,11.992233323014279,-3.677990494941728,-13.493904093363422,-2.0509609986531565,7.888294713024558,8.472397745056071,14.366275819690562,16.011272564839715,0.15986232830832492,-12.32552495358668,-7.717099028136587,-0.7012567821658058,2.474375195450219,3.3958947920476863,-0.2435388969727974,-0.7473102004604275,3.4166213558890277,-0.33020920265804854,-5.947191986172216,-1.5653267127646782,-3.6262433774113205,-21.745748392276987,-32.41296867558816,-25.0672404377989,-18.45035610866643,-20.111066753730153,-19.943621072998383,-15.802203325769877,-11.82836757472134,-6.154194942585191,2.674425149702671,9.333402137561276,9.859888339395138,7.931154899644509,6.3800052903099855,2.133678254934985,-2.934654238795682,-2.36228294898188,-0.004521207329974963,-3.289435565117687,-8.556050805229557,-11.256955800014328,-12.071810296809954,-8.516951356112376,-2.7525794197428066,-3.9135865286504803,-9.76833293336588,-9.614680743701731,-2.274953104344381,5.2654563682625515,7.105954277839007,5.856542954676497,6.460777987341025,-0.2600365176906525,-15.331913356558202,-14.006341841772004,2.6286562798970827,0.961023322982312,-13.945163545915646,-11.596238043979135,-1.221058082750936,-1.1912927023386288,-0.5950770177767133,2.9077479553330434,-7.852422153864126,-27.696394680155795,-27.572380020895906,-2.292425285851632,21.469452911348313,26.99343140520369,11.888773375844963,-22.768217726261817,-49.93854669749026,-47.63571463870636,-40.906257506177454,-47.15614464090435,-54.24007275781128,-61.313545154924626,-65.57830282942166,-68.07484195617859,-77.01721251290772,-46.710598239587924,78.8030279447546,275.0466842783463,422.74709372718803,322.8127078985824,-36.150278903108834,-273.4529248576688,-167.37765800158257,-36.99698697622776,-83.5896716086138,-95.03244362845113,-27.137767748800158,-27.609143915263473,-45.20384306041707,-13.844102296411895,-5.414842067455716,-16.658615886014232,-4.37359293360713,-1.489369353496011,-11.300727188986682,-3.703102993215257,4.075814192561651,-1.7373453224013105,-3.5376095480767873,0.9137004132978905,3.4480705952051256,6.648726173030166,10.577323973304326,10.117134148629269,6.988189112339661,6.0287638847538965,7.2902546983414585,11.49469630923147,18.379082115530778,20.01075306711581,16.17888437409923,16.73081602229292,14.522781686905237,-2.7919158102456727,-20.678099449820962,-24.975661676582824,-27.30698288001317,-31.860151741753086,-29.527964985013192,-25.407382893917223,-22.746383966181465,-12.759724823667877,-3.7712201731637016,-7.22290517033735,-9.371868283469121,-2.939663493577304,1.3701384746757412,5.714117199974507,10.079254665807706,2.679126741007135,-4.5902746239053265,3.4219445792568957,11.967757856010543,14.33577095921948,15.31658171204247,3.0828775517500624,-14.02558484175155,-10.9473027924816,-1.7834975897103824,-4.51761033275408,-6.788239974549914,-12.04664316833647,-26.033030022960762,-28.196129000823255,-20.59338367021187,-21.297799230993498,-19.69294108167196,-12.875326648482794,-15.015973394984403,-16.6906993896706,-9.44438819884235,-4.7449074764212735,-3.191930288964013,-3.240349961470592,-9.927885772774344,-12.869713267447745,-5.694894906863748,-2.4573976185166444,-6.857355065141723,-10.629631815142762,-13.95137484121827,-13.87698752440584,-2.795009322597208,13.750997903811456,24.105528728597,20.66317349265362,0.17470293140672055,-22.64000166040224,-28.698215050415705,-28.05644371092103,-34.62813385312166,-41.190941515031355,-47.6281165444348,-53.93938029919109,-53.79932763112262,-62.22084083888092,-67.91185225813899,-4.732269682007953,162.49718797746448,364.9186891436715,403.6971455894985,132.66981414206242,-203.768815552083,-232.55867617581077,-72.51939880829947,-52.00518251972156,-98.60329307214332,-54.96913055235641,-27.060029661984665,-49.05833364949826,-28.627082583408573,-3.1172472839042555,-16.414457335755216,-13.232505337288268,4.612821945411573,-0.25960836255719855,-3.080649544489603,8.399098021491836,8.82537799171741,4.6768412291948325,13.98643331156303,20.306836101700455,12.823577021661913,10.34745930016077,12.534542245461793,1.3647965459278506,-8.218732417764446,-0.1681349977254527,3.7164314501143467,-3.686686587752309,-5.886114149668735,-11.973092129585782,-27.057552321136836,-27.022201546837948,-13.320418187760502,-10.009617421520264,-12.084204207614723,-8.55611096583553,-10.034327149787735,-16.736518197660686,-14.644725097186685,-5.393826663633281,1.5055112096815026,6.951301145585267,9.415967345597867,1.8718318925688795,-8.940022921747449,-9.86508543725395,-5.385142921547143,-7.032854373062049,-11.83420993850839,-12.28963121159865,-10.350257914628976,-8.934636510917608,-5.366723496840001,-0.0776639076317398,1.0756435711651289,-2.347951178356368,-5.175303556323339,-7.27068703408891,-9.458359872139372,-8.289404686494855,-7.101115595670585,-11.980827013330806,-16.09465430333172,-12.978464929762133,-9.584332698056798,-8.373480146806466,-4.920739065000273,-4.014729924812306,-8.100266951559343,-7.694564769761955,-2.6538027278401053,-2.7821234460666275,-5.089474891790127,-2.941737122704337,-4.055264771938123,-12.321155390888222,-15.722492762277902,-9.99251099554538,-5.847065396391301,-6.044967150498939,-2.312381006308091,9.52848841061931,26.14233474955008,33.687172791435074,17.94278706099661,-7.413189407211045,-17.702895893642218,-17.937662459838627,-24.279003198068697,-37.07823523907325,-50.48588531086875,-57.49757936399371,-66.35054771746312,-90.38865957033266,-92.10713846854456,-14.321527255232965,155.54712706504029,361.24171657621235,400.789094399295,109.98320254526848,-235.64613577365455,-240.2571330106466,-61.10546743815965,-44.96470876995037,-94.94580580270079,-48.990274549721036,-21.95464294652936,-45.34833597436525,-26.749005977047915,-1.6879980402123103,-10.967821517742205,-9.237318490355126,1.1512289644233071,-1.8586449753422691,0.964193826434542,6.469354343534642,0.05727808221179309,-4.621446772241761,-3.073258590417179,-1.719959277891772,5.793481591035353,14.479729652046117,8.735500163006162,-4.999121926570094,-10.867958238831907,-8.336848985083481,-3.3308621165263848,-1.6771247656644324,-6.513871333030829,-8.319375517719841,0.7358063671416417,9.88757619298002,8.978345034741707,2.2041914272974816,-4.352014686045317,-6.551095880615196,-3.2166624231612033,-2.5701502504911513,-9.828252764712696,-15.617403064867725,-13.680429204394423,-11.6129738468186,-12.612535763675996,-10.484450486788583,-6.922585085822881,-8.081661050563548,-8.73780827267846,-2.842663496522306,3.403462487899068,3.248920072911819,-0.441038432632606,-0.14029574901267772,4.877793058764771,2.421351331600249,-13.076195436835796,-25.38673954596777,-23.761208297898722,-17.77769443765661,-13.511256598080026,-10.700450590000885,-11.43282930877773,-9.959701158338472,-2.8758648393013804,-0.7875574334027053,-5.0380252796461225,-4.352195224832645,2.281708299427672,7.4608535646520275,4.420743763833245,-7.887132458997435,-17.024395535437257,-14.843436198025268,-9.135377116240155,-3.533710117147635,-2.956399936921482,-16.491499487245143,-25.05067433010231,-7.0931749974377585,15.176520642329418,18.725101535492325,9.854648624055468,-9.03972278959085,-31.31577358443333,-38.10221169640698,-33.27712617521287,-33.19321676726851,-39.879522560906004,-52.52257311321865,-67.78001239309701,-76.56971080587334,-69.92390988064889,-19.33877653553668,124.79329726798835,337.73735883934637,414.60808498104325,164.6405399556486,-202.19799249899236,-276.05469037239664,-97.63116205281511,-24.654625600534935,-73.3398109722778,-54.72414536225081,-15.217918877253389,-29.806457562340256,-25.3733176052173,0.5839557184277577,-5.0215598505571535,-12.698735297034414,-3.001711483856303,-0.6441393239362156,-0.36039019450595333,5.942755785051919,6.669589210371298,3.7812888292572775,5.616830878778256,12.43254643570232,18.83730059857769,15.800011884660474,5.346854777849045,-2.0193234401823923,-5.425238866349738,-6.431150015026892,-4.591216421706216,-3.6789687660455623,-2.737103469187608,0.45546247403678963,2.0045913333633183,5.250905352327321,10.114901611030298,2.2078209947463154,-12.215914970686413,-12.919997447446084,-11.739302519257752,-19.93190496518835,-18.028929250502546,-9.306863145284325,-12.080130268384915,-8.165834287363056,8.060097194356747,7.636398614383828,-2.68946647106665,0.6646484219163868,3.370423024931368,-0.30543642432598084,1.9001317443734553,-3.4244388935455348,-18.05711118130395,-18.57387739577895,-11.732160444755182,-12.505485248302284,-9.425369694338848,-5.147879111907166,-10.58194127828806,-12.006320130060846,-5.52802327768465,-3.1457546300771746,-0.6285289649297567,0.2708831818842299,-12.124810926698327,-23.41328848282369,-19.69223466365584,-14.738385739609805,-12.270279846219646,-6.8585490880999345,-10.153086667002029,-20.274647103082454,-18.958699364742692,-11.971557270079929,-8.92697823165355,0.7947972010738056,15.034317357211517,20.762610665842306,18.105472920089632,4.302270970512987,-17.020491175213394,-25.182902479302644,-25.27247297369358,-36.13058351805653,-44.33206293440204,-41.75343906182976,-42.15751087396048,-44.710722591758525,-51.085964708396716,-54.47580473855106,1.1050973349080095,155.3007683061108,335.4388994531896,351.57148981956664,87.86725526980115,-222.6330627102262,-238.46741762813753,-66.12391831024905,-29.906820978328092,-79.38051612956079,-42.05259871417336,-8.621360951877243,-36.39020886412876,-29.937346719383974,-1.8907148323790537,-7.407035809129749,-7.512250782160945,4.3153447164599745,-5.694937111754143,-15.777477534557697,-6.133072027965931,1.9649719849853735,1.9023880811734806,3.118105252778447,4.710805535883814,5.601172242101047,8.281099793356997,10.627864168230154,11.047160113262848,12.473128710371146,14.434379281833843,11.981801109681808,5.686317451330057,1.7912597720043362,3.1570806906647833,7.98724911445656,10.009407363522527,0.2130471191888379,-16.753787533044026,-21.677555300572287,-12.932983580350431,-9.350463828552325,-14.547479835883276,-19.69823925271425,-25.55759865693638,-27.48984938197087,-17.705009042946692,-7.337896512370625,-4.383456203914323,-1.3047365021067066,-0.8434316567260254,-5.256581884998255,-2.5953633897174786,4.283988747094295,2.7073822193667816,-1.6175549595826837,-2.856192093835954,-6.537628804421871,-10.725149892615903,-11.407592155765894,-10.494277977532217,-6.336734917749904,-1.3152954572277977,-4.164095934606195,-10.24103320741559,-6.935791392269273,1.3373977884116286,-1.4209550291497521,-15.58815423386096,-22.63696696736522,-15.620439305520335,-12.267371210042604,-19.304725443804344,-18.990031862551245,-10.725607044368093,-12.185524937221137,-14.928913094884939,-1.2594943675537067,16.599450326452995,21.680047048666044,14.034750364542305,-3.6389871049047464,-22.999897988010197,-34.45392054415784,-40.29633766068926,-41.85323885538192,-41.730080892521016,-46.957353353716904,-53.347140476319,-63.399637548584025,-76.29481420513304,-46.73966538024639,73.6800338981589,273.3497478170949,417.6401688200622,280.1951827952397,-92.02678083408043,-274.73838930073873,-128.95567185863547,-15.442183009618148,-70.43557213345022,-75.72067305884252,-19.13648042912314,-21.60261040112486,-28.6783836408181,0.20414337100105762,6.975587898021999,-8.848632197976842,-17.20565227255065,-14.831660883227155,-3.24426157450001,3.653668875385037,1.430241315878396,-0.8134619107812551,-11.167251962181794,-22.12308772847662,-12.474082505030738,1.8472648122348332,3.155476423377987,3.065539088141459,2.6437837369551698,-2.0908179172436885,-0.11913620498480615,6.710047441169115,6.74211794029498,4.2952871539932875,5.061549584205093,4.638519345800509,1.4333279254651305,-0.853416187062515,1.3422345908654076,4.310628556417681,-2.257495526587217,-15.69187365254123,-22.56406436543201,-22.572997551535217,-19.152974681692953,-10.519135463370715,-7.90492013569671,-16.730859278549833,-16.23697617774387,-2.5679833932331135,0.7905251908785935,-6.076674514748401,-6.753624503055995,-6.673043048426729,-9.146181657158234,-4.091953495331577,0.3922467113798813,-5.148140073682395,-7.049284791389169,-2.195856140332655,-2.019104622660546,-0.2431573135199967,7.569779656113651,8.738759637291762,4.206646652087639,3.044140037824512,0.7432760836572587,-4.896773318153903,-11.598966747982427,-19.374553406164445,-19.73689596476922,-11.845772663980057,-11.291300564442118,-16.504264266729976,-13.535123035359298,-8.806557027754646,-11.091709458578062,-12.991540160614624,-9.285958952398905,1.1152613937142402,18.082381390891143,25.89817202779956,10.733274425630444,-10.087838667157044,-19.55975680450191,-30.586561698244555,-43.96721643075941,-43.24280653334492,-41.31164259947094,-46.55900241858542,-42.334273366137936,-50.111684756146495,-79.13953605124414,-51.88523293203175,92.2542483783441,305.95871642738115,420.24640660553274,233.80244256067826,-137.3325949418448,-273.0765464791201,-118.145974579267,-34.1995128719296,-85.47921764563728,-67.75376130302165,-17.747918679995692,-31.169536860222706,-35.84803668601759,-19.190180362797925,-24.85153156406688,-19.44081069972428,-3.298982235137178,-11.484173909618455,-17.036223493242915,-5.3283379722711,-2.546783822188413,-3.2712339456181034,4.079501654591848,5.003777204790083,-0.3410845274104073,0.7072439811461981,4.337533301270985,6.367903991157382,10.449149185081165,10.123605703976544,-0.17045838348156117,-7.808026796025886,-3.3184588219419697,4.900077360846627,8.330377362241371,6.976431473049455,4.801213563446403,3.612733405435966,-3.6487629674960615,-16.49954811330952,-18.503350928662,-11.075028638954809,-12.748818329976048,-17.741734315813165,-11.349013651986967,-1.5289634172949782,3.21233827311214,4.264555120903318,0.7388243703839477,-2.2239554444580127,-0.22182342844372105,-1.070325631595896,-4.215866078691342,-2.2409252941531275,-2.106638214281988,-7.040385683227468,-6.530609585464339,-1.5088247586738213,1.02366136725351,4.098913650571253,1.99650250738941,-12.610280479929338,-20.51677133217636,-8.93718361712508,0.7551326062245423,0.19557242288892773,3.3984248433776134,2.1748861645756,-11.711556529275885,-16.579179632255762,-6.146912935190258,-1.1474376059944866,-6.881214298143465,-13.744318297745076,-14.687949098070831,-7.636487560259583,-4.972467985014472,-12.961478284430445,-10.851758887061965,5.844871218997367,8.76023773673657,-9.052528028601344,-25.87087544211576,-34.52643288808931,-39.65305716113109,-41.04168838902682,-46.42989807832112,-58.164896906227106,-57.568053322019246,-49.105037800300046,-61.66405263589915,-71.12451314718703,-10.999557666252443,147.44858686628584,350.5673154844164,405.6671545851732,142.55479505727834,-212.75272996486945,-258.131989608679,-72.32718436795369,-16.621751606284874,-75.22308804179167,-58.81795333107907,-24.160808142858308,-36.248321975618715,-27.78861680914845,-7.358093536853648,-15.418474691805216,-16.262303030680954,0.1618001231733377,5.745275952989097,3.081773591273951,-0.26880759073366,-4.070522342455976,-1.7465251948549145,1.4213838022789242,1.047548755305654,7.212606177684273,14.167912501819481,7.192538995608943,-1.6387608114737782,3.1520355485376075,9.090983881414592,6.115356754920579,3.872030329326663,2.312042841691275,-3.3668252242337497,-0.5373454256481682,13.312453415026244,18.545586204708894,10.43947439957858,1.971290814808924,-4.231991433226899,-11.646896397859859,-15.44263746680259,-10.194092560577273,-5.238970750918838,-16.188033770789886,-31.23789038829588,-23.75569027257006,-5.136804307515192,-1.1306120091133618,-1.0529323958405552,4.404097036798259,0.8174404741253838,-6.170945543306425,-2.7526400333110885,4.224077664885153,11.817706916785625,12.543788962547943,-11.431423548208894,-36.7473094359918,-27.56006805547625,-9.17147483955874,-12.850215373337333,-17.06265216774606,-10.603957445784292,-12.412567514221564,-17.13697473399194,-9.992139083937081,-2.3918336019834285,-4.490602955611305,-8.896957158870332,-9.33697258722233,-5.025661149972343,0.28974042486589013,0.5299013522004916,0.342829422353109,9.523173505377486,22.68874993829369,23.022217430686005,4.934369732170693,-17.178878951123576,-28.716598223589454,-34.51221536762842,-44.73985192180821,-57.36076851393022,-63.83029929598779,-60.31837432509638,-58.94659537687549,-70.78918873509441,-63.05035279764945,30.053298767734788,230.394241165091,412.57625854340233,331.6735342674382,-27.99620457666861,-280.7143551627014,-189.30029134904052,-33.31903339169121,-46.64768940024231,-75.98357816570346,-31.185487653774633,-18.054989932833244,-32.38012394641958,-13.564090991446507,2.1324307946686005,-4.283569678104875,-5.694921519164515,-5.732813917451409,-10.041253190559221,-8.806607635459772,-4.395846860317545,-0.7722635731445724,3.2757240058776,7.289223274702157,11.163121288606913,13.465850215485627,14.667572008624763,14.127475591977948,5.942988672958883,-1.6083589479701805,3.8713060761415123,6.098794614586729,-6.570753603430532,-11.018388564871199,0.19505055075061062,7.905929040748859,11.958166137230723,12.654615069946075,-5.767276464237593,-27.59871608654224,-25.29265681206206,-16.048314013342754,-17.467721156045315,-14.57981244067988,-11.36810857309538,-20.50176314351671,-22.05798453528922,-9.44319791984783,-7.357332762571591,-15.212751216339527,-13.693508371925834,-7.986473717108222,-7.230342563841742,-4.114877311581678,3.2511303649265155,5.75267615215926,-0.6311077245683485,-7.998566245196688,-6.013629023041237,1.0535993332139686,1.8549248609316509,0.9447289526527545,4.620659598595957,2.033052163948991,-9.020940381458281,-13.69094421562534,-10.253060771593837,-7.013356920444076,-4.467393113968065,-6.642131582497239,-14.38547256503891,-14.166152570633255,-6.58879276466315,-6.724340257121909,-9.320405691071576,-4.423011826659991,-1.177174549370422,0.16627944969833353,14.371398591560805,34.6423228010656,31.87018672407868,0.06373952771821934,-27.987407732236704,-31.949174215158287,-31.540657181079865,-36.62583460838108,-38.11840769070386,-45.19053076123792,-57.79812761932443,-63.990857844966115,-76.17854094365794,-74.74759318333639,1.3169472417073464,162.78789399570496,346.64960769228867,389.40833617291,140.94114582429822,-190.33741514328867,-227.13664688873368,-59.98246888573791,-31.350569674180207,-95.01287279368097,-69.96683311525669,-33.065894351359,-41.74712730178145,-26.891105414886432,-4.970764643315633,-12.58353902678865,-18.29792569068104,-15.21710688523337,-13.114143410021718,-5.25408032499266,-3.8361934383501968,-14.070799435692457,-17.001026176263455,-10.949022962163184,-6.550424838674536,-1.795494777666553,5.220057648559672,8.760596144532432,7.203055261074547,5.820758628014456,5.979073966864291,3.188256794613344,-0.1833199685865159,0.8844195084295112,1.0399234653926923,-1.4451599114531986,0.3815954911123516,1.436451590300341,-4.466042409148118,-6.959296216813111,-5.6930888662461445,-12.362276040557916,-18.77112450430596,-15.274825619587283,-11.421264392227698,-7.252487580526176,1.864140892972256,4.651915107760365,1.642642884656814,3.7820034976880557,4.032423735980135,1.4047916177136188,5.260624022084651,3.1403047015998657,-10.548728346421798,-13.631022837267562,-5.5555164475136625,-6.341085205407112,-9.511443269608888,-2.6605172145726907,3.3351005188711174,1.4280766873449764,-0.9070449032133583,0.5105585619509387,5.95867025905708,10.172004295191288,2.502836783182353,-11.855802986460551,-17.648473237349208,-18.275986728584964,-19.93107533267839,-13.689960331893655,-4.624605978638954,-8.118765294781522,-13.739638538141584,-8.296448004343038,-3.049914318850208,-3.0008977224847104,-1.3503380730969745,-1.9190266093666288,-3.8878179347717623,1.3977611921317536,10.707985907293388,24.461935104372152,43.899287193743234,40.36296904239768,0.2401436526485643,-30.672439133685643,-27.254071626843007,-27.44326160822239,-43.01519424172275,-52.554730237445284,-69.74826925094699,-91.50111548752267,-83.04078035088526,-71.67084652721587,-81.7629911673859,-43.143280716246274,96.17107550040191,298.0529646469501,422.4184156513672,261.744231888387,-105.57867656020423,-258.4419612823844,-113.66958325745962,-35.57821741683571,-95.79331754707758,-77.25127141020654,-22.385900089868997,-40.5040423027576,-43.376261307384,-10.83243041794093,-10.703464208627398,-14.914033079862484,-1.0513165226462569,-0.5527373310672985,-5.597352960159251,-5.223253845072836,-8.480785311426315,-5.3104512238977915,2.638609484443964,1.3045822920368533,0.6250954785669318,5.729108138142484,6.82915437179004,8.522085093719696,12.902451354394657,9.397220341491238,3.405705748882092,6.989609840393919,12.13826917746588,7.449363586968227,-2.921047467276467,-9.910621798925781,-10.282275179063696,-8.12299977380453,-9.569231610846535,-12.719839827067492,-13.225523670400854,-14.892537064164745,-18.32776796149121,-15.795168136616105,-8.264073793536832,-3.855188300813202,-1.9971986603706977,0.21476594215539002,1.3031152227242888,2.685438991985718,4.369219997975376,2.997567842418583,2.3022002938256865,4.458873590857045,3.1460436188427408,3.431734361861003,13.439723146781315,15.430290045270015,-5.176268262663179,-25.983428288104108,-27.630933949211865,-21.28129247007032,-15.511700989371317,-10.197261052437486,-12.099224040041168,-16.849120897481296,-12.035437481136917,-4.894910250304083,-4.062534012509131,-2.1427337242453177,-1.6608960305113225,-9.665939562754954,-13.426882387998926,-5.3788261041707575,2.8750909138733967,6.504443872066021,4.118572594140206,-8.668947603861316,-17.305489164327927,-8.08476759998772,1.3361917854635923,-2.916286179313154,-9.556161312414172,-13.217365480638204,-14.494380081819891,-6.411230199942967,8.414646816642843,16.87609755469272,9.623275661920013,-12.405056619721567,-32.17696805916796,-38.42951811542752,-39.81715175436017,-38.205951872222485,-37.33826324062868,-50.195658266286316,-61.254542508230415,-59.12070254886337,-63.78981980872977,-48.03504264333864,58.23556084640887,259.49014073925315,419.6182717295875,310.00870437834067,-56.57593286727395,-277.0213079247662,-157.15177077923872,-29.60344273941405,-79.04466858966319,-91.8729328442472,-25.76177552375278,-23.36988074113961,-40.73955281583011,-12.42809004146321,-1.5489505835795754,-14.977064271362986,-12.982410250886442,-6.914853166425344,-2.1824813920041493,5.109607010100595,1.8542673070600895,-5.119933537052914,-1.0871962763991245,7.756609086545394,12.63167020846659,12.700305236445052,12.091264290614362,12.439620721982823,8.058117810066621,3.2410128473580837,7.802498324301766,14.69992135179762,15.00756001482918,8.434098036806231,-4.921355553722535,-12.561269211679166,-4.753463554057065,1.3968929632223759,-2.1091701047963785,-5.872160088137232,-17.77431720119617,-33.85230984665487,-29.383035260382677,-16.629149716690023,-17.633486443693773,-14.249070560594152,-2.419735756354042,-3.233666617518404,-7.245091487746965,-1.4281445625601759,2.6110985633165296,5.300893050312119,8.135642791181644,-1.7975344555771127,-14.40712043474989,-12.081725898134026,-6.62691707976332,-6.735691768945575,-3.5633541604599657,-0.7215231976312051,-4.608776417754665,-7.1196968040792115,-3.413059508449817,2.1072923867917233,3.9217586165620872,-3.3202772382277956,-15.536548450489892,-19.920150181295075,-16.28656735749385,-13.843007708156101,-9.164865160558863,0.9758601792675314,3.474663607416691,-3.4963907121166997,-2.7937859177852697,3.3672045457588844,-1.083045258971227,-8.260592368678342,-8.318770674677278,-13.487005616891778,-22.99615686528072,-19.093116485294935,-3.5231765979384004,11.229946738849183,19.981792839469204,13.437763275607388,-7.978487761244166,-24.14028826713588,-30.048438497698736,-36.303044827038015,-40.37962915561949,-45.900359663377166,-59.870558730821585,-61.52695705984469,-51.198173911108285,-62.53446851365716,-67.0876602980778,15.052969695977794,206.33712492148118,405.8392056290729,385.626665715939,61.32297723051234,-233.37317978058903,-196.42252069766212,-52.4096651748869,-62.681642621249615,-89.15192958453848,-34.94286602470275,-17.667697888732143,-34.581353796608084,-22.249577050082493,-22.70132180055113,-36.83215823865333,-22.702266139763903,-6.883662159530738,-10.783336912899642,-15.193962442960876,-14.896110099952399,-8.249364337211215,3.1517936525713086,4.955364509186167,1.9122911920326278,5.508866988600081,7.263923837185566,6.612512626274363,13.988781731669603,21.234247399715322,17.605122393593057,12.519004847851672,12.262641886651291,7.011855923596356,-4.294654237451645,-9.112417934448446,-5.988491404995777,-5.3129638007792135,-9.430261584855778,-13.473532380457812,-15.589837382557558,-16.04866801632946,-15.965118917836751,-15.076906061715967,-9.677739377196527,-1.2212879336786493,2.1704943029376818,-1.7420898889236192,-7.760660776767363,-11.233451704679094,-10.59578922000436,-8.193409738350608,-6.925115507857701,-6.318514228137849,-6.250496658007833,-6.11432027837354,-3.8935350856021866,-3.0089269026525276,-5.638312563329423,-6.130505746563951,-4.920491456567635,-6.168996737840999,-5.067240488234667,-2.1956865175853686,-4.105483331420652,-4.29219154970537,0.7482834010387664,1.3106529188787919,0.603559336959802,5.714749288641947,4.472805314752211,-6.09053318303595,-9.135248139308674,-4.560731523031915,-5.333041836710233,-7.902826254123898,-5.567510701553008,-3.4749793611633795,-5.848728700503258,-12.206385997221513,-15.423419548445366,-4.239547605481967,10.498564989233515,7.947584040881313,-0.25996042281127174,-0.42325307898379805,-8.231797495131357,-21.225179925535052,-25.19510234718756,-36.99285094520491,-57.786330062028675,-64.50197047806219,-63.132201362364185,-60.348786514118586,-55.87474767790109,-68.74684485829121,-66.93477963255995,31.59116709274926,236.4839172502948,421.8294564944529,362.4967586369478,12.317907184153007,-266.6905350162172,-197.54015455909024,-48.016809195980635,-69.77882871642818,-93.20689517404222,-34.83934236887718,-27.679244255952966,-44.990424514070696,-16.431867399626363,-8.729880407352873,-25.013105983522586,-10.518731807812705,1.1392692927542818,-11.380771724317462,-11.69574655081616,-1.8655310447806066,-0.45063329148926456,1.0527731432382588,2.7902452225198875,-0.6349264417169191,-0.6017140767220504,5.395336299879766,10.175547514011821,11.261856564907289,9.297000308889618,5.91093850299386,3.491820138653326,2.013270712509499,2.767788508640528,7.155015391348936,9.571266726025293,5.439051285369347,0.23137767289377908,-0.8191401878025486,-1.237595584846762,-5.072161194846375,-11.045652146897018,-17.15690705529425,-19.247025988849472,-11.1679021724269,-1.5136617001078534,-6.640273453729391,-16.30111149223096,-11.37085955070726,-3.9138806157021575,-5.053352049080668,-0.734607203239074,5.949868202007954,3.3991626012177383,6.150074111805072,11.353957152888166,-3.877293479064676,-18.46464776840393,-6.906053811233642,4.869793156676526,4.839879334565244,9.504486608334684,4.577443027350856,-15.081719663509249,-18.62568994230157,-9.286622207591819,-10.954314276998637,-15.163911144028354,-19.223066508497375,-28.75722659513194,-26.194721063147547,-13.650170002246231,-12.334191673903288,-11.850613280374533,-3.9434778441216167,-3.629488613649002,-7.126754719431748,-7.9213299679721985,-14.939759438517854,-20.026376118458785,-14.283420807957237,-8.802606793018924,-2.1139715383590136,12.862512001427152,20.546612752069937,8.527380568993467,-11.173556663965517,-24.260451861713577,-32.3632456806529,-41.77324596045932,-50.43093648029706,-55.97041240192614,-56.5787176696586,-53.851905037339215,-65.9314960169398,-83.68025261303805,-40.68348335353001,112.67808791146486,336.22683078294193,450.7341181952494,245.78560185148285,-138.07740332282938,-266.3196595359866,-106.47375324268097,-32.12047667396844,-89.18010868019935,-67.51730704168764,-19.40117813819019,-38.58713165965559,-36.44068221412951,-7.740197776807191,-13.830798219412422,-16.093963479536164,-3.7415792438762807,-12.880184257389578,-17.514622013030888,-2.5933452865249027,3.3477991988541795,2.918014617652495,5.293085406967602,3.195905279284114,5.76351617023264,16.35202525714181,23.502065339141616,26.64917919390131,19.480145932859507,-2.321378385076347,-12.391158433949107,1.2188668947074919,11.433853494753844,9.993655928616175,13.652128138535346,15.496300827724493,-0.18873055629330793,-20.24391483117087,-24.334641234532807,-18.129470970908983,-20.508611455940827,-30.759956323955294,-29.731022003461725,-15.604810736343403,-8.536188809899144,-11.844626251554239,-10.310191800417336,-6.270501769980795,-8.88545920441017,-8.142477801775943,-0.21297240423452202,3.6080957526260065,6.13098851485552,9.936354968648512,0.8941414428251164,-13.434486476874543,-9.3068941656398,1.7011425488031673,-2.5279810231810593,-9.914645226031022,-9.322663082547445,-12.683338081981212,-18.90636868986256,-16.37147895371757,-11.373142587608257,-11.569558479978642,-11.98513013155284,-11.185005131402004,-9.90348325792273,-5.908734897859066,-3.233241875195869,-3.7864104753122305,-2.201103021503263,-0.7912275832951536,-2.98972186627835,-3.839307262468827,-5.066822821884827,-11.189606321193759,-16.341825248261483,-16.378753862442387,-11.951895192536686,-2.205055988408496,9.883841505459824,19.451869669040512,17.6625533254216,-3.1664110891123283,-25.11282501718098,-31.166668368294268,-37.43716327236727,-47.24823231897106,-46.49834315178117,-47.06702710556579,-54.71752444222659,-60.01816682818112,-68.74293598970293,-53.93063188200644,50.41093035703122,255.2919615221289,430.5164888507059,341.9366096251149,-16.94812146717358,-254.53381817748524,-154.00085785818803,-23.502178548275026,-65.39622182478288,-90.50497291225764,-41.533061957901545,-38.22502484194786,-44.19220789256817,-11.5543247411142,-5.451534334974447,-26.534320720561848,-30.467419567358164,-25.99276524162873,-19.62780547064628,-9.44208249154267,-7.061471807967536,-8.18386569411648,-6.238223389950324,-4.914033339839172,0.031058690185328253,8.131384421427041,12.126689309215614,12.739744542806827,9.966065979524922,5.737177577698497,7.148220424088805,10.323063121854318,10.165142742254288,10.029666309293482,7.40725125928631,4.687766767984336,9.864037661201808,10.143219800597466,-2.864823091875829,-10.82878085524677,-12.828407240136215,-22.37112376159907,-25.45913112947997,-14.29801003755423,-8.71279227052035,-11.05212510560954,-11.358441090826668,-14.692313412773611,-16.90670242302151,-9.368736280826965,-3.9759023892359977,-4.764399865846345,-0.6125594976698299,2.33376341739865,-3.0160779876441275,-3.7352346735978568,3.7809500351109406,8.078983269081709,6.494685573846188,1.6337445538937363,-4.382620012238219,-6.0252055732990435,-5.074378067155534,-8.202371682209456,-11.224558753328772,-9.4524212366616,-8.122981879462735,-8.332010369220894,-5.58742877043178,-1.13637705402817,2.3738244596101854,3.1588442115223874,-3.302289200498066,-11.484235949129632,-7.796709106926421,1.1294721844144942,-0.9046722727620224,-7.295388688966401,-11.637679459474594,-23.653458191445523,-30.601550887440858,-10.628525197964096,15.804127612101546,16.00516533224046,-4.805610271822147,-22.320324194093057,-27.108238734942034,-28.956116246127234,-34.976690924894214,-37.33080572844848,-38.46820794483389,-49.39609399497687,-64.15128811358773,-77.5446539174884,-79.99664445543661,-24.95282327716241,133.41404322574257,346.72161205392337,410.49974164191786,156.2958431358372,-190.35549566980978,-237.9324200496919,-68.49914386070024,-31.165972687140837,-89.00991636110554,-54.69163023768536,-14.164838585502054,-35.262828872168285,-26.83735504849944,-1.338856719346591,-14.180027609291201,-20.085434424136224,-5.71368704583224,-7.968877156528119,-12.51102571456067,-3.000005826714334,0.6179019179510838,-3.862164607405308,-3.4891690178318786,0.014574962782569756,2.311028129290386,6.298018254104987,12.760833196327042,14.189188466482817,6.089169312418024,-0.2921825198621151,3.5326735155060103,7.3126434350775495,5.695007094410492,6.358524803689075,7.929673527580562,5.763198761176573,5.199717578587603,7.277453939827656,8.130953379221546,8.700883281704684,3.7468898336537535,-12.76684228296509,-27.573152048285934,-25.238049116156894,-13.71741898034798,-10.182541169182048,-15.745726427466822,-16.99592969839797,-8.724637795599573,-1.3193876457790967,1.7490484432755888,6.6702508821052415,5.086231842812326,-9.94463642279091,-18.809030407903865,-10.342658483232455,-1.2437908484181186,1.307097073785913,0.774362327103784,-9.765014153176258,-22.994457723906045,-18.581613456989768,-5.06210090133245,-2.877629773850007,-5.794759254341056,-5.517004565446928,-10.780753509942581,-18.30585243030601,-12.97698407839517,-0.19144556557079184,0.3159116635636252,-12.906746996152625,-21.36417778283832,-15.323262560926766,-7.0541330781364024,-7.53857131978579,-9.826122369699519,-9.07596869632084,-8.28127107771398,1.1015673450504755,20.42624439192732,23.158197198024453,0.871096075503786,-17.935488651027825,-27.06350614186753,-42.48998709376275,-50.90799102119223,-45.591976025654134,-49.345704666000756,-55.52870941799438,-54.226697044005036,-69.56787652029774,-73.27032754973617,12.4894768753651,202.2122385464408,398.5136086402549,385.17820611889374,58.90195999649186,-257.2598235064863,-218.77279913275567,-41.04537517460376,-38.89466199921206,-79.80810151467355,-29.752064973123357,-13.185736768087708,-34.51743097035953,-10.794163168946383,0.7407784804218025,-20.610424826291673,-14.590707289636427,-3.344959038446886,-15.910086018759474,-17.048598903484105,-4.600449495035237,-2.572417797604867,-3.234211332071874,1.86433561130512,5.451609938506766,4.050980895839369,2.6755876423085336,7.974172705344547,13.966301029428788,10.556421108928225,4.506228430820525,2.988479832972341,2.2681053793804926,5.401774354649992,13.36150118236194,15.114599895614289,10.757729713649983,9.403474121908836,6.766231514101702,-0.3423799493742852,-1.969527068305494,-0.8984890027934629,-12.983398998579935,-29.733550578648337,-28.04275169264185,-16.741824857445206,-16.554738446074577,-16.533409777213006,-7.43596603067137,-5.509659816089229,-8.990817642437559,-2.6365866482265954,4.961343238354585,6.407768812837048,5.91036891191464,-4.735295428893146,-20.068636738560926,-16.958522703253642,-4.598808933926307,-5.758690330606463,-11.343128837068061,-10.41901017738212,-9.924843540942028,-9.33573020647769,-5.014891687028527,-0.5859803761185773,2.9106314357486607,2.903575796473497,-3.276946360298794,-8.185244248330253,-8.041835717997898,-9.290597348159709,-13.297999380943569,-16.15034304010002,-14.160714162685572,-2.634161119288647,15.637570268833105,28.24224646867202,25.419015045152495,5.990384725195884,-23.156838464479087,-48.88326305233382,-57.861794541576046,-51.18284614702492,-49.72067713276586,-59.91072513108355,-63.72297323936518,-66.94170537494777,-77.46002501585657,-45.95328291311979,80.50464340576485,280.8031115315104,411.5553151815743,262.2430858718236,-102.82014975765598,-273.767637500795,-127.31209978593445,-15.101912978724947,-68.10298273314851,-73.76099159908674,-20.498312274924018,-27.025676845622733,-35.97142492621097,-8.838798757875763,-6.12564186499133,-14.67906648368016,-4.705424813359643,-0.22374561651578873,-1.8725273994626992,-0.7611259990427754,-4.06631780037555,-1.5870364391492098,6.420505443199449,2.457648470707703,-4.35519428741379,-0.6848410724237999,4.225980049727436,6.541320860740772,9.908093284886709,12.025829768730027,12.688277594634425,11.089413443148382,9.170978010269852,15.773764521459636,19.522196865114985,2.185507941646666,-16.00737066896817,-14.752801126645304,-14.08652296832787,-20.927126511985016,-18.33546283361284,-13.918988911977415,-17.417388752245245,-16.504059945152935,-10.717780101100256,-5.520526770782462,4.167021949881394,9.056233727617967,0.07864859123121803,-6.056260168267648,0.5483966306593517,10.093445469618715,15.749541086680063,11.901434459021395,-1.075744848259788,-11.034504567065,-19.364373248785522,-31.925594162108528,-32.81791900851816,-19.584803572886358,-16.170530070107905,-22.42919188047739,-19.820964393379153,-13.647544387828171,-11.907084436985734,-7.611307741009185,-3.980868992027892,-7.5996445123653125,-11.033788158020723,-9.735312656452265,-6.197724973685418,-0.3570683774068737,4.021481361233927,5.249797890158149,12.830730482616843,26.11727387709581,25.246820571789097,3.566544942432042,-19.924395412545636,-34.478318761123894,-46.09352659478495,-51.591039279241826,-50.30691123204153,-52.750129837846984,-52.35343918757717,-50.080676237577556,-66.34495717223142,-71.24303386866819,2.22661772461322,180.08520811028524,391.6787821343519,404.85914873834554,76.57504655205013,-259.69683749772935,-223.28888706810795,-37.586682590914705,-41.682931893227384,-94.68047246820726,-49.1885537584005,-36.92655640456149,-64.66115428429545,-35.478955596364024,-5.71067809557044,-17.80825681235761,-17.27180571488412,-6.146977646399554,-10.453550475520228,-9.768175545491701,0.37667586607311776,2.2220015878262895,-2.5865348106272386,-2.9357262153187227,4.110740380021472,12.218571525560785,14.955411916203447,15.615058396799228,16.916656428294296,14.68167343805817,10.23955015688955,9.526248617473605,10.424859494966661,5.481784301303242,-6.315482749442394,-16.959185784443214,-18.114362845819198,-12.011451731163369,-9.96958314802938,-16.265356083378094,-22.00329245579637,-21.334939078271717,-18.58475477288306,-15.18990592753821,-10.136441454368796,-7.566631196691436,-6.529915505115845,-2.5865084570236743,-1.284990029984737,-4.272497893576894,-2.1288342610858795,3.0557942175656523,2.3023132571102005,1.0221496396230494,4.450986389073446,5.49398983166584,1.3491079874967618,-2.198549613033445,-0.4786213492903757,5.663281765964086,8.429336891408218,3.532156416137143,-2.1491566415709116,-7.226327465150911,-17.423916612023667,-23.997477751529225,-17.08312266275783,-10.87997651712409,-17.262572254679306,-21.875353919280705,-15.232071935237627,-7.124547421740348,3.355457636675818,23.891993417499037,35.79078850869031,17.423125517434997,-12.132564113404364,-23.364915652041276,-20.263250791297978,-19.638960495478052,-31.365240929903212,-55.48410995133472,-67.17996846791397,-56.87193976839228,-59.26844312614456,-71.8719685512351,-31.469326349076645,110.42804803301084,327.42941982755195,423.7493634498709,180.0702610737577,-198.0276692327474,-266.2505062788756,-82.83168784800188,-28.802491622548636,-86.79218921689764,-60.4738569496118,-19.655400522092755,-32.24528318754475,-30.194086934658753,-24.12114887733064,-35.068408230325666,-20.724904524497603,-0.04918081042954725,-6.590629407007334,-12.36495526119269,-7.898914508771565,-7.302483501360122,-4.275267628930079,0.3951437957300481,2.4574336437478914,9.01285437720293,13.377421517915689,7.344037394181406,2.1142059210885895,4.165627078987995,6.677001243610686,5.707397512467686,2.145443915044716,0.8224760142459211,6.534209899678685,13.456149099896361,13.223060877231614,8.066198977554649,2.780969373190903,-2.2988568495295363,-7.153265341684878,-13.651502308219102,-23.034016210196377,-27.87596929120733,-22.63598029028382,-15.675312013446474,-13.733214221262005,-10.669757992982301,-3.8412392581584456,0.4334640260153595,0.34589355821712964,-1.976474956840601,-3.384708748162362,3.078824455446365,11.67740305910048,5.8765697179500656,-4.819971795906187,-0.6194449651502141,4.21558758380627,-3.066038363445274,-3.2961702166574867,5.327813894342887,5.395733781704118,0.9168144382333541,-5.420132316839151,-17.480292409616105,-17.58004169242173,-1.4449073978663494,12.102435195883219,26.92728374674065,40.4212259898598,22.201021929866236,-17.331302242877946,-37.14624343648945,-40.010481784874486,-45.550069662378036,-50.597428771128634,-54.24997210216449,-56.07946227810549,-55.503546263218425,-68.30907609019893,-85.08279053430213,-55.52518641727706,64.52697310731297,273.3786633582501,420.9091870281005,261.11370997504855,-122.49697310566218,-287.1526551169552,-130.1359830162433,-15.897803032443171,-60.866165048649364,-58.83881723773888,-7.087847295995701,-16.983498771913418,-29.9577494563535,-9.199474898335312,-12.385040289048561,-23.43965275782253,-10.394041256551212,-2.6127173641169126,-4.094482200039927,1.0070798065416238,0.7031917687390496,-3.8472949321146537,-0.8105870206204155,0.4121226538575966,-1.74872399462655,2.193111604448225,4.268272221280261,-0.1202594830313144,0.45197974325541734,5.798719201747258,8.278428437639498,8.582901035841719,4.875968952075279,-0.9788560848678021,0.7016989559012945,5.146493880047554,3.0275336786869076,-0.8779210950070464,-7.29610627842883,-19.213100786600098,-24.440786610434024,-20.20377665653345,-17.157753691366295,-13.420104667375051,-7.926698567226648,-8.294973421127636,-8.218300008015536,-0.35410836160669135,7.874520989629296,14.242443376392659,17.10871390004807,5.81546321046005,-9.381843108969631,-4.294446454984267,11.750211797072668,13.052278314413725,2.958226546682969,-6.419359978999351,-17.209273053826294,-22.256841459436608,-11.89403836810641,-3.4557245949042397,-15.167724627352133,-32.669757339348315,-34.8288758993567,-24.3887251829586,-15.707320375898028,-11.969674771402328,-5.884093952562505,4.876408151468723,14.927598662853416,16.963916733499467,4.675961562145609,-15.728723318785793,-28.838308289377608,-33.82442750158642,-38.67030229759681,-44.12289937162905,-49.31490032361875,-51.68599446871151,-55.264411795698685,-67.38838532671417,-60.61143763577255,18.75229512320351,200.76425424380147,407.92820002341716,395.3133578210992,54.3287691887771,-257.13167332138346,-208.9879044336571,-47.98795765315099,-62.30801415095757,-99.63348500756246,-44.30771855273473,-23.071973103234235,-42.79359159290571,-27.353332911412952,-10.561148695849575,-11.794581001537313,-4.071558495844105,1.042999439902193,0.1054583419048285,5.664590950226699,5.936099215772298,0.7180462415851627,3.5219982002039005,8.175601265035873,8.769709629514036,9.654572194558831,7.9941463778560315,1.8896187725773679,-2.310956248115926,-1.7405532589535477,0.8566763276816589,1.9955434898529356,-0.7840785986750332,-3.791523203417821,-0.8546132246767009,3.1939792325437644,0.0914117187210639,-5.9986685762364225,-10.574658096224004,-16.446858070932496,-19.725686859114557,-16.876276330524817,-12.737229880867918,-5.945993530591245,1.2553806637527423,-3.7480971844403754,-12.685095887317607,-6.687106718398767,5.377936463041558,8.659780799524977,4.0021774330099245,-7.489288820882855,-16.476034323182354,-11.345011918689485,-3.584331928011723,-1.3886647254748858,2.16945683354343,-3.3807043525091807,-21.682248661576377,-26.025856737329576,-11.890703109293582,-4.295975873185158,-7.255775640412782,-10.410954535473454,-12.961752334120218,-11.974901824358923,-5.895537337907925,-2.246242912585643,-3.9934447991161797,-6.1022403215935235,0.2031868537279644,16.518016315505843,21.03589021229032,-0.41346790490393737,-22.717369938002875,-30.092325759079387,-38.215070340918494,-46.79021559156713,-49.72005496383915,-55.49007403560997,-57.24297218363236,-57.97787127058993,-74.8584719791621,-69.02465701405981,29.583733160319937,238.31746686911697,439.9332525849499,370.06034784719276,-12.193387984438985,-276.97037032294634,-166.646222563094,-19.439365176225618,-62.40043339050874,-84.10402375438035,-24.606726693538832,-25.513892710088967,-45.30228467942276,-17.388419920243955,-4.6227106955346,-11.157475023321119,-3.32231672310753,-6.755029713114167,-17.60155540231848,-8.799500148223837,0.18493929679741328,-2.308624102411395,0.12249650986596006,4.432498340857842,5.872230223278772,14.701830944906593,20.987208799874267,9.278044068678307,-2.9005542359335195,-0.5855102047672829,1.7187389270156348,2.301339697095183,10.960570955183695,14.413676218920504,9.176717006166346,12.247003528082132,11.286551954627257,-10.36155573533825,-27.316810994374283,-24.681859206990634,-22.723040041281806,-22.611119732453762,-14.545207025600423,-12.932366014252946,-21.965562576975067,-22.892602464610373,-11.787338059027917,-0.4686046315822061,1.8271101047011378,-7.547069191147791,-16.55014297814755,-13.860566104716174,-9.793421425452905,-10.390919823016159,-6.073970638601931,-1.7425591681547594,-6.290697327588383,-8.053271314105785,-3.3831525283522517,-5.806586767615933,-11.063966886390078,-7.20682243502945,-4.362632054907369,-9.581907035084,-10.384590897431902,-5.706438831620302,-6.132415551890821,-8.507230577116395,-8.755205962803466,-11.071928835733296,-8.861033011937636,5.875646936733923,23.217480041578483,28.249298655901,14.763670411374356,-9.243343664856376,-25.81872166995926,-31.52999758093382,-34.38133411266667,-35.740779611822674,-43.66273236307781,-60.05005565262009,-67.59010723832688,-70.91865706418179,-77.66175064748319,-40.847188034629944,102.5899806232338,333.73893413831405,455.3979027874474,237.49101781738665,-149.13178782180768,-253.327878048865,-83.65837230599305,-31.478068929631128,-108.07386346375998,-83.47675679072879,-22.536118416501758,-34.524788106520276,-32.855940307614595,-1.7707379682251876,-4.513176222217364,-12.436818107102026,-1.144062290111405,1.51526914163615,1.7889764533207053,9.1647567660781,3.389491279985968,-12.029834554733057,-13.96133782316169,-4.694614096881514,1.3069642638779362,4.818766386751455,7.4216384759216005,3.4889277161342704,0.2640894765560722,6.351447363162932,9.999216106848193,6.770316062647849,7.925803081551124,6.909908159064106,-2.7636680505903968,-3.0418577920819097,5.7448004187166894,1.2987041420654126,-10.029992503782493,-13.716719824530562,-21.800793508346786,-34.20316268020808,-32.45311861470831,-21.990094876757908,-16.910348483703707,-13.633405836412482,-10.50684885023517,-7.701552477711296,0.5745170765360168,5.963442682077666,-1.6898422370544974,-8.621970506030674,-3.7288831615500246,2.620668919123239,3.51296541976863,1.7107537984774144,-1.6845233827957955,-4.218413031993938,-4.542015125839834,-6.544853956177569,-11.354453025095369,-15.446130721169801,-14.400144292995346,-7.289190173473612,-1.9647207102753832,-3.4552599540946467,-5.953530733108298,-8.362002749183025,-9.54846436404931,2.8460360887119505,24.76565699597095,31.052297170962525,13.998897491561374,-11.881551841637988,-30.75031751301856,-34.53027021036019,-32.42522016596554,-39.739240158069386,-53.75242263628872,-60.976003824187984,-58.58832697519471,-59.68789034714045,-69.33356150794215,-54.83247747070618,40.80305079319254,245.1260210615432,441.55093982202783,360.36530908517193,-29.333715718532076,-298.699990044897,-190.07117201295299,-27.729049816693063,-53.955744199951084,-78.69862676158195,-20.3529283941943,-7.322540912433475,-25.181747966586745,-15.851952514605943,-17.22776752431892,-21.06443127535381,-0.3216606039560137,14.115357645512669,11.154346626616482,-0.5483718914150764,-18.87552600391292,-20.60249758517595,-4.487947243281376,1.6161242329266408,0.7402946331703326,1.7075428612389603,-3.4293145877198405,-4.511168443996419,4.011994051918749,7.623035870518914,7.149401456580458,5.909993550866359,-0.8734748023141838,-0.37145518014566425,11.43117023320384,14.760828829465039,10.602947010472196,10.372996986740404,3.4313928382278895,-9.896851345222288,-13.888239073283941,-14.61072724308562,-20.994040771333793,-23.82414968179595,-22.547754578040465,-23.45956849893666,-19.78469685148862,-9.346087099478593,-2.876943285792816,-1.7360784126488262,2.888796191702795,8.80675931772036,5.022513572328853,-5.569165315535633,-9.527439215969231,-7.903933302426566,-9.911154994360805,-12.341269457983493,-11.184261323739314,-10.434098503525126,-9.773709840134698,-8.514929193110476,-9.598254894415653,-10.103293734113134,-8.794585869102539,-9.854308403404966,-10.459731040626991,-7.8939420117305446,-4.680907791977157,3.5330686628649204,17.674057135157863,24.175549605177274,13.11059631064256,-8.888567556147487,-25.154859299337865,-28.772153848912257,-32.01332618013144,-40.72547566136937,-48.12428720648191,-53.424756561142985,-51.640419888782446,-47.303563133880715,-62.51119272743675,-64.43500167720119,31.444831486018757,237.3501846824576,416.38166715748696,343.14873570634387,-4.108061440508614,-266.24232619068897,-194.843246928703,-51.76687404296217,-69.83735816364442,-89.34242669831971,-32.44773407942375,-24.331092644197938,-45.45171202069661,-25.819790307646823,-12.84733725349815,-13.144418628700473,4.742965870487762,10.940071006468289,-0.2671035234312278,-1.0536849272539168,-1.2774137928052038,-6.8206005655705795,-4.143000128828993,-1.5881796870379787,-5.315127039379199,-3.6281747913960993,2.3475938183739915,4.922546184088624,8.406478352157919,14.061851516268014,13.57054192695944,5.5535483167159105,1.0289315587689671,8.070574566033065,16.620612082986018,9.906307716186411,-8.179730088851727,-18.928756306222972,-20.43041083238826,-22.61616756327896,-21.71686148276785,-13.25270584457973,-8.79050625004149,-12.582930562072221,-12.115085757373375,-5.625344881731333,-3.210067325122404,-3.2645620337933856,-1.2920321514059712,-2.41124868901521,-5.5864759630224015,-6.449519871671637,-9.625996464889258,-11.916488357241446,-6.769532096675642,-6.164089455805392,-13.987397890357999,-13.34770887311397,-5.780854439344832,-4.3657786520242645,-2.819160807662806,-0.05117930008450777,-4.580453056782929,-6.674984064375673,-1.5789663849460922,-1.2877979486160491,-0.6312144508364046,4.911783750583835,-3.687696480923627,-22.658720394626993,-23.82186877399319,-9.547241249649174,4.771933019595367,22.73088182561753,30.338510658865125,5.19961051836836,-26.757515333319894,-32.4583902105133,-31.590315672348932,-41.423614611645014,-45.511294455635166,-48.505337173218805,-59.51725476504108,-62.268912924015964,-68.48285119079783,-87.19219678873945,-60.494790747365506,62.02199916173612,265.4407876428003,427.7946641539327,313.81337981694446,-61.939873906598216,-268.90686967328617,-134.51765284301615,-21.822348300376355,-79.6953577589957,-78.4785424587978,-14.756087967717605,-25.71152270921602,-35.465850829847376,-1.5212483782861401,-5.419293299212356,-21.92105459137467,-6.83162027546821,-3.7801075502267754,-13.837630098032623,-9.411379663084496,-8.037964541248819,-10.67263873843926,-3.686235328959082,0.4617175280231436,1.3037012909257566,8.15693765399238,12.75871155839502,12.519394789042469,9.235573310602632,-0.6055406715419132,-6.542307516689451,-1.2808879757632203,3.4293517118342605,4.34393245916221,5.099642588987887,3.2509273526269626,4.905197384400823,11.091549512983535,5.981298614514252,-9.21976275858839,-16.71009317066558,-17.99778296022417,-22.17037600334521,-22.448566635965644,-15.189147003474803,-11.101034929483523,-13.711971095667325,-13.217729873360312,-5.984044576272741,1.0717257148153703,3.568742524228848,0.9367461654232621,-4.98641448360965,-6.130201844249402,-0.013490731263909872,4.093744838768679,3.432001454461844,2.4662684799522427,0.09062052225742434,-2.1834878351321034,-2.0793524772016365,-4.000591481171895,-3.469576864265095,0.9803733910488557,-8.133354137171825,-24.517882893569322,-19.665100522608924,-5.41776061463375,-6.110475502903867,-8.455958656320984,-8.93690217298931,-21.64684082068437,-27.964891224473575,-8.760929259394427,18.62724545963229,32.96319008699018,22.33284818361614,-6.935337448881029,-24.316935377305782,-27.238772139729697,-39.636784365039134,-53.859500691577864,-60.947459396486465,-70.02307000511057,-69.352826357597,-65.40529672467682,-77.76250379703056,-55.34072939628875,68.4640674754082,277.90452467927054,436.49162475909975,317.6926276870355,-58.49095796788468,-273.87349146307145,-147.37837594842424,-27.478196666299816,-79.17822444941288,-82.74675623041925,-18.18635400186998,-25.60823737158084,-44.617647033988405,-17.179473817468097,-11.22608672047744,-20.079967030942775,-6.362312222896594,-1.421861151326116,-9.614122716052583,-6.939296740054791,-3.5715027166138764,-4.893632559418972,-0.9351982545875526,2.9806115050148705,2.756149371445615,4.5726428809809,7.5534721573102335,7.041155896580514,5.907932844976568,8.39767501218839,10.440573526133846,8.894738826088668,9.93639985011975,13.56162139179907,14.047901625741023,15.25871624162612,12.610594217942198,-5.597645037552962,-22.516703199730912,-20.528397086868395,-18.029944841955363,-23.004843286936307,-18.685125355874398,-8.657253525592838,-3.593971804551316,-0.5629660122503868,-4.84421043761694,-14.342736814704029,-11.831281991769341,-2.4617958677448932,1.2574968054142257,6.242616505189876,7.108298848123205,-7.261274261176281,-17.342673790495226,-7.114269511514866,3.4497628941553167,-4.60572048241227,-21.55615293686872,-28.6938304648164,-23.170255965275103,-16.683488716667142,-13.943844082097447,-9.136428282590437,-3.7605575954827977,-4.571581200870151,-7.924677583459712,-7.417745486545261,-7.7785244578312565,-12.829372135062982,-14.452898110229164,-10.681843070268776,-10.447224942759448,-8.99933671784869,6.427563357086248,25.5053265495973,24.452276161306855,1.025579967179162,-24.258910324335226,-37.06942347110238,-40.55597095369597,-40.73687924533633,-42.73825464662557,-50.077094833020595,-56.80153221373009,-64.09396038976615,-75.99365223490206,-58.14346517937982,47.77235172792062,253.73340188016573,429.8586552290156,328.8008978483934,-45.52917624766868,-276.4853294985136,-155.16113327825462,-14.26919065282477,-58.18939263365897,-82.70476256875999,-25.877014275347722,-21.228530594912353,-38.10818830739351,-14.792264982402733,-10.506240755136709,-27.87057993176872,-18.026019375678334,-1.8512894439923802,-4.099252961785345,-6.562802023336133,-1.8984832541352858,0.44010886148844364,-0.6135168139318239,1.0553120605110147,7.177327583869564,13.094321873655618,15.453240918641422,13.4173629207633,9.185733154816303,9.443313017574063,12.499736008301136,9.337625167512561,4.399101572194643,7.384727111452493,12.362944208685803,10.041372074207647,2.826547649432305,-3.7647900637528995,-7.09534721452907,-8.397071317043922,-15.778450557594635,-29.763101836105506,-33.55472016689659,-21.127403251711883,-9.41013030147625,-7.3325842148448785,-11.305205795125499,-20.840393543505883,-25.242062094115248,-15.1391117543578,-8.591906390347969,-14.02760769090008,-11.97229399810951,-3.8033408013473995,-5.205185926918343,-6.66613331671515,-1.817766093614054,-1.3335922463222012,-3.5390496411856596,-5.190681564548731,-10.237559734668814,-11.870179402531255,-8.130753246730743,-7.10863042531895,-5.463001677151027,-3.469889440368455,-8.616440247118351,-11.629852353000324,-8.430936754544557,-9.772861077975021,-6.0267060954623535,12.488496247550803,26.20160576191539,25.686835571404927,18.973887047513315,1.9244538165114875,-21.11627144797609,-33.38657361741543,-39.91158526696505,-52.169550910674936,-61.89003778824589,-59.63674893258603,-52.39555712042056,-55.95832198215174,-65.98972859931817,-35.33904729616607,100.03408426262129,327.47239626897965,445.55114275593155,222.94115316193108,-173.51685440064563,-295.1175168692814,-117.09931828963738,-17.136352473804465,-64.32314259037085,-56.19804331349269,-8.746824387695447,-15.380034783770196,-20.26305900108948,1.0598532423542206,5.127471605433511,-5.029059051656766,-16.292371762591173,-23.68973582614428,-16.701695990147634,-10.296602659816681,-12.156937003062636,-5.335764179553507,3.654827053866141,2.648190406522925,1.7274127819530536,4.25009989134253,8.653900604737753,19.075704370504177,27.70171571966462,25.7275175357857,16.868417597951016,3.6289396947893593,-7.991145757575039,-6.0302393786586155,3.9905477247442143,4.499927866003173,-6.145966611770298,-17.956795324183027,-25.27373333701118,-27.321904313813615,-28.070143992431447,-29.26694219906955,-24.93663918477575,-17.936487707993432,-18.27875185154589,-18.657418621005792,-9.400239786004834,-0.20529111274648315,3.1317008984917702,4.024454619068685,-2.49521441359132,-11.82458245715253,-8.700377249232528,0.5466024401893677,1.7706345380436836,-1.5001259285947608,-6.051133081736042,-12.505318981825084,-13.732212582124406,-9.74226628070084,-9.027244645786652,-11.53800523287363,-13.453865227536282,-13.432239084839306,-9.782144918814664,-6.20522946261913,-8.033287520117538,-11.382382315120132,-11.161689517093059,-8.067467276557126,1.240034079219222,19.812773658750082,30.975294288899658,14.787086675800438,-13.17022907970157,-25.16383277757334,-28.40784874489777,-35.87561085054972,-39.7993251515481,-42.73309006905828,-46.854156482124054,-47.191429902745654,-62.62411361754154,-79.52262243282,-24.03310676844827,136.17662870512635,342.4086596051492,423.69599467566553,194.44863053158616,-177.90632555730735,-267.81854501885726,-89.32239190510177,-22.811884364868696,-83.63232992821845,-67.43159999954938,-36.98208839327515,-61.60601569363569,-48.4918395207818,-12.68462491575341,-15.6397845924159,-14.769340551250988,-3.0542513149712267,-11.740573075030614,-14.102026618975536,-1.7691640042599097,-0.5547200283979965,-2.45350888620467,0.7457227711079586,-0.6483307701731391,1.5897825191082537,11.796687948109382,17.40833204782671,18.052049324547205,16.489844680532006,8.865692058931216,3.8052157237698947,7.09788771112023,7.348120227194725,3.3394929969390903,1.2230103024698575,-5.592587329979063,-15.143993420167298,-16.520122266682186,-15.820398809139729,-18.86323102682829,-20.122719516542666,-22.541091073484846,-24.744214977416135,-16.633384672688592,-6.824505911305849,-4.969172068310481,-1.4540128622036175,1.2524492168732806,-5.785276886534682,-8.349216237225646,-0.5792811735926389,1.9331724140662798,0.7033940628853568,2.416734097949071,-2.945583464847722,-9.023269708328645,-1.940257492631578,3.527766944442682,0.23551343140003844,3.316342975706622,5.264867670615949,-3.4713814787159247,-6.09310837960207,-4.267753612774644,-11.589376017117083,-14.192080156505645,-10.21977999473178,-16.780461364348984,-20.892240618566348,-8.930911954820278,4.143256809394218,17.476384326428494,32.25547062417688,22.60112433123964,-9.243352375695325,-25.28666086420248,-24.596814654294782,-30.044783941123217,-36.09319866369693,-45.20461424316173,-69.28907217857179,-79.10012494208829,-65.77126344486588,-71.20828849033539,-73.67702563607291,1.9621282532906008,171.3275626354292,367.16555124445904,396.3152641556927,110.45500620372749,-219.68910632742714,-219.22269888932362,-54.09732584554728,-52.47214376298579,-100.44319089274727,-46.953158962019714,-18.804176826545294,-41.615408955020875,-23.177530592332822,-4.880972038605087,-20.003831898408308,-16.90892831299064,-3.7379163731456657,-6.164021158289259,-4.014500545036556,1.0798841319003252,-3.379293905446879,-4.490307931119178,2.030078026553899,7.295421788713257,9.547398062490515,11.687089444717827,14.498150058260356,11.634671477067211,2.37749649189981,-0.08396632963047956,2.9532795714123528,-3.0122835887692005,-9.721340830983413,-4.134953934189948,1.6592165349196346,-0.7909914184790363,-1.3263966956067836,0.6422814191793993,-3.5653423489106686,-10.290453718995167,-10.846275594881703,-5.55145299405056,-0.6367359386167504,-3.6530463236799235,-16.121825967777937,-25.909742546147147,-22.568769806843974,-14.082581060632219,-9.996204177553249,-6.971170450560635,-4.681164383347811,-7.921819034968738,-10.987001193545424,-7.196370800698476,-1.660746865900201,0.9493040526819385,0.44536343194783257,-4.671057301547815,-9.565671785169222,-7.422754704461552,-3.671814465437796,-3.6699871288715133,-3.298676537447882,-4.132804641780881,-9.086857497490167,-10.034846990849847,-4.432154900627216,-1.0153256527751218,-3.254213032489746,-9.931331309090272,-16.382970897351587,-11.032913195452808,7.1989196764519505,24.913448620529113,30.84942076333175,17.32260837752294,-10.050317157108163,-29.347265456216572,-36.25064294414466,-41.72243694109081,-44.52731785570603,-48.881430844841404,-59.534370422430555,-64.2147919404851,-66.47533034628272,-67.59350749734512,-18.457354704560807,133.2852943157144,344.86731288371743,414.2337450536314,164.53087698522023,-185.7660368927426,-238.84816730446303,-70.81379073786992,-34.02933188304627,-95.36906229928758,-64.70182572454078,-22.136561863819537,-38.52762263007611,-30.857595218493266,-6.014361928843307,-11.464274403315358,-11.832009501986416,0.8839788710618262,2.134240107187054,5.799759632096197,13.794277804680489,9.550189688080879,2.6717169721427947,-0.039481137876576256,-6.456558661865579,-7.59046610041314,4.452518396009585,12.277922486949342,5.252959803953121,-2.10370553024387,-2.8846708495998215,-5.954978551026313,-8.058414725822304,-3.640908000581593,-3.712812770013729,-8.002694247886843,-3.261957293356815,1.1117997278524907,-6.2371922922012395,-11.605597820783768,-12.590412128639358,-21.257151627655283,-27.593014259999748,-22.297881429989616,-17.95817035072235,-15.026088488297848,-4.980442608037933,1.4737049143514103,-3.3846708357713577,-8.32312668465787,-6.260796353783869,0.16046041894391294,7.161664049885694,8.401911290744598,1.9045644908459582,-4.796715959590713,-7.769085431419274,-9.950324609736466,-9.52455524452199,-5.1679596769214715,-4.368832063210787,-8.835870318104718,-10.384775262407972,-5.678481924831505,3.968459903755896,10.460486196076658,-1.594386592577301,-23.45487633526289,-26.62268683448934,-12.503338378123894,1.288225779577557,15.639559869571851,21.8778004141007,4.686721100726409,-18.03297105397025,-26.63734465255982,-33.57139352735477,-43.65305162848131,-44.15575189949794,-43.678481560142195,-55.0206153240607,-60.496138502610904,-51.166005312960316,-48.43608677263404,-43.427975038741906,24.521002464465,201.29308535545556,403.6557537908145,383.5230737401034,37.416310303068585,-289.35490563343797,-253.49050768374389,-64.97773746170513,-42.78152678069236,-83.63483533138358,-41.906447942642664,-15.759558987024022,-36.10402928329336,-28.4700995883495,-12.640330456140617,-15.081353084798184,-6.484824213209111,3.576117460054209,-2.1130444670625455,-5.812885111518828,-5.502151755543558,-6.66466255019503,0.5358958957006905,11.135642303420399,12.060719468119448,7.898264484817212,5.847430548007864,6.673571380827393,12.962246749455336,21.80111170240327,23.41959088962926,16.16504869866522,8.740685320915958,8.16788508878044,10.476673474320968,7.5106407191504285,3.906035403742866,3.6636117055938087,-9.21572498854319,-33.78518607964622,-39.72345909787565,-27.741757976756155,-24.0128113779942,-23.529205905840954,-20.966172644257263,-29.760286367432887,-34.79328817984863,-22.07018144906129,-15.189991097921776,-16.048698539170726,-5.194931326357899,2.44931720813463,-4.062430896428708,-4.463817014733769,1.2691775144474526,-0.8208455748363139,-2.811040129496714,-1.1649282119498867,-4.664558624730237,-8.396470266212088,-6.676381030121817,-5.354470304941842,-5.075369730685345,-3.2809080153000387,-1.5465385664509732,-1.0780636584262169,-6.607739753012309,-15.825802672736408,-9.095960324061581,15.57132725534047,26.778733840017374,7.794274803238032,-19.42117802541936,-32.76261163188151,-37.26749280366451,-42.18702157935283,-44.78586714231182,-49.39645889977212,-58.072459820903795,-57.32456656775837,-57.18706224728358,-69.33159624177229,-42.60239715004752,80.38744629595233,276.36520741248614,402.37222725403313,256.38913865990463,-96.54577801778323,-259.2921262189707,-118.82253975967845,-19.163126163876775,-74.2792884947162,-71.0241753998476,-11.443368588217787,-17.02691125484457,-26.479625678215697,-3.1868479910579577,-5.490258763069704,-16.80083341036022,-11.358530658922566,-11.579033532756625,-11.26480897540733,-6.031953247245898,-11.338609503113336,-14.039591168435594,-4.60695564610557,2.3547795521428982,4.033406123676,3.741627024291123,3.49777330886473,9.673594337735349,16.10337783399381,16.507635658412056,18.258725893953113,14.76534662985318,-0.9078839579223974,-7.219034249699577,4.724066828943672,13.735085734483375,11.677784344170547,0.7081554506222751,-23.266118417152168,-44.428381071271794,-41.96676848281532,-28.44150721284977,-22.138642826974078,-19.702835244183593,-17.043601036137634,-12.91020519554441,-3.8888374378225983,3.1805515481434945,1.562471170050415,-1.8665077880705478,-1.286779083082001,1.8156393931785804,2.435274554754102,-6.6509500250972025,-19.774912114647343,-22.167720522977607,-17.8404720380745,-17.91633148892726,-16.017408582715866,-9.722347957929077,-9.894497935379569,-12.724051565315435,-7.873875148946082,-4.948077669059675,-11.471631790261,-15.379935488308863,-12.149249128051569,-8.123708643766705,0.24643450172621328,14.283456642285415,22.30305910504923,16.423212130849553,-0.9942734507071798,-20.622774459964443,-31.030705507343995,-31.977217664568506,-34.95734781340992,-45.90689160384644,-53.657005840312,-51.55758484588179,-61.673678669123724,-84.52264367060017,-60.35412992970897,62.058979572939165,266.72233099448295,418.22053253123715,289.97917980202146,-77.51511328016838,-267.8609098375425,-133.63580555255987,-21.75169901527159,-74.06877532235227,-79.09410935314497,-19.427099798545825,-20.299026764462408,-33.0206550900016,-9.357380144006292,-0.290932989053335,-1.2526058101701665,11.402218707928728,13.056832453095918,-1.1583290654601939,-12.193170108478636,-15.146137393908436,-12.047708091291362,-4.955348638893129,4.7464094607486444,9.799798470749163,0.3695162567498649,-10.026806694665986,-4.19705389626151,2.0956933498446073,-4.505606386413545,-7.575114388937518,-2.7016163537434394,-4.220299145122633,-6.107898662745027,4.999168028094495,16.847669231253683,13.014396308151625,-1.909623319615525,-16.09834650691732,-22.954265895397302,-22.536905758473992,-21.62110395146354,-22.07448068714538,-19.630060437713006,-16.951367468496997,-16.002752450920525,-11.581260821522687,-5.829801790105236,-3.682134454391747,-2.3182479348831606,-3.0515868582080685,-7.512505058727864,-7.028826660531724,-0.5937825004776851,2.12915103148854,0.6445763209347781,-1.8308061517520144,-6.137382413328485,-6.572396422468582,0.12421679879590997,2.5782350162029175,-5.688189474404979,-14.285778527552193,-15.921839977248569,-15.758308794970059,-16.134162575722268,-13.422065657865819,-9.934581610667301,-9.674887369250474,-7.315860700231301,4.520096993692124,21.465296463993297,25.41454822852812,5.583172856954112,-19.38197094686614,-29.644343778832543,-35.1185698622882,-43.556063416910625,-46.88387451905351,-47.261507401850146,-48.20304107834417,-53.50023719896472,-69.25539134609076,-63.44347096467184,20.78221568351813,206.59117583783222,410.05302787507145,387.3068513417777,37.79612167742831,-264.69043814866717,-192.42537376397348,-22.578744645511385,-48.29406343628519,-90.27252632703778,-37.614324855511484,-33.33700528999635,-57.792689419779805,-24.35457290351876,-3.623655112818483,-16.261000202685985,-2.4441209786376348,12.255197899745044,-4.058027877893807,-19.501067289263815,-21.857556517625326,-19.602646039906492,-10.683805679821187,-4.0296165232015575,-5.383015658286068,-2.7886456490616105,4.533571989335883,6.126145580903158,4.682980864632276,5.590876032194862,2.749155306039155,-3.7894647277039475,-4.292536315335211,0.2846304740826726,4.76793186841021,11.745761886519336,15.940067661092991,10.330694345119273,4.511302337746404,1.5948332165455081,-9.137687665259794,-21.118598984129083,-22.38493954105283,-22.335555853714094,-25.96217841809848,-22.408486432263942,-12.94203722665834,-7.2096320145872035,-4.733520269433191,-4.211885371049057,-5.963931307326538,-5.207444008511635,-1.1737318494070124,1.3638698026966214,0.6033202562548414,-3.9190123752330823,-9.441158269970924,-10.063831538090255,-8.007208586837011,-6.679837611439737,-2.9264916776379444,-2.8326780548552435,-11.367416166216081,-13.60119604913959,-6.513559962985088,-7.270996307599752,-11.515645537724481,-5.292938415236222,2.0734823647948835,5.40119160750844,14.894467865009238,25.570789815663343,21.086517248337675,-1.161495039902336,-26.78263465623292,-37.99635548433508,-34.411016193462785,-32.62222130551378,-37.970007282342934,-39.997086154390246,-43.407798866675506,-63.894588278321464,-77.91847318359885,-28.145902616293768,119.98976643099141,333.0380446160765,430.48168045234536,197.25759835571097,-203.6945679184205,-318.231094823485,-123.61578613845347,-17.886257037693767,-70.84965900823626,-68.12510359303671,-29.446477435698796,-40.03506845036644,-29.816050157341248,1.7362932513148266,-5.39324905430087,-13.089616567446999,2.463682319003569,6.451025133176353,4.280603101511193,8.846711129440902,5.519374794901915,-3.06675611934779,-8.071067815750373,-10.663518238375083,-5.045436077630109,5.722240216720824,7.361190677897067,2.4981413856974575,0.9910547265617158,0.435816033256045,-0.8676718106599406,0.04916362609094671,2.187458296294899,6.509757453395911,13.47695766820144,15.278261428922846,9.50484471776686,2.098921981665507,-6.117434650347407,-11.96927647927149,-11.216915884242349,-13.988582069244021,-22.8033124262637,-22.978951443142403,-17.405418681891184,-17.446120457082284,-15.175421320080837,-9.257196508260492,-7.898781564441146,-4.711658441773205,0.11090540707828289,-0.9255655735561827,1.590151591525073,5.584943228744133,-3.6236239603360705,-11.693844674104614,-6.203664002144418,-5.164075385165987,-8.851458768774613,-2.57794649183392,1.4556150085459176,-5.613766278176932,-8.59132654305111,-4.570966348347438,