ECG,-0.7629460824207075,-11.971174296177601,-34.74783881076621,-57.01906412013642,-65.35936976163718,-66.27131841721624,-63.90068035314589,-56.754793794870054,-57.589098625081384,-65.30055302910992,-55.00732408175342,-30.504528081919233,-19.67035255588077,-22.270329342006228,-20.775612408325497,-10.301101642418978,2.700156473466812,6.902887091912527,1.5129526056560323,-2.529450476182287,-2.5847721650700883,1.5046321445690989,10.253255093316419,10.774828279382852,-0.2467172134890383,-6.318639037759535,-6.240750708603574,-10.10661442240151,-12.673237905458704,-8.377010853723238,-1.8292686811656207,1.5733168790793428,-3.5083728412245456,-13.321101033045176,-15.069953090358942,-9.240465525852501,-6.484571387514913,-7.3164253104518835,-6.7739533407474415,-4.611239579683179,-2.662187793593171,-1.1413372183300252,0.5024195989485687,-0.16824882927882534,-3.486109768940006,-3.1352290100241706,-0.6345622509739997,-3.9524770707625443,-5.636383749960325,3.0873386590061855,11.073749128326686,12.364529841370366,17.51336803055588,22.674975495980338,11.375399416802892,-10.185960189224312,-24.80220881371085,-36.15853630936422,-42.57295725454252,-30.947509625657773,-23.145425549350815,-30.357609415411908,-17.456844572106252,-1.579870282264547,-7.951371612426916,30.737906522790382,134.10126758280404,270.05220941625953,410.20921872928056,281.05676169316143,-295.02985964361244,-731.678541952873,-488.0106288338434,-56.38041271968405,26.18571988594075,15.406739238141338,100.08869264669852,97.63799874324391,48.8999683491776,68.02028770087134,65.11522249011844,29.39151437919305,30.603562798220104,29.4450077398205,-2.072246874497652,-26.474564818170922,-34.343251785755285,-32.554740895021915,-26.49605013340799,-25.400559209191254,-19.37480315091608,-1.1535493859850057,16.980596502527497,32.9644171438176,49.83620344415189,59.65126537356712,61.39713160857365,61.45622291795736,59.27552692467768,51.775422471392275,34.906148813175854,6.64569852632671,-21.68851440332979,-40.83800574789737,-57.80158873885167,-70.61157286279553,-67.03497938958793,-55.625969489514674,-50.37275809421629,-44.03585333045586,-31.33398240171093,-20.767155916808083,-14.342956670442359,-8.65611252047782,-4.149699918155399,0.11526435300987714,5.234246196675677,9.456587584587595,12.94209644155804,16.40751309648595,14.954544850003924,2.795534353131,-12.985824472769577,-17.784016284673474,-13.694573115031078,-13.42050360833556,-14.465790337966444,-11.328583693560706,-11.039912819303893,-13.358840881837594,-10.823020431007688,-8.386909008331891,-10.473809074593763,-10.562870204880818,-7.38425490506129,-4.121551276977103,-0.047030687973483865,3.0954045304680644,3.8397234265523927,3.6334832432918,-0.4274994247970163,-8.688058460080192,-15.395245878894798,-19.370933453838663,-20.249147734802875,-16.09598898740185,-11.277591880330124,-7.001523461400753,1.70633974552518,12.100833666409288,19.77113670119371,25.249984534348158,21.466937891666362,0.8913442886198766,-23.86398184130203,-34.702355373087926,-36.12109572415193,-36.694375094602265,-29.529966326362107,-22.301591004673654,-23.227085265405623,-12.70945322331037,-1.596128696798388,-4.264136122245416,32.64281546524785,123.72565205693972,246.4559244429997,384.91081254810103,286.7288679398957,-253.96147759320243,-716.0372459234881,-522.3796777919931,-81.3505475788152,33.67373048620081,17.061330878356554,93.00277004170059,100.1462344097252,49.48279797538542,60.797120640613834,60.13959357754579,25.53912072575186,23.496032331200745,20.195859396122835,-6.540349984712276,-15.939700579138924,-16.416696802356444,-22.24066189187625,-16.66643629769319,-11.610195632445453,-16.548689973717426,-7.745763242972336,15.839262244875268,32.94689961969177,43.961882221799584,54.113959295639624,56.837314576515475,54.826501066872495,53.49959221672624,46.556439486320436,31.880384266402068,9.853826495799508,-22.843190292258114,-50.83449902545597,-57.18838745194991,-57.570695842530704,-63.128909707395906,-59.82993395198738,-50.775611839712425,-45.91485888877283,-34.43700102870267,-18.080410036599993,-10.965702737541115,-8.231044248959439,-4.811941107672784,-2.121528740728696,4.4531677248163515,6.676726543364417,-2.6400133993489447,-5.422447870561209,2.1710144282425645,1.66218928658148,-1.0077585180622393,10.017732828806931,19.86181480118712,7.591279585283701,-17.196293859516608,-29.965677685022193,-25.482775622939776,-16.2790888158354,-11.0978194137296,-14.325152403283383,-22.440854650021336,-19.362545646873098,-6.683123679370876,-5.555413168362634,-12.885771518849433,-12.469204274295231,-11.212818409342724,-15.37516481405866,-13.930708654245109,-3.221676709745788,9.85257996055946,18.246354751629013,16.54353055391832,10.024979482708579,7.216277817046873,0.47223174119511757,-15.135442387261115,-25.22981105232565,-25.91389122953884,-24.01309878791917,-15.45941995946574,-12.555343695383044,-26.297496252756794,-27.294061049354287,-15.93886623473206,-15.079116337613593,21.741086591124756,122.12902994800427,262.56482527589105,408.973422406877,318.40813661989984,-213.16243188227537,-709.1323386844118,-580.7111307677288,-146.37262222637202,21.905608030044714,28.074154550463685,91.7991236753397,106.80990876186853,66.45524275544099,63.265172070242734,54.21491919634561,24.676980563823832,16.155413205821453,9.599343744553984,-1.4361660079824201,-4.899943958720485,-14.573448151681736,-16.923498187638245,-4.1730496220828535,-3.237240543933959,-2.7718416363550435,13.995152603964103,21.677677576876068,24.265288598762815,44.164886334055666,60.03652733138733,58.561894447124516,56.65915883592833,53.01964761382874,41.87546433574795,28.30364408963374,7.252793014290466,-19.265166989919255,-37.521619752722515,-49.73904880561764,-61.356411760725024,-62.89484281110103,-49.683907994757305,-35.8616555594511,-39.22620217902274,-51.71891108614754,-45.05804148839181,-20.872953272638135,-8.00812430805587,-8.425863425815233,-6.994224252618757,-6.1929276331918075,-5.714432312137934,2.9835753183428277,11.101838326271544,7.038552381366701,-0.6985855711092555,-0.818806795300711,3.276468201697698,3.9266226903592525,3.3273199640855076,4.618821732758278,-1.4851822170880968,-16.796468577544267,-22.858405960231966,-14.936142831255884,-10.503330056990688,-12.842156224554378,-12.152386569301818,-10.326529426149989,-10.696952838459762,-9.590800395899123,-7.71569005760513,-5.366553185817718,2.4918907611772365,12.964076330029163,17.488023880838394,15.257009347512884,4.704557389828522,-15.001414748066551,-26.925430435157395,-23.588782302419027,-22.88260158417959,-22.61720873327275,-14.416846423720095,-16.952115568657483,-19.383027165578405,-5.32083414366179,-7.548694401282552,-3.478750493866823,64.57466528353785,176.04837559704984,328.74927583504797,411.741413646013,89.5899361531628,-524.6327281747156,-712.695652764846,-329.3109706422019,-10.688636845318989,24.67626234217845,63.556117080132964,113.29797816283545,73.58290176865759,52.50755954230209,69.70108964084673,48.20716292356821,22.847939587128828,22.6885695124583,12.630820841375506,-1.356970448929359,-1.601695615046415,-2.0302910288374267,-4.398178424595422,2.6039800074074755,11.914222729224981,10.426446317624922,7.568004335865176,21.590357283692555,46.23489130294787,60.97707541797908,59.69634120697797,52.92443503386184,53.803118121160885,55.870917913144226,39.914966226579025,13.4547188844648,-5.008453423175787,-26.157035698903574,-55.43262520636041,-68.85261409519386,-61.41342511022965,-54.597085973555146,-53.24121333055841,-48.16317463140045,-40.76369345015493,-35.71641471522088,-30.12624815794416,-20.148294917122506,-8.723936129053634,-2.6284404990207832,-2.231685342610099,-0.14382872611146524,5.861050117443654,7.856832604369721,3.647472137472402,2.8460505449101667,6.266404231846739,4.184932773465823,0.013828906333447577,1.1510858212022708,-0.4989533481970625,-7.96139161644771,-12.144337023740533,-13.780351162670307,-16.186574629735386,-15.31389818555753,-12.911497927084723,-11.196588398349634,-8.26384190300194,-8.627944113838543,-11.632734679965434,-10.378676070571196,-10.74518980072941,-14.244578698794092,-8.293814600161118,3.084919523525997,7.168339040307733,10.213509511918653,16.095265748002696,12.409022317190061,-5.516526279935253,-23.84900127918184,-27.141364435106325,-22.81616107142105,-25.236152749275902,-22.520707347757085,-13.200765503809599,-15.837771745439454,-12.674425847914017,1.9345945001773126,0.4478910199785746,23.219562267543306,109.79590332103388,232.59552132412037,377.0172400270315,352.2610875618984,-113.42235212181825,-663.6844838843693,-625.5030855550799,-180.7852590068963,26.59087826726568,20.266829198292626,76.41456213806423,96.54126455670819,41.103526053132725,38.73833702998229,50.30791706675232,22.6454013267764,14.254939403650145,17.35247689898805,-0.10415877729407486,-10.366032306993612,-10.485690532403924,-16.53596316878893,-17.614518263524836,-8.88498406099197,2.8860284625224946,14.456393518941386,24.840176332710072,38.734358583097276,54.662579776249444,62.98911264002253,65.35787463712965,66.45174877880683,62.10694130568881,50.569611975170105,32.42950472718829,8.80715758709831,-13.490583734508752,-32.49387577812022,-51.014158477570355,-62.260934440921666,-61.25008704837572,-55.20843142256365,-48.50356032161956,-40.91617640607941,-33.70118918206188,-24.629569716587206,-13.976285346847225,-4.963173000441261,5.239914813619405,11.660956602359933,5.071953145501656,-1.59029802906133,2.6733650258419885,2.9715478212835116,-4.353686313781985,-6.510079985583372,-6.922406857788353,-9.92494273531509,-7.370386653267998,-2.131276628573767,-2.8123834352731887,-6.785600849919959,-9.763832270380032,-9.764813848204563,-5.727900816942105,-2.4917585089158685,-5.010680498205268,-12.493041726779214,-20.245617758316182,-20.39370211185583,-11.164728950916203,-3.70587991603262,-5.973731886176072,-9.082228266614667,-2.2791979282147388,8.575672678923086,11.852162271573603,8.886457187009741,5.248210362586054,-2.787495071867017,-18.308601643779266,-30.40199315191934,-24.639785508614505,-10.173962749854612,-10.834040781674904,-26.3874027293161,-41.19995504625598,-42.197120732292646,-19.58322381183489,-2.8664367186362316,-11.538730785547806,19.36000447785964,117.22155118473114,247.99512530120228,390.80715409387733,316.50749049871484,-204.64198030467364,-706.1602426755289,-568.2019990335755,-120.85348493359689,30.333228154276984,19.27823828356822,86.29823029470752,91.44028490101397,38.180947851978665,51.97446390362121,59.9648062387887,24.867223479119914,13.964319606256698,6.068022937564223,-17.303918832554896,-16.007526199095857,-4.570684056224489,-10.456892442648547,-14.918464111150875,-9.55489460623232,-1.7794424236147162,12.717423102071793,33.761838855096364,50.03864355442491,54.86683055519097,55.51228908006675,60.578705916483635,62.987834749135985,57.133010593318744,49.857533286725285,34.27826728061821,1.1663405144428083,-28.35856833892253,-38.33741758380895,-47.52023919328694,-63.20214394779578,-66.87220390653889,-57.59802047578173,-50.7375351398438,-44.71609157601079,-29.383315223038622,-11.95722796316005,-8.120535313967075,-11.810521498276493,-4.704518208888381,3.665592897750578,-5.16787898271857,-14.254193869814706,-7.331543851239694,-3.4594979223302893,-7.106998448776503,1.407758430037827,13.131369614442702,9.682281529368554,3.837788201446852,2.342562665892835,-5.778275252014115,-9.228903727141144,-0.861896294986316,-7.7428605122632135,-31.72515519296634,-36.882258396137935,-23.081366695668038,-19.131347223390293,-18.960633784986342,-7.620580868855381,-3.6054645521816084,-17.940545407490337,-27.178112557309838,-17.739585615070453,-6.269986055413758,-2.6631411581829383,2.3157529367796243,9.885107652813314,12.661879876729737,8.314981582439664,-7.148074445105111,-26.357020363426102,-29.505618598781624,-26.419487750661368,-31.930714492325407,-26.21605589460286,-16.63045930751827,-23.95886753846036,-17.711434905903054,-5.6085885904654145,-15.083685900291494,25.277556141185585,139.87678667196138,274.93270191019576,415.86066821548377,330.3886950644476,-224.00664175935128,-743.3068627966512,-585.5881242918375,-122.9781963934867,28.321062928458105,25.87689490149381,95.76434635032584,90.92188125855509,38.06942234420165,56.3335555034958,57.38455375675916,21.557907488613747,23.207290208160938,20.01776193723354,-10.338671326794078,-13.673761855257847,-5.018502421258477,-12.468538942080755,-7.748929282657279,3.8396641697317095,-4.315530606256796,-4.53193039394629,24.919406694630617,50.471537291151506,55.10327407510463,61.28386824659831,71.37478749114402,69.39458562351302,59.74483995521271,50.611286375545305,33.60386076691712,2.641559367953102,-30.365275783829343,-48.81382423097294,-55.22408407229099,-62.30362400064524,-65.41616060087611,-57.62379463015569,-47.18606660596888,-36.09419174843948,-23.550215677120434,-17.334850690055504,-12.441478581018323,-6.461489345614105,-15.387079935682419,-27.74865253384012,-17.03076353893308,-0.5272449076272459,0.12668916295443466,-1.3007894273860394,-0.9772419033689381,-5.711830208172451,-4.412441581060044,2.711283283744553,1.135740836331303,-4.876197713330388,-6.34754518460802,-6.752888162370672,-5.333977503863824,-0.21456352474266893,-1.6301052857060547,-12.746909012501574,-17.153575106245746,-11.26106924569897,-14.521398572675214,-23.916391421118103,-17.246496145300846,-4.289107761054895,-0.5571952416095147,7.012204931998873,14.805063700533008,4.119127091981257,-14.936009582087653,-28.592164046710916,-35.020215419401914,-30.12462982006288,-23.063818997661954,-22.769157176561663,-25.723139466785426,-30.25453440323527,-19.43620460402302,1.7837233682036375,-0.12647334349525696,19.560071143864707,111.79076394274281,243.23962326563756,396.9502418874114,388.62834463956153,-92.67786170468995,-710.9093675308305,-709.4217979509152,-223.96618428513992,23.50654030431813,17.9751463941097,81.03827560459536,117.08465291032736,60.084554087108856,51.926107752853184,65.83965972378685,38.64776946515965,26.421717405986012,24.503069809852796,2.816896629667106,-9.325701016137394,-12.42819696896699,-17.574989564107174,-6.520266261275425,6.9572393482850545,1.7360664412300029,-1.0479850143720792,13.871094106520765,35.6040237312342,56.89274256185992,70.48704404618016,70.35535302131208,65.958196300698,62.02858618186298,50.20902764050462,30.72822710103338,4.492073964561354,-32.29263937445943,-61.663980597902444,-64.23331475767324,-57.652209755734496,-60.381808973757714,-60.759844096938735,-52.266661342660974,-41.74386400259809,-28.75799538112813,-17.647283023641144,-16.688148100067522,-16.922056997597906,-7.850657756286532,3.4626728593233658,9.139420734649198,10.210005877304491,6.675405458586581,0.13407008999095282,-1.2375233710493365,3.3250619831596415,4.276446656197926,0.8603140796528876,-2.350266455334115,-8.674455243572778,-14.017899491630597,-9.639654687190964,-3.2856927872725876,-0.18959058620738922,5.645787081760624,8.133393744577571,3.570716303674028,0.44454587904432863,-5.022929363804586,-13.39912665176989,-13.284979548461983,-13.897480787626908,-23.06433162879812,-21.667457308176072,-8.117451905816559,0.04750314835739822,4.5905012994876735,7.5824002522762095,3.078360469258916,-4.359893162038388,-15.234060897857876,-26.1055903915826,-21.900228191837808,-17.867458914775092,-29.373377621391278,-31.789026248647552,-24.521495726485504,-20.58936749664807,-6.016806727301168,-4.107077531803315,-13.791578666583243,41.084795170482614,157.511867134312,304.8171404188429,435.26929671754175,232.24375949006455,-397.9688551120985,-761.6626751566342,-423.77670890361,-1.732035587246628,39.246503304039365,15.124076324108017,79.2790266022876,68.71152253109375,39.93105684842613,59.84026358617581,43.94618310609793,13.752213318103582,16.419465306967467,8.475189828677719,-6.912517873557997,-7.5006796765627834,-16.947977624989196,-24.151256984429402,-10.16127059400085,-1.7847754495263732,-2.413214802628115,10.608311589315742,29.7017729906662,45.2946970992125,61.538959493970985,69.84188298497773,70.00825755389283,72.30438980290727,65.55937038583782,43.26180705546522,19.668694670459725,-4.116912883736614,-29.711488957813806,-46.23973199048024,-53.798374979239256,-54.670058957937876,-48.775829579892104,-50.853441662115486,-58.872107757507266,-50.04232672436863,-33.36187678675459,-30.093438466564006,-27.559352720492434,-11.833068118547015,3.713181613659831,4.661088657093117,-2.3360184082728317,0.30599310727284035,11.30823500654654,13.65113075247174,10.045848440620974,8.833544799105791,-1.416737118360901,-16.708756012750868,-13.650043148222897,0.38878796212670075,0.5498103535625809,-8.31360955947007,-11.039268436845202,-10.720029502153988,-9.281971768385137,-1.9105838241557471,3.5328689349802183,-1.906735112719776,-9.98687896816822,-12.866829337190397,-12.918760912912436,-9.677314237028042,-5.894654701123526,-10.095407887199018,-16.62961396253405,-12.295206129055869,0.5021938703074245,9.459590096750883,7.027070913679637,-3.2984112298188215,-7.482459114025104,-0.11561880374651246,1.9914719331493504,-14.467357800823759,-29.41903933871548,-22.151804567249997,-17.093664219718317,-31.260207110702794,-34.144321635917635,-24.61431032301684,-24.55391124072649,-15.376743374891031,-6.009735837549141,-8.06011161252059,40.91490207590968,146.85481017053183,270.98566186471567,376.05573958987367,202.22725482896507,-358.64109870900165,-701.8758161227681,-397.92766534734056,-0.5024193243904005,40.13738531154908,27.46843269716399,104.89764268821831,85.18391242178105,29.109281977200133,40.247933718010586,35.864116951766185,11.117766770500193,11.018576195930814,3.504796551500113,-8.577529238789706,-4.285515810705958,-7.408495198464592,-15.573571613777341,-8.819865997308186,1.2036615525488026,5.082773704427984,8.875682120772238,16.743001024831553,31.09096944729811,47.09403234805613,55.42373715385506,55.7976057780922,55.04630048971083,55.967555437368816,49.700440561972115,28.138729597518743,1.174638468492692,-21.9929082072021,-45.46414146058274,-62.53804640234392,-63.00422268051837,-57.7428342283266,-55.57179028269753,-49.297273266032136,-38.56322847149434,-27.666329074429925,-16.397884764054332,-8.826889202285379,-4.914635688421718,1.0049175050424264,4.0543212834141436,2.1247276609593797,5.67051943556307,12.291776232846725,8.984749340134341,0.7529021981929755,0.25570913240786197,2.1829374921603577,-1.990023045111279,-2.122464694424048,5.052733499802564,-2.585149636044971,-24.82497707270104,-27.988936021610616,-13.867410636328966,-14.138407122644935,-21.26152394812961,-17.801696395351787,-18.337114668522467,-22.35553288588693,-13.121127633523008,-4.794980323512025,-11.254944489077818,-15.077495286003876,-8.712964534335873,-4.675351262118911,-3.514157267680851,0.9352656097551986,3.798576922177782,1.7164215754568968,2.0383768265222457,4.639893316578595,-6.727224186112171,-31.058585430129533,-37.900786178769366,-24.950235013583207,-22.470263856190545,-22.98395217157842,-12.999061886882444,-17.200038180249948,-22.539129726074005,-9.250101404654743,-12.707796640898774,0.49304522365830294,93.68929877322635,224.14559699516298,361.50193036266404,374.08499445800203,-36.27875167521583,-636.8175518787253,-694.2703702302865,-237.38194610661625,25.366000043803133,10.929539087856462,62.15174471656292,115.24235756125847,67.3812243559505,52.237035248206006,64.78607438935681,34.69270949665023,16.87362637609762,17.483486934735403,-0.21723087001754537,-9.278487966605098,-7.007348567335832,-17.13759183138594,-21.63860648033008,-8.673637400364836,5.866952782875899,17.59944067993589,30.49817649715393,40.94007259221062,45.63025602926328,52.24224251832733,65.81203048560661,70.62951854463404,58.90649830965578,48.919400575094045,43.48464775656947,26.487701868621137,-0.8426550063673517,-32.67361607807484,-65.26489041268165,-78.95961818877748,-70.47762980569718,-65.33522620282503,-65.71617543921893,-53.31987061556299,-35.48722469372993,-27.13121400400701,-22.14806632468636,-12.121270734095098,2.3492405537152763,14.981970574501482,13.185564569040729,-2.7243175195931997,-10.553292750091591,-1.9929950246588213,4.035994753903285,-0.47289680944596313,-3.578524775201547,-2.733561437406209,-1.870494407033192,2.7373669744439866,5.360734390771485,-5.190379693785481,-17.390488595175007,-16.499912307239775,-14.280403087819412,-20.792853034252943,-24.485837465880746,-21.41089506420397,-22.239452006120068,-28.046637579279217,-25.722492085086646,-6.976039637006828,12.415564326902032,12.956606182523728,6.746749377328571,4.3524755133010125,-9.591026695807876,-25.54050565435461,-27.374058868192,-35.03513144770803,-41.88376720483826,-27.97313364027737,-21.389769801075204,-20.2196783932565,-5.165829713683447,-9.56511165651954,-0.3630710815753062,90.17123318351932,232.48007291212795,401.29481846334403,433.3525758069385,-2.1848511391225145,-651.3420850963105,-742.8451689107967,-291.29289069756277,-3.1351565399819066,12.969472118778896,64.83635088256474,103.42663539922802,56.85731371585115,53.00469522629133,72.2610013171899,39.90568138447436,14.812936278104527,16.790251722535892,4.968875487634845,-8.143840410812942,-7.951655887154354,-9.277979079770912,-10.926681743553274,-4.509703706748409,10.20811585572637,33.37930027184223,53.636359401702684,54.19248019511645,47.19335876205837,54.21390384328713,58.63382380102372,45.82526637565286,43.39718967231591,51.08748880208039,30.415281307494773,-6.105482020227541,-25.509333994613065,-46.840112838494285,-74.00116647176043,-75.06623362714946,-64.95955836694648,-66.60926896907355,-50.493074267732936,-20.363917414180847,-22.940888644931224,-39.454208536850636,-24.180767616651636,-2.023173138485877,-4.5938219889671,-8.545207013621571,1.4584981353887727,7.812710578116835,3.640703906496457,0.04116624283545889,4.624047583463707,10.493676088749096,5.502937621443198,-6.029638548092867,-11.106632964608593,-9.322364907418509,-4.978501636740491,-1.9422429718288559,-5.463503866303878,-8.990947645540619,-4.29591550515261,-0.6785438247148345,-4.863548012271211,-8.084994964019224,-7.235596928911889,-9.145139156383793,-13.616722105131942,-11.810273759229357,-1.8728242216076723,4.2608643803355015,-5.241290903859934,-25.389947121919896,-36.685443567424485,-32.853182806037246,-30.783298061778396,-32.02483381755453,-24.442902610143108,-20.562934119647203,-20.234728498217414,-8.625437739017698,-7.295553706560362,0.9744854049548675,71.35218253581145,184.14248304508098,328.2349550948589,416.5306369447221,123.96636004110684,-499.7817532041603,-737.3230751812339,-352.96875388536506,3.431372756325139,33.37393041435612,51.36503454193152,103.19349878534044,53.22304601322503,14.864151521291866,42.92067296511838,37.58991805396779,7.875128926456273,-0.2380498737049428,-7.156795913301017,-14.700678454406258,-16.471126940479586,-21.98700949992531,-24.245576484968538,-19.127672109047,-10.220946096991717,6.158539062252158,23.373706297443114,34.143446199819316,44.39868640469939,54.27611426761654,61.45189106993892,67.21028741987817,65.20641236834855,54.249193159604616,40.06652579672386,17.67460575395568,-11.568072543602039,-33.025013602772766,-45.062831797258156,-53.40387345649104,-57.71456299714815,-59.40454746093616,-52.62955115856026,-33.41626471160401,-21.54443271982437,-23.0615546147835,-14.271348615254139,1.66001386427269,0.8956008466206828,-4.8869363525475435,1.7289408755982567,4.628444692912726,-2.6673647531880977,-0.3749360704027751,11.621206761130443,14.652903788661618,9.977185036591411,6.740856248571136,0.12270296829825078,-8.826373648943239,-11.360414845143,-10.936693458561804,-11.489201852924438,-9.708644215894102,-8.166231333096727,-9.044532008351634,-10.970060577344217,-13.588264575285892,-9.276705659336704,1.717236152638347,5.423237784404529,7.250456642000387,17.094376172858112,22.76667185279772,20.3568895899756,5.899256380808973,-28.942998172908894,-45.11725062595621,-18.622858017862878,-7.488438627158288,-34.10538786778446,-49.92973604895269,-41.34934638789469,-24.23201340946624,-13.230366563463106,-9.332306989261273,34.52409449183651,130.58396935547484,253.94582621425639,381.0550504244102,274.49862446595336,-249.8656113552271,-686.0287658842759,-491.3566884334082,-73.74840704178672,25.31834589679515,8.37415464547071,80.87316488983151,83.02706592353972,39.60735446056182,59.96287377036215,58.74738949007272,23.738467891041736,23.50928675607308,14.540651397548787,-19.500601968724048,-24.419369009290413,-12.71286230800568,-12.515158448874102,-6.260128265494384,6.962763328692919,12.959602012811487,16.199684780792417,26.332392205282176,47.03499182543477,65.3100610337659,62.59337512976652,51.795722385391464,52.682778297867365,52.351722472591824,40.80990651433288,25.730926977621607,2.2707768240283506,-25.70251883809523,-38.37667579532071,-41.796947273592146,-47.49939616895646,-45.57901470684584,-42.65862137029228,-48.89139784428337,-44.842886765011116,-28.016100348268616,-18.056967526945314,-9.381478318144755,-0.6277860264472643,-6.358181754854002,-7.8043973604441295,8.58726389122821,11.100489429292427,-3.717123427797251,-3.928513652411805,2.9963013009887547,-3.3358577204611812,-11.286062506099086,-14.146774919376096,-15.700720283176594,-12.912201002130564,-14.183763196483808,-21.48089315902338,-15.221241014723184,-0.4857947736669317,-2.5412098130046132,-13.87151756950506,-14.945830286636031,-11.085071285102739,-5.750905708061893,8.897881784457457,21.571293556242253,15.07632605358937,3.6320555247661765,5.911989639913029,2.5107237247122978,-21.11788234797843,-35.32795412062285,-31.132590458549625,-36.65505853310623,-40.97115780767288,-27.163459994544418,-23.341473738173306,-22.33789441193028,-5.996937505947789,-8.25633553539197,3.3603449837058292,88.53938889913636,207.54755050153727,345.6297812862955,381.00371758061794,-5.071507655833045,-610.2613898557571,-695.2618428089585,-256.23666883303434,10.206777394132395,8.244506620197619,65.68110348645477,112.65086340251067,57.50382597146394,47.7997081617757,69.7203451959345,39.19965135997808,17.761827992024465,19.842567211985262,3.130693081984142,-9.052479428532976,-8.3431964398091,-14.356207955553922,-14.350746330720966,-5.4157175623519755,0.2540991830808075,11.845796419899902,30.586847170693105,40.274982680328264,46.06197570233117,63.708915449908396,78.92060138485161,71.98561674160416,60.1343283310526,56.3615484471719,34.029499229783724,-10.051978743591814,-36.23248887719766,-39.37664909769727,-51.87861465758255,-72.8907488998519,-76.31372475683418,-62.36861820986394,-50.88677852217051,-47.91538852670759,-41.859240631592044,-27.41348132364766,-15.771820749073846,-10.210251672808276,-1.391554843836147,6.25501270323948,4.625773225821227,3.212454730095546,6.29314425340403,5.803429364354489,6.160469168945173,13.367694268343653,14.83398822540775,3.4944546472912634,-4.194846238412149,1.5211919938399205,2.3780596143467108,-14.683824089998602,-32.67192673096111,-34.991841509926644,-24.39309109899567,-10.416656385002721,-7.4595606528977285,-14.970636778139543,-8.006433725340464,11.797730059221896,19.33044137641772,22.385278357378965,20.92595113383989,-14.415446933342196,-54.85632285827259,-48.96671728111774,-31.157193055358043,-39.2256046422492,-40.664085410942285,-28.87638495441557,-20.661396182356143,-3.767263301123645,-1.1883585749993095,-13.533290376446288,38.09597842163846,154.62653378742866,297.20306640681184,433.916002355337,277.7054461103292,-331.1388066906698,-780.4672353329263,-539.4539095226095,-101.59144653718884,10.269747458502962,29.834279706274963,117.17009563397977,102.09350931473926,49.19062486308246,72.29078088935864,65.4232096790706,11.978707374096317,-2.7194590429140657,-1.246681353412956,-13.915358028205674,-20.164843473589684,-22.532761525909887,-19.612158130717066,-8.418981654912038,-8.61900837335331,-8.310728395277842,15.834578919388646,40.06371108027152,46.99897619072786,54.90559881944508,63.23442866715319,61.83787663206214,62.05719280160491,60.769387071901896,40.6909074748165,13.03270809656409,-6.242011695455591,-26.652664068497387,-49.24856180464062,-58.49409106883688,-58.60257713061927,-63.624434031401606,-63.83769863237749,-47.535214588078496,-29.61935628546692,-23.311669958290587,-21.033456403699805,-20.093784786307566,-19.596902101372145,-5.301293562918829,16.876765157398893,20.04362156459726,8.721521251541656,3.9073743973634514,-1.4416246413778069,-12.044345049521196,-12.547472570953211,-5.168854916920328,-3.909665304402722,-6.979254764093179,-10.681332784584916,-14.944807180263368,-14.630365099480017,-11.39267621963665,-12.446802023056922,-15.772416503503244,-16.064742072878712,-10.308664268050403,2.4506851096798368,12.380540780455641,10.738065390477317,8.581526659319593,10.404734072097112,-1.2685068307591063,-21.134822078356027,-23.389878916042317,-17.70666651385298,-19.280875910832638,-14.15862015055798,-11.701529696904736,-19.717146480760274,-12.261295795022926,-11.440741988309558,-26.699518342899545,21.632201252021943,142.20870880665558,289.70051370564335,418.13268728215377,245.95409692877269,-356.96202659344556,-766.182251754864,-486.7403634899868,-46.037251248733604,43.344225059619724,31.582821512237402,90.38503831787085,71.27474241755432,31.92847379813237,57.23117947189041,49.954638985876784,11.043810554099238,6.503884709904302,3.3266840526481816,-7.649850140579462,-1.3033124137189036,-3.6979923955157963,-19.405076210585676,-15.883871669683453,2.2055687077558215,16.279130155496006,30.912808551690816,44.74358990466283,48.36386009826221,47.90281372890458,52.991710077026454,62.5752705574486,70.37474847065678,62.82737984259927,31.674831861324975,-4.80553530134162,-27.03932740575341,-40.61064449857736,-53.53269057700123,-63.99394981761229,-69.77041294846907,-66.38961457094655,-55.29498018486028,-45.610070629888995,-35.964536044658004,-23.402433456118953,-16.52037990887523,-15.894767463771672,-10.175278501113517,3.3878513343003878,14.241072454800634,12.002003576208189,2.872386098615138,1.8134879655903209,7.178631502616941,9.284056083227274,8.666616321626222,4.791420930906619,-2.000426036913243,-3.3381128336184087,-1.5115915953055357,-3.4210649084954206,-3.2666951843031704,-3.773335129838591,-15.419914688894492,-27.46932870403516,-26.270216666674145,-19.63764044933709,-16.78603795868719,-16.732308534317582,-15.416990672195311,-6.582247627908052,9.332263681306761,20.76304689592697,19.974347906345372,7.970927303443803,-12.622547407692945,-30.40030852879962,-27.90670973826451,-14.149579744263036,-14.628031268623424,-20.89740479159536,-17.968821014179316,-17.519351189175374,-10.640804978093799,4.572310673314149,-0.3906499416213727,13.041556138881724,93.40084033638978,214.546874104533,359.7216811599707,354.25149502002574,-87.73234885130361,-650.8993201692077,-639.0230840283506,-189.4231985620339,29.641735742512303,19.74450906305479,78.75308688362962,103.49441281033339,41.927516084783875,42.168909756952644,64.33132933538744,32.225595342738636,11.487563498808086,13.895908471884006,4.356051345192093,0.4744640278349801,5.42682709836771,3.408038990814104,-5.2534159269771585,-20.23314060141333,-27.432338390526635,-10.329939993358446,15.389870333994573,31.359979952858936,42.18448017588264,52.58260989016401,57.41352734489213,53.93856751244016,48.74732034587312,46.73605209310665,37.21901492107291,10.244012417319134,-21.708411385433543,-41.61034273439579,-49.993905896052496,-51.87789541056327,-48.71134330950381,-50.10826892380729,-59.13595175973934,-57.55748388462976,-39.987759313545595,-26.84848063463534,-23.410388821807004,-17.00754569159947,-9.016800222769543,-5.242056863217407,-0.883553368990281,5.151417909197072,7.582793583274883,4.332787319951908,-0.45218029296725604,0.9674466604532093,6.2846992823364785,3.547497296005199,-5.455137554920855,-8.875270235539311,-7.627650214664968,-7.292134013133442,-6.468964741590009,-6.174879617772872,-7.615614567118852,-6.120415503673565,-2.4566691173492323,-4.229736002598418,-13.353753390922346,-23.911095257732143,-25.89455059155044,-14.3797220922814,-1.0796806517829634,2.6271941524498015,6.175619180375427,16.09774524709981,18.856418773651168,5.6738939922592495,-15.794862020523624,-28.924807000840673,-22.911248715209332,-15.905388273018524,-23.87100015026864,-26.725321811158153,-20.55090394838949,-18.2361197736507,-5.338643267279882,6.616724160293929,5.208468545837967,47.319667611089365,153.0262300458641,294.30090723954544,408.11158840355597,225.5565700425546,-352.0286365906199,-741.0803231437806,-489.5111590127547,-75.10707916917384,27.903680509782923,28.889721734149017,81.13489477243425,67.2429820601365,45.20326899752523,71.19182928392046,52.238759467462835,17.276895945136594,25.787822850303897,12.261027454321901,-24.22864439413243,-21.181916335902425,-8.517346467111384,-18.47407694975409,-18.15292072252332,-5.994865896761192,-4.6756806719643915,1.4391436490936496,24.69941611408294,45.3429732229217,53.414763069087016,57.317309391420125,57.9409535971029,51.910285620575976,43.285057943666,34.4957145292571,21.952929375042203,5.631941964986612,-13.147960309689761,-37.52520407232678,-58.811841290105576,-57.43492493559988,-41.95045672138083,-42.519903421343365,-54.05621792214474,-48.246182950845025,-31.6740527326123,-27.056248658594594,-27.460278333105727,-17.53076005729919,-3.633642432585418,2.0410864120403147,2.3044515729773174,6.918548639423335,11.776193057861835,6.6559236400646515,0.4495867763038106,3.0959135550383152,1.9440290696172173,-6.49764773771904,-6.548171421557958,-2.026624363040204,-7.677928984130727,-15.18345341235924,-11.909641356928875,-3.505936313506572,-0.2676667366562704,-4.610272191530477,-10.876677642837679,-11.811177660624748,-8.003151888819577,-4.86498730127688,-3.476595886405889,-2.0462850361316853,-1.9841166017753569,-5.044553400404659,-6.524222086208635,-1.3597382251231984,9.089261548929077,22.274175173011756,27.846343857446104,11.720742794002046,-9.169965348978256,-8.843149893465524,-9.555930295536204,-32.813960182874965,-47.26028072597313,-41.87197282210511,-39.48164795715746,-31.004786844771793,-15.798445334144503,-14.620254329552345,-10.510747556090536,-4.857860613309196,-10.418510931972186,32.383952003730684,142.30868624129883,278.41556398751777,402.97248935828117,270.9948973405786,-289.6127942510559,-743.0237820472207,-537.3730106893507,-95.40300628781023,26.735109869271998,22.990259628591904,99.98377700880899,101.75801564999094,50.85177035295574,62.28176948476987,56.500265294333786,13.476604640178238,8.81890773211913,16.06261420102888,0.6667614767693562,-10.556739256215062,-15.221025548047837,-17.554495150712597,-10.926050951553403,-8.18768917810886,-6.423468425897931,12.772628231947742,34.56957663242068,38.32450500593006,36.146770927294185,45.33270487234516,62.30034493791263,71.37992025373822,64.98770543907182,49.53310392940644,29.336401441715864,5.739622407732665,-15.340302206899631,-35.9654137011982,-56.12463941402574,-61.64627094673897,-55.99378061150675,-54.09171031644702,-47.051512782904254,-34.0751956923538,-33.42694473508106,-34.95889165446654,-20.921601174195036,-4.735901999397228,1.780454999138291,1.6261618283010062,-2.6561018040343285,-1.2316343195326898,9.54716629764198,18.082297221269982,21.83764840102878,19.907079949582876,4.819771558727995,-10.467162176427387,-7.395687945398604,2.399406019014865,-2.8626573745084407,-21.37189072295879,-31.806372940983344,-23.95824504033655,-13.49221014001285,-11.914498206641674,-10.983602323850729,-9.733406095709784,-12.119225005277816,-9.300827944006098,0.9149524924123948,7.195561803523684,2.9025154246558333,-8.406317670758261,-13.105144649583236,-4.8318398589392615,-1.4731842407173126,-12.193371324668824,-19.708149776816462,-17.47027238656054,-12.117820955456512,-0.10498967579241114,15.600570946340522,21.877140914246993,17.752536578973263,5.398870608778566,-17.032516763223377,-34.94521538012642,-30.5768248807431,-20.510388806388782,-27.76141552957011,-32.410482249638,-21.294151347146894,-21.83184514293302,-22.44400016551708,-0.785278587414223,1.9587319829079473,3.788307116998279,76.05336916982932,188.0798907070341,317.4752234686662,381.4083581017508,62.19609275960397,-552.4326375680068,-725.3978843681966,-295.9181061952702,34.58116014585613,33.315398937513905,54.437992526773975,107.40587605185073,60.398489206372524,40.71357438163716,68.02630023094773,44.72122979012127,18.1613731739938,19.465886273568817,3.195109017434766,-10.999873519683316,-4.29391270404181,-2.2091647208779506,-0.7697865441706657,4.018147714234591,-3.099994879364613,-7.402866453629366,8.450763600214724,28.365039766192417,42.13251232116677,55.5323097553581,60.77286525855824,55.53015740790234,55.741892110847694,54.111521346395456,31.22036498498289,4.0684509725349844,-10.48618951798013,-28.390344248580014,-48.4205323238094,-53.50203400858821,-54.209607777337396,-58.5834419161815,-54.06486051610945,-44.09821816257456,-38.09544251924551,-30.49373278742128,-22.31547441237669,-18.403220724784617,-12.710183102424182,-3.302175323356396,5.306715535854664,10.125466075878027,7.65062664207287,2.1559909725333473,2.4439276109223265,5.762242138647823,7.364734947134996,8.180675433748707,4.747371417686431,-4.5721183120197715,-13.68454784481482,-16.72484832499945,-9.720732231669235,1.7739658605015851,1.8166151407124804,-7.594245578464401,-5.690569024095781,5.35827897550444,3.0709402624524227,-8.346475385655472,-7.113751132067774,-0.3139586679769444,-5.470507772487114,-13.093138544439615,-13.888244306706056,-15.04212714810634,-13.037316619639062,-7.278144140870726,-12.98193900197657,-21.826763664680406,-12.987224217628743,-2.1531737899360746,-8.934874625735015,-14.267050176898191,-2.8510463494631946,7.982392341950657,8.697415099923806,12.738777394733045,23.189035532775353,22.777244788704955,-2.4629084702211266,-37.72505936178885,-47.11560063667215,-31.367915975099876,-28.10895746134831,-32.033061466370825,-20.014459235034398,-12.650380835173703,-8.852477075190652,6.126422730966379,8.56496386928041,30.759924120357578,120.49363718516906,237.45545661135293,347.18991926551297,299.9506449944297,-144.0420659097408,-668.204463256208,-617.5546408609658,-158.40809676864268,44.29913295575668,12.284729202202278,65.75818469020255,105.32567436010444,54.56108670273422,45.37121092764201,56.65343849719969,30.618362629294992,21.626886580569884,24.05146107293849,1.773065185164136,-17.662303953735023,-19.857483153357393,-15.151810261236232,-7.686974093494033,-6.698241813861172,-5.503925420023324,8.709817531846074,23.352506074667943,31.592749961805907,43.338535400345506,53.69078160818313,53.08788935767137,48.1990206201595,47.78115218769282,48.61255703338299,40.604713972580534,20.076149694776113,-5.852920535054677,-28.718340049964596,-43.58522115219763,-50.20232531966598,-54.40290181656146,-56.9611648793681,-53.39744977394613,-49.784680827008906,-48.281880201839265,-33.49788210561839,-8.224033387863944,0.6088799502588245,-5.826902810908976,-0.8229315615311936,12.66544838356237,13.439088081402952,8.931816867182075,11.974254449449823,5.169781696989034,-19.37467401170545,-32.04314003100812,-19.713250702979884,-8.09814682338337,-9.131993113850417,-10.875672174708434,-11.196344736734027,-11.225566288270954,-7.451301029780058,-6.068740708570729,-9.386223180017073,-7.219017294076345,-0.7498101208566865,0.28780179279162255,-0.2664469087985637,2.3986091384379904,-1.1830229904856928,-15.25614612096987,-28.22011197610353,-32.78718527914886,-29.845376718339907,-17.456207936889612,-3.9112790918812763,-5.1272782367346,-14.315271918075503,-14.93897858910588,-10.664463158879743,-8.752143046660198,-8.02433323204719,-10.781495262325727,-15.354000600379226,-12.506542855277052,-2.1410871070479978,4.0562323588541975,-0.2389192017465156,-2.9354645686060152,8.426616140135158,17.663151792461647,2.745802801303487,-20.875059369035274,-26.550364936158395,-23.891491653876386,-28.187335228834755,-26.827274268105405,-17.944183738367542,-12.445533337885117,-6.080835845212848,-9.718595715135486,-14.973157528591857,38.0842408859244,150.5070054916906,288.3921261470938,406.9188053173751,245.32608543647865,-326.48523346761215,-742.318533323435,-505.78561415815295,-72.76485619847611,37.01267627081644,24.535812821234067,86.8956608349099,94.08979139385474,61.37326416405675,71.75953895513747,65.4995932659231,31.558132941345463,11.85745575855626,-3.5285110094849443,-8.377505722682654,0.224139456895609,-8.885947605521732,-23.228834393846768,-13.967595768291464,1.4825158286416649,8.17589184891458,16.506864836545766,28.087125920371065,37.136468247595694,42.29740585305793,45.51120150674951,52.14994135493028,59.21124738128499,55.05294747559028,41.99002883326604,30.52747033658931,16.41632505229881,-7.648424333853203,-35.95580281869235,-58.163244515119075,-67.35530690548,-64.53102157121297,-56.43396814788405,-46.83697305147171,-43.433688751286226,-53.1287617276469,-59.08669604753693,-42.08850782543873,-16.30263517598447,-5.143918444015807,-6.156708060205641,-3.3329514754011953,5.485064102526486,8.617468414262522,4.44789406961922,2.8199359983750085,3.2508945048181452,2.10418356501534,3.2753091229528515,3.342704240451006,-2.0061997171977097,-8.368965024246908,-15.948123377274019,-20.916458150084658,-15.066316551030729,-9.925384886604276,-13.116538879180972,-9.277442943988369,-2.149324443175882,-9.175177114191664,-16.36090230416984,-7.9479224987051165,-0.17629156428543702,-3.8122089702217163,-6.956629616486575,-3.6861903850382713,0.6155728015029087,1.5432520645876124,-1.6100092883649566,-2.155934048291412,3.2738915679831635,-1.0667113060437146,-19.992740038028618,-24.77680905896227,-7.919817734577567,-2.795867329293637,-10.424940465888305,2.578241481101064,21.34971114531318,4.888196042658009,-25.70391778934409,-26.003816449808628,-14.742199166675611,-23.487420707841064,-31.91766613677204,-28.853336709897427,-26.168767138816378,-12.004880479007767,-1.4099614295903065,-9.341484372770177,30.148204455747404,140.11941879046333,278.3660566267663,402.5989519167117,267.0003965582241,-296.2132979198055,-744.5200036653303,-524.6864609070456,-71.32954589403775,49.31471585886412,37.50360611232675,109.11211723488324,110.79240872044241,60.92210068613602,64.78291327188788,46.53758482703055,1.415266639677844,0.8755920310400374,7.017423231891197,-6.925528183516803,-10.104318551880771,-10.033619080357248,-10.129922412369032,1.9244390881422353,6.598942139557629,0.5806155977313452,6.306596085874366,17.271200377565272,21.86496685067114,31.951796682549258,48.253312103069376,56.56008535878485,54.36712714350785,46.616040178901876,35.034882468072496,21.736045024071245,7.574875405738322,-12.070821018047166,-37.55998670466228,-55.22441214686527,-56.018312386790726,-51.27820682561386,-48.08115725440392,-40.79196059670636,-34.08222953753695,-30.182110515653644,-19.12875700970864,-10.318655899712631,-17.82431512288752,-24.19084699030662,-15.587785142044613,-7.171865163465341,-4.375010850864937,4.273712846448332,15.063187591694387,13.718651929260115,3.3216856184085497,-1.5176875875848133,-1.2144786304788955,-3.9954619980472863,-5.286882901625177,-3.665094508254663,-7.854245261405815,-13.256727714340256,-11.434457803956548,-9.641999106785565,-11.92081026377618,-11.784941983604266,-7.289382012880802,-0.6139553630967693,3.0831692672860136,-2.0643537467535893,-9.35501714726515,-7.2602594774871445,0.9754125800162212,4.4003473127833175,0.8693586400765074,-5.046242429851668,-10.320957288664317,-11.076556395605209,-4.01900968033408,1.253025698978833,-5.391151573204997,-10.204752391716811,-1.2634242408117116,4.338636378817814,-0.051750681091784045,5.542043220736712,20.726646053019312,25.16650072096912,15.180589801303118,-6.627491891782029,-33.910964361207036,-46.639813690419714,-42.72160112538734,-36.32005640747231,-29.70666050895053,-28.50848318606247,-24.881847889482366,-3.394503734566266,2.6611029720838806,-0.1245090814498031,65.15700023620035,179.98519158618984,300.16108007584637,388.57285124701264,171.1532339348808,-422.9530686358956,-746.541270984387,-412.9376177711216,-11.31873198569781,41.33445423180517,47.367630225536246,115.82692174337438,80.53781739132793,32.48032279298154,56.48806119606189,53.763454963237876,28.016575970042123,26.421804642271425,14.287391999791206,-8.498634593916151,-22.42798489541465,-32.13756678233885,-24.82074283162467,-12.926220150948753,-20.31380545091757,-16.154314365799635,12.827625253650616,30.595905663229424,35.52791120172021,47.68555096676156,56.646270434085636,54.85791964266156,51.51667301780819,47.09503935299521,37.8251477535456,22.830836438351557,2.64750039184804,-19.225842375113118,-41.417220512871395,-56.68607504680405,-54.4641894440068,-49.502182440856366,-57.43159021931978,-56.25019380560093,-35.7570213624617,-22.59377037472945,-20.26700431961749,-12.198427986318567,-4.741282256650827,-1.169399322821853,5.365593707161377,6.145885674656517,1.8480140313062776,5.513673426804162,8.376991933605316,1.744129767406429,-0.841920221914167,7.071716071843312,13.204761950206883,2.6832218965075576,-20.60957014437183,-29.448032708768086,-14.179870846119675,1.6663622001769038,1.4871937981217052,-13.780516510535747,-31.98551594817669,-31.25365929929014,-16.697353143442413,-13.218969882124558,-12.319831552964928,-3.5880310277639254,-6.857825561244908,-17.21813026648259,-9.786520737098698,5.351237290777632,8.507921630789829,-1.8545762856007642,-22.21243118844653,-32.01495444306831,-13.514681057710465,5.483891956347119,-0.6707978016832303,-8.092097315814543,-2.7277781637821352,-5.5945403793637265,-11.868671069179827,1.871336410493929,19.719094482314762,13.732594348338154,-9.347473158495346,-27.498966151851864,-29.20888125268122,-23.350369052368112,-26.365948972968173,-29.572647190100323,-24.486115388118712,-21.354378598031875,-9.772818944813208,4.237561720964058,-0.9148216553502291,29.48029654972447,133.95309518393492,268.5419043726237,392.5582055923585,305.37518712605413,-205.04277102135515,-715.7527151022274,-609.7808332913258,-156.70644408196853,34.336537013532464,37.9312965128574,99.73748063098242,113.50140967096236,63.71849212209557,63.354374498457744,63.96840809928532,26.214186162772467,3.6328159181048054,-6.075705436550814,-16.511777814880247,-14.375058779474138,-15.88439899269506,-25.49074666671309,-21.4991545044899,-7.300810698602514,1.7448886479970822,5.610856828889652,15.541153669797449,39.89754213512699,62.0726788337356,62.05059990584107,54.517375940300916,59.67371889983062,68.95989428284369,62.17492019410141,30.33272983731024,-7.574160937669015,-22.23647410018024,-24.540618645670083,-40.75907045285068,-55.76088475825399,-58.09269376832244,-71.87625269019848,-87.40870715882542,-68.03768890698046,-34.456748196074,-26.63874137221914,-27.167950511869783,-13.514596727453409,-1.67753891945015,3.3626631363035955,7.39120605182255,-0.20207438116528564,-11.484849629693471,-8.823908289276616,-5.884901873103953,-7.454824095022611,1.7337545600410742,5.972999740948076,-7.505137756821576,-13.522790950085795,-9.64140890251803,-14.003251395082238,-11.747036419329369,1.9030168933240752,-1.9791799871760354,-16.695724380400886,-9.73043378391581,2.696734296131458,-7.6086020313992755,-16.01067354422227,-2.289857482431019,3.1971048543973914,-7.989762983277426,-4.034289724211831,6.976083440135123,-5.256116455849931,-17.501514899501665,-4.985424758657249,1.1955796637201157,-14.802733539691992,-21.63087546303681,-8.688933907749934,2.3312746218226614,3.5020938551887477,3.840629871551417,8.636031924932285,10.595971068989815,-2.6648935413284462,-21.273390580723575,-23.218958700103478,-18.24484617763796,-22.864551900311668,-25.662150209602643,-25.5572977297085,-21.76206858152015,3.0122769462549552,16.83740650250142,5.090086694233282,50.19906740906523,167.76339551678115,296.57703245678834,395.7335116765618,241.28974055367132,-314.81350196935955,-744.745517472567,-525.1697653254316,-84.11433098084518,30.672583487313148,13.950344057044902,82.7344179320534,90.71458127133978,47.99123787298556,62.62997576080976,64.65924566319886,29.708448598504305,19.209052955569753,11.96592111064123,-9.202980209913227,-14.89967388482399,-15.862130168869363,-21.922256393880534,-15.94236501714046,-6.2623495303479775,-2.5155271643129264,8.4668600807633,26.296979096890382,38.686097731377366,45.501387791708524,53.381411679677015,63.31764026243865,65.40477337929865,54.06902284922662,40.60626404425643,27.63318791797215,4.854561064664343,-20.990358963254042,-37.39155270568241,-47.364989662924,-55.267716633264165,-60.39822172844394,-56.220066238970084,-37.659104996702055,-25.26866557639086,-34.0923364423529,-36.70216656043095,-20.101475672908194,-9.727649388059,-9.012474157020675,-3.5184373226031838,2.9580114759275133,7.650255867479103,9.469873979263532,2.8326225243480483,-2.0014601377121863,0.5153386645329903,-1.2740187936161416,-3.151753761036753,0.3250775028282913,-3.0728739655177115,-8.526015239232606,-4.377274414915087,-2.2206368043752995,-5.962222119798141,-4.383016062177454,-1.0857533038588354,-2.3670013640172254,-2.660757582187392,-0.6224693429254149,-2.2045339693930224,-8.036018604747522,-6.62876293456028,7.046760094993347,10.533727594041498,-8.731857531663996,-22.00756606206962,-13.229214605734473,-6.519381075344606,-11.313318127582772,-8.826578703750405,2.622886472298731,2.9436564776872167,-9.810877340825716,-10.850534682143806,6.620207615931184,11.35491578931883,-13.982470021491451,-37.891227119968754,-30.013425040314985,-13.48476931659401,-19.901270640639876,-26.36048047953089,-14.325981049626996,-14.769436148215839,-20.706119159364164,-4.996042120173522,1.2593124707763872,14.29265386246718,92.16251770197991,205.93843359592748,330.26411679514337,356.5246545911343,1.4800419882465974,-573.5175984982095,-683.0470563288551,-264.6895607314857,30.61755511423309,40.873855778202454,71.85742745699045,109.3427034354105,58.87136017141108,38.20226689027227,54.453958046615234,33.83593217122255,19.29550537953275,24.582036224784943,9.543227505137423,-7.080081210723216,-7.989954527698215,-8.384450152098905,-6.393614423762353,-2.4715071388714036,-4.533661334008664,-3.0184487412033327,9.152812970448863,24.848020513104164,38.6763426542111,47.12376719595069,47.8228150067946,47.11262554001819,50.61677963860811,50.91214368114787,39.88542151186632,20.140772678620458,-4.397805052248207,-29.011116562670935,-44.69724254543266,-50.33476098834866,-50.74614053798475,-48.191681369330794,-50.269697976503245,-57.65484458730502,-53.077343840355354,-33.210196360981584,-15.84379472804586,-7.626490284038756,-4.675685775163593,-5.075979317116712,-1.701810913054116,9.910021560565575,20.301261768496012,15.217320712496065,-6.706183898403371,-23.95186149895981,-19.073290352383594,-6.917768044006081,-3.0990743884264482,-3.187815726872593,-9.54685065539324,-20.934196597150116,-18.8054513039264,-6.472953154994677,-5.831900511417601,-12.819928535662577,-13.067912469248938,-10.274427200052532,-8.96738021308184,-6.618577904540025,-4.24284119424151,-4.088819270241631,-5.891342608914371,-8.407794093394514,-10.970518122010413,-14.010016716495075,-16.066490702712844,-15.80355060556965,-14.097450468436932,-7.26598551573753,6.317373059399372,15.602443038820397,14.0537821748897,5.942636939486507,-11.34824108654367,-30.08368751770456,-26.906052978907084,-13.701500740531628,-18.229319026747454,-24.673205911570705,-24.09276416811849,-28.010808876163658,-12.807004017123829,8.253573713024121,-3.510322733472723,20.032573583100906,126.05346585961883,260.51685201668965,394.6244366089337,329.46710426124133,-181.56008190711205,-714.0772791744986,-611.5126717164717,-148.5985729917415,38.98713769489978,38.35389194315515,102.90035830941213,108.73988880416863,47.57028323916919,48.58381288141899,52.48120816557735,17.281341970853877,7.778925065783444,7.922232788965962,-10.928008332162259,-18.187821494787038,-15.267384172103478,-17.395456318311982,-13.274947931830257,-4.629278655323317,1.917946976263492,15.869675188635146,36.77292795408677,51.01244749475414,57.54308450897041,65.27218457486549,69.85782681526632,63.35813000088991,56.173554963958125,50.96410724225009,27.185999530657647,-12.857677032776692,-39.24486803332388,-47.171209849106226,-53.06951283438086,-57.588456920104505,-55.89334282048609,-53.630595727893635,-55.51897560374246,-56.73153922056554,-49.30300559523631,-35.50919568311356,-24.431709861659265,-15.748800201349244,-7.383630777370385,-3.145499899415949,0.22352415488564148,5.405149776140647,5.761533349073739,3.2582430524258523,4.233276573361385,4.5213183055231845,3.0237118787796398,1.895887793525885,-3.7458230641060517,-10.648734208444006,-9.846666758604004,-7.48318660171693,-10.310148094493385,-10.62376205003002,-6.9601933266739735,-8.866026224497777,-14.128226674997249,-12.107062285000515,-6.5142124634580565,-6.406301039924255,-6.867273430118317,-2.5068204982917077,2.591565827657334,7.825056832250336,11.870636748909225,10.319287553490772,10.335931832123972,10.716151498471921,-10.176768827006727,-42.421911428112715,-45.96889890437533,-29.762953590131765,-30.04247952938583,-33.163843081165595,-24.88162164214352,-23.735744126393858,-16.5827974602683,-0.16013251036232745,-5.724114970042001,8.908026984667192,91.324512018187,214.2539447176572,377.34551994233925,413.7962592588958,-9.757776391973522,-633.6469442895559,-708.2022380656139,-261.59949763887755,15.87552089129425,25.603331148062367,78.30433889076633,124.89455465804262,80.27826736223977,67.18888143018954,75.61303625409862,35.85481644833893,7.721393140511978,9.754693826781434,-1.6865539738287028,-13.834148231288921,-18.647676128989062,-33.38548814754296,-38.250709156636375,-20.02359875725476,-3.116810623880353,6.1922289391570295,21.999460030595408,40.82023363423946,54.57587936808283,65.78912152307304,72.11930296177816,68.57678839358948,60.6592801145187,53.477610442621156,39.73139367293018,13.673249119211746,-14.230093296009148,-33.758046933115324,-51.03510082025978,-66.49033395491043,-66.47897670961336,-55.96646899877482,-54.32071855087389,-56.36001028067975,-46.39846640529664,-29.796244867984395,-15.979043026729308,-5.600722033832632,-2.398929671581847,-6.267896351345556,-8.584136872294982,-4.248278484288381,7.270756484316426,17.249679149072605,9.6896705846545,-7.939316458367118,-11.606288896157698,-4.313566833553981,-2.6895096622293657,-5.712365136259331,-10.245606768670957,-14.123168783630485,-9.636536452552148,-4.743802616850276,-10.59492436010658,-13.524050843400918,-5.827278663333042,-3.7620390601247102,-10.720548950713427,-14.724797584496114,-14.625024883572484,-12.082642424248627,-5.273596261867543,1.790802762327751,7.263157694988864,14.414131357547113,22.36839873374613,24.24969094525394,9.841538870275942,-13.336508080791102,-20.643061636343855,-16.832443165938745,-15.332646382076772,-2.248651036807704,1.1908493266747584,-28.604294303126807,-38.965445311568644,-20.051056559367932,-13.946912395995488,27.0058227629455,135.42776638681335,284.1032112483789,428.6187939243963,283.2169964510176,-324.45498234555726,-782.2137872499067,-530.404280551264,-75.00235134781963,26.901263514192337,25.530327491681447,108.94788709095022,98.79235194688567,42.56285943131499,56.0070501221748,53.84457781473648,26.192734599529068,29.265924567227124,22.065523973497537,-3.320025705592797,-8.109924562341483,-7.367585892857239,-10.98182790710052,-2.941179229018699,5.836325284520287,4.951565870169771,7.436412403483441,22.23643911297406,46.820592446598596,69.71664758316696,75.20614982726966,65.22770962936497,58.48376160514127,58.00609648291987,48.07636101642976,24.757934702803723,-1.7076947428033802,-26.7878386090974,-48.96657451475953,-63.47969068313571,-68.696544916525,-65.6284816400989,-57.90047315617488,-52.5372815156911,-49.06254934624967,-39.50621439400845,-23.023379516422413,-7.673645630822254,-0.4911622422839699,0.8374960998953469,4.320596273810466,9.355256224374223,11.244329859808156,14.183320691693048,17.126015253572017,7.954793479423836,-12.060929351861589,-25.700573558742295,-24.52598395454237,-17.521054014888527,-17.519976185718054,-23.695608692487717,-23.835300679472077,-15.533117703040332,-8.114447277500467,-6.0584096306361666,-6.7386093132558536,-7.52027798173178,-7.550363482460895,-4.387314182128312,4.7582779359794145,9.586664827434568,-4.3357894297382416,-22.624209710991785,-18.846739419417457,0.7814068242895207,14.714414198765402,15.359323481756594,-5.377847452704756,-41.11791211703748,-53.24928841050184,-35.09323295609761,-27.905960203340218,-32.52311470159998,-24.932208504834648,-23.955600371155327,-24.530584827811996,-5.359472952702811,-5.528391087062193,-8.568904421684817,61.59526223166087,190.09196509993382,359.98134859244476,451.5288364697617,101.88320797955683,-573.1996446521097,-767.6101491919808,-321.17663002770865,17.49199859425582,16.013151524544618,49.53323246050209,113.34187793208963,63.28690173200078,40.06979555058298,68.07003558359008,43.23456270989701,16.39627960742381,21.12653038044121,4.481238703037635,-15.634115790280113,-13.221769023844672,-12.297413387581969,-13.105463452633987,-6.789625147196436,-0.788386379253545,9.170774618669338,27.227187077301174,46.43052990586254,62.68588418611671,72.49816356238145,74.92530436786559,73.143799096599,62.99478544264005,42.089612036944324,20.541390551183092,1.8344788745991385,-22.365724667457897,-48.700950778613304,-62.70449480513777,-63.209229121616346,-60.46034044103262,-56.8731732461048,-50.1700618916797,-42.97879535706519,-35.02756128617036,-22.365441178388846,-8.670700475305836,-0.3754765336893726,2.320423368632074,1.9190773876407867,4.627200007367486,12.717033720880721,11.073678020116347,-5.938215565719707,-14.789763507428837,-6.325229829461499,0.30013857961743184,0.9206340824228576,3.3572996316240395,2.211955390825082,-2.957299170042109,-6.164006679316708,-12.629780149016547,-22.8278867286473,-26.79536122607557,-24.123040718053204,-21.278635876349554,-19.518612524724254,-17.587251392922486,-15.856349914040024,-15.166108334992494,-11.206735061004537,0.6447393200520715,12.451976309241983,15.76105543192055,13.65058462010224,2.807759723156286,-18.748656911764332,-28.891199300430152,-20.728003391690258,-21.84973679130068,-30.607127245245728,-25.395060951353905,-24.195187432629126,-26.244209153236664,-7.018529126145616,-1.267675000560831,-7.185132467016775,51.557497561822935,173.5909730200855,337.23703949802484,454.9719970345391,183.325437334026,-478.93012127519324,-783.5614576121184,-402.89976594775317,-5.847156373155759,32.417396795807434,42.60498186187735,104.39988390882147,64.378522330372,32.17184175803125,63.1374619767217,46.08529007191716,11.452308815712465,16.157713840141824,9.3166741480022,-10.083808692153923,-11.319661418469108,-14.291057081194944,-19.360626297417898,-9.967273679456852,1.4312942382442255,10.194125664393036,25.35551172369287,42.659379514657005,56.054576935859174,65.2586745812019,70.69849444447783,73.38193371538874,71.73887217839582,65.64196364893247,51.242564008287474,16.091683459903912,-28.744427444945558,-52.31445797833209,-59.92212673085652,-74.02068179586901,-81.14801972699297,-69.494667477597,-57.81302518421951,-51.24076003332709,-38.67751418374655,-25.26672722972612,-19.070780393922064,-14.914915781140653,-7.833450830032945,0.39075107986344193,6.238021199776638,8.386481870671023,8.333993392416279,7.292580336639788,6.369419610386493,7.293947313551238,8.849529165523975,7.692477470720782,1.8856277059908884,-7.6262550875873085,-14.402749527917496,-12.469574516550317,-7.776374056354232,-8.873577842994239,-10.975511328479998,-8.279270941761112,-5.787677414642539,-2.78698422116576,5.569668119712177,7.568565019934635,-4.350027355634923,-11.771239125314253,-3.9956596130043893,6.39211390699006,11.728991067425016,10.770059453056486,-0.4950798074012255,-19.30233622622847,-35.75997339199342,-37.396761357872755,-26.892217749950582,-26.79578060174855,-32.58847880900386,-25.752320052358016,-23.33670726594508,-22.834095550735128,-7.654230351099137,-7.729513210206443,-1.6478268650471737,72.59866415621424,200.29170855251385,366.82498119364016,420.1112549010115,21.556321506178534,-615.636877327073,-718.2430012315192,-263.97253764701196,23.695316107210353,20.437210373478344,68.32205991259087,116.3150618373768,63.1522322362855,48.85687902710569,67.74536748480953,37.67014724688944,15.501441200507195,16.47451722327883,-0.13450303675109776,-11.902914890043629,-9.465830487935488,-13.532801350710548,-15.403458175436601,-8.647896817627908,-0.0772763023060552,15.038107783135672,38.21967533930126,55.66171129061554,53.12144208226842,40.882019654454545,43.43078987788433,53.769177929612695,50.83498520415805,42.768167290635034,32.64633269309083,5.168490658969799,-26.67613234814089,-40.59531099736621,-46.21056793455631,-54.78378978866898,-60.082762361229086,-59.39396893501033,-52.07538716121183,-36.88637617680466,-22.312879383186477,-16.50775024499042,-16.289573662371016,-14.446053169482727,-6.895187384307286,3.7327994657327253,11.082189134631808,13.402898729696467,9.888165758427307,-1.4635332679724442,-12.390588608411633,-11.145729869068026,-3.2965416070388827,-1.920098493753649,-5.536937974838718,-7.299187536591896,-8.598632645341791,-9.02922574775013,-4.916986989793212,-1.6644675509642148,-5.799707038618248,-11.487192867324943,-11.288219634980425,-8.099953793210426,-8.224489261525843,-12.522998514732562,-15.691045426285601,-12.055343039194234,-3.5566441975125667,4.020706185526145,11.62632103593116,21.191753386229394,24.53523230133893,11.308734371811227,-15.17848276009536,-34.255991246722246,-31.842677589004023,-27.847431163058598,-37.8162218846815,-37.32479847828595,-25.146016071788566,-26.327090474489378,-20.804425700940158,-6.02360578820141,-11.297473614059426,13.19935688381721,106.08432347593383,234.9230966311586,382.6787658725944,337.9451311608792,-158.65399052027476,-686.1180993572589,-581.8927468604104,-120.56966221357725,44.74349150097146,6.402679667402424,57.971923872998616,83.7130095923922,41.450532942183514,48.76440039492245,57.379779398840185,23.976825067553698,13.050156429858461,16.01751217215786,1.548499577064686,-7.373039361381962,-10.923753347917817,-17.12786695329487,-11.698508280032003,-0.4879105898928948,6.509961617594406,17.84762517941596,34.35765240380873,48.692105058626765,54.11278238131345,46.82778424567159,41.06658395316377,48.14981953910362,50.10435905885461,35.28461049999577,17.35858247782864,0.7510219113190892,-20.548754593601593,-40.29837005785109,-51.278826517022615,-56.6153951787307,-58.58556084736165,-54.11163452208581,-44.22921841010585,-36.54077615932372,-31.355362071718453,-22.08140403787754,-12.868850059529642,-8.226397434868293,-1.0622696373325926,6.317437357745236,6.243617426441922,4.87829436710601,3.1073890450098673,-3.9153074971303212,-6.20572946840843,-1.8718247033212894,-3.8548477125859613,-7.930449467564912,-4.989052899439603,-3.0563563401041627,-5.970382987522708,-8.515975490867081,-10.006694581842575,-8.996588255783962,-5.969881999074627,-7.775020784697597,-13.581095432963712,-15.627926103235696,-14.587700374226262,-15.446153407060788,-14.367137244132767,-5.756623728876214,4.16029915914298,10.753041611352934,21.270940737454175,30.977639193991422,24.94988648274071,7.449813626924664,-9.656710925331733,-25.026329682389786,-37.81258028691162,-41.6118429843507,-29.05467415965585,-16.431774758845457,-29.073561730292546,-41.19359182765813,-30.423037743186278,-23.26817584423711,7.674932437885527,101.13725438508651,229.42597618195484,374.8195515614258,352.4854073521328,-118.11376774102274,-688.3018674326086,-655.4988967106121,-190.8802148961359,27.89352538861714,18.316180159588118,78.00058464301321,104.87997619953953,50.875948799610725,48.39383102886153,56.98773709418322,26.61086188971153,20.98057478313753,23.309515753583643,-0.8774726163922058,-12.241172359063839,-8.353009995541065,-13.231622040068764,-13.599461726683908,-3.8658844644560846,5.723093946199548,16.766759190102903,29.736311950923852,40.06769851861341,47.307275503728086,51.84125632459,52.690949188906,50.6143938963672,48.96674932904622,44.851580820934856,28.49038223068884,2.3671207638436176,-20.461103378630064,-37.83483297574212,-52.757006292442576,-61.167875462302646,-61.12865783115534,-56.02034536437458,-48.94872113610787,-42.21214585846984,-34.16947654819093,-22.27425736217421,-12.930622129986762,-11.747605639798177,-9.97468017876502,-1.503638839233746,5.159264380735161,8.834046941195153,15.181388496118629,14.247250637925063,4.185411191111605,4.881679128265379,12.775386336910831,9.536529236838616,6.9311309168577,6.482604273376555,-14.63440686069658,-37.07142247753,-28.499135930202428,-11.348368543685035,-8.897142082056329,-8.578831937420773,-9.701324140131604,-17.59813392814295,-18.678765771855502,-7.248910153465051,6.1296437239660495,10.390936130653056,4.161687580334638,-0.3499376835260577,-3.0477594074631877,-15.494909254611102,-23.093269920261573,-18.383355164969515,-25.583423835974415,-36.84390170418514,-31.895502165105178,-28.825250728420734,-23.922007963734067,-9.882794036233253,-13.947030454650246,2.3269368318893093,92.02019339003385,230.4848209361712,400.7596354608824,420.89597709005864,-29.254341120961897,-659.4827492390571,-716.2817772309804,-257.0225927366537,14.600259033819746,13.538210700639596,56.97887380074507,97.3984167588907,56.95321600482892,53.11008086034888,66.16742599633987,31.627292310670796,11.582787235349986,16.751549224318893,3.982207195759556,-7.649028161937212,-7.198894840847371,-12.555452443294138,-14.261655482546884,-6.129830375645489,2.962942904058247,17.101309726530666,33.67033843599775,42.51783427878407,50.74285324504769,60.696610932970515,62.33383043818927,62.111595156001535,64.98728485008743,54.44994259128628,28.63139445711116,4.9010942283120125,-14.429370540717382,-36.08960793916931,-58.48009888776669,-74.60769499486278,-75.61797064716724,-64.98802105934658,-55.916037519751384,-45.02995862768145,-28.878324107849338,-22.069838034489482,-21.298439277058733,-8.936187999672118,5.936653965980117,11.624199596308532,16.47123649568841,16.513696101633304,4.280258049978052,-2.423572920408514,6.885436521529981,12.742037184522378,0.2162599213021963,-19.37086421960548,-26.41921742182828,-18.63660677059052,-11.368994611901705,-11.357167088975357,-12.303888421470468,-13.297403669397733,-13.2433697955242,-7.246387905712066,-1.5643355962293537,-1.1407599149808263,1.7649678023185125,4.961825850612915,0.4704926550095472,-1.4820237756159518,6.311314338625847,4.942976110135341,-17.47077019414726,-36.17328976285123,-31.460495393273415,-24.09872737621586,-23.280556731759656,-13.355962608895439,-10.477822316708455,-19.199564884370748,-8.748930727301538,-1.3812504788700064,-5.047027411103324,46.43719435222006,154.156844384179,300.8088033843487,424.45759719229187,191.35636589268535,-453.23898799415974,-783.5904645008075,-415.8360185871101,-5.06387117099522,31.79233383497417,34.18982965115235,109.84265337460417,83.04550816268666,42.7745189426523,63.34991274175661,49.2816074337139,19.655952193040854,18.34745304164125,1.9628752906666698,-19.16643987314242,-17.731156383474318,-17.04152884176398,-16.750714533236035,-6.598748073169824,0.3487053230626298,7.688153459732829,23.90191885877995,41.00233097004191,55.56685425164898,66.84819232271614,72.34808333047081,71.76682908556492,59.20149447921278,39.996717163415006,30.832745370055612,16.609152842941775,-24.66650105842856,-64.30167855808286,-72.50439824040518,-69.02392890917567,-68.8232402820267,-61.68199522110227,-52.34889311089566,-47.44588918798354,-38.17014673247884,-25.64055092198941,-15.065366921129815,-2.2895301790510665,6.450570722620224,2.9620626611347944,-1.4530219585425712,1.7965514527906326,4.250378858874409,2.077887418909537,0.6589491731403943,-0.3787435692846355,-4.525526314937611,-7.888895523065992,-6.898370923102668,-6.934641669644655,-9.480281993245404,-8.028548678849972,-4.938416460469757,-6.8566633103525,-9.63465055853178,-10.224604427168202,-11.99584428043061,-11.72394919267293,-5.412958477041463,2.9708283151507304,9.41369572388,13.488874247581025,16.603363966793218,14.31331888377379,-4.201783506796501,-26.61279476336496,-27.562064005169795,-21.545422062757158,-25.011975015776834,-16.111071297084997,-7.834540503609183,-22.759554569734696,-20.386853160561806,-4.607568698147798,-12.069532132363102,20.71826211521279,123.22344209955926,254.6365132915601,395.21307899257624,292.87062562815254,-273.58807833477977,-752.2592000866684,-527.7030471727345,-53.365837336447875,52.7721171972985,20.4119658695479,96.48199151017914,94.41959960590705,27.521030696152632,38.33409299626649,45.020988789937974,10.581743450921069,7.7563453249689545,10.079906550030492,-8.746124652912279,-12.46680778844329,-11.322122869561598,-19.65543254589441,-12.800994724396062,4.246765186505838,11.270779071475957,19.48498713545686,37.165507034207174,51.028523716362756,55.22720364147928,57.254755192474036,60.82654691531991,58.04213075001837,40.71701713647548,18.525546556973246,5.007507678725663,-9.326722260228244,-34.049587505185706,-53.14628429226681,-57.70129030544893,-60.307285062009626,-60.9094985942045,-50.29240675387617,-38.68248386537537,-37.28476073768209,-35.12567860455951,-21.190299003851866,-4.558897560357703,2.404859249802307,2.059540353196585,2.2138795539675336,3.1938306522206563,3.7426113332017827,6.182022607506747,8.390754419571703,5.265358491754902,0.5017378124937899,0.7375866136980527,1.7382113974499784,-2.7441381287316364,-8.645334240171666,-11.717133801169123,-14.250668637398645,-16.47661737147305,-16.518269223836022,-14.45187671340042,-10.543486830167058,-8.07095810197344,-10.186134559715764,-9.563482916256012,1.7694272157130975,16.250435864766345,22.869356890373773,21.27797846172519,10.282993465415549,-8.476244591654478,-17.343375053692213,-15.530142554598736,-25.680912880660628,-39.45228763058897,-38.439457615257794,-35.16977141640107,-25.056940965530412,-6.123881392935051,-4.00139064198311,16.41050400822119,95.97793885157716,214.46985336024773,365.3135789101344,361.7240991876456,-90.77583544374284,-655.9175302466105,-629.1382891277779,-170.02376197594157,42.4702262009142,22.739060560855457,79.58072513905847,104.19457307701624,33.379705747716585,22.47629959657237,46.70303676675111,25.480550721448182,11.906635983507417,11.253168416348323,-10.229550567353876,-19.957487050221694,-10.269809811044684,-9.949375219877577,-11.404670653069978,-5.263898722154344,-0.5049718185219749,8.2562769006936,24.613712290372295,38.167413062529754,46.66903507249924,52.12701539288479,52.045847822168966,49.347734429059905,48.510752174851575,46.26222397315313,34.123815640264766,7.858398467323494,-20.625614010931507,-37.05594440223142,-48.3707496385866,-61.781920189403834,-66.97717058654179,-63.03103315847755,-58.610058881212865,-48.80297259701814,-30.961045857584864,-16.31768480086945,-9.865631787431429,-7.01182481028242,-4.191994003208535,0.27166025390028103,5.57183444716375,9.36414383495614,10.188527809184919,7.097429427739202,3.6520757166405247,5.505606274381131,8.327192296592877,2.010465406485501,-12.719090213939285,-24.215647637202846,-24.152981220858706,-16.80083972553669,-12.874870678198423,-13.808108847847384,-12.742802581686915,-11.19762513790232,-14.138337029816759,-14.402388510664672,-5.1335616121165835,6.292801472518915,10.95595125663966,8.976243815906024,5.430647907050089,0.6196988333606299,-11.061801030560023,-22.0502844238204,-21.0442036206144,-21.55233048048983,-25.997639841116307,-15.360979867980298,-7.196535036749459,-14.17993473067618,-7.632489476061534,-0.8095136230709779,-0.7098935086237157,52.021819956741304,162.1648291282631,307.0189324592566,411.9781525696701,171.5468959468292,-446.7906419118276,-766.5088900234749,-424.7253322757349,-20.509670241774344,33.929777025114504,30.846616000100763,92.90354372636907,75.46125798094067,46.35478616046194,64.36488801376808,46.25539149128588,17.002956473920126,19.222024333580485,4.924992879588584,-18.52235260131319,-16.75158313636034,-12.90906383942758,-16.10932431464314,-12.85923976068142,-5.097242259178347,7.686644179808146,21.291330815773392,29.11564155864474,41.26753767127559,54.1694462852287,52.546412097777605,47.90134260500778,52.399866702131725,52.925896173858455,40.116014146570194,18.253529736889007,-5.936073118171301,-26.61921098517331,-45.546737878034605,-63.80049032004452,-71.47967103771272,-64.91884947217093,-53.50533344931754,-43.49791350775176,-34.69718995543817,-26.437858602116467,-18.217339329835646,-9.545848239782984,-0.6542544883564752,4.823486249873621,2.808151662015465,-1.7328424189004181,-0.12842945609366296,4.195882378228946,1.1619064944603998,-4.8665310277704545,-0.9758167333179912,5.635717371596028,-1.2721559504465105,-11.50900074117877,-10.910528524235087,-12.354820558626866,-19.040989907566843,-13.724251307299461,-3.9662854597283292,-6.7893629217754565,-8.912343561103825,1.0733102693328567,9.838219626672265,12.695644150781256,18.666392694335293,20.868062004134003,3.0353930996330263,-25.003421378356357,-39.84712328064211,-43.176483812147794,-39.18275201518293,-24.79325564694131,-21.642807342939463,-25.220671968881923,-3.5936257893511954,6.548120724820148,-6.862102730617245,37.86221906889277,149.03938987587654,299.6728207039528,429.99811175944865,215.6479125562882,-422.00865262097557,-782.9932214736392,-448.04455393252204,-31.63653370356957,25.723018742050094,38.50603680348536,123.1758025020812,96.53737426707445,44.83673530039583,64.70238397034568,54.11278656937998,16.45032706669627,14.017075110343555,7.842543147415357,-9.612759837028682,-9.588703376692294,-14.266403805306044,-26.24217443230334,-19.386712458407814,-5.775096280997344,0.12875565349999185,12.663042275020143,34.06885050422386,49.89561617654682,54.89748906343862,52.550684398366776,48.87283498793436,48.272914270606236,45.565810557003694,32.47412640861132,9.692597045612366,-16.402310134672486,-39.79935963220427,-54.84084941365421,-59.74597353161792,-58.57442748781295,-55.347476582341486,-51.28551557632932,-46.40879960059063,-38.11112998973782,-25.175517704781356,-13.91353880156042,-8.61437629737442,-4.626971739184157,-0.33097265504363094,1.846594048332765,4.932579332183783,9.374214554899572,9.461686468531436,6.345079191240259,5.615122702247346,6.312187077591764,6.767605644296371,8.619947514382146,7.16330230082351,-5.502151984085717,-22.355605081543633,-27.807184135495937,-24.029315453705106,-22.991582237314013,-20.751518539110904,-11.027987789585705,-2.5985576882940826,1.7193899663446892,9.390761893211176,9.324662981242653,-12.560900523184008,-33.001359016861116,-30.477187635186155,-25.714611488288217,-24.697231635629997,-15.038702287095102,-16.78310853319958,-22.935829698434475,-4.410461118681588,4.990886419645692,9.683304510775828,71.45712363210527,176.236855841512,326.4544120973862,430.0474493856465,114.8340819275325,-552.4568062954193,-770.4136817553581,-330.7380556466884,22.53982051067935,20.622259244876435,44.76196269152378,116.73784500646724,77.29777203694373,44.843971527626366,59.70566442359693,38.07102672940481,19.611689245733196,23.60795106711518,5.221277174755799,-13.453389387567206,-16.38153458104737,-23.25521696405494,-20.859441957784057,-5.43840246919145,3.21076855412002,8.605183900084207,18.82604253803583,30.316967175045153,43.18189710703195,54.32583681378826,56.90702919821228,51.32635536404721,43.38597794894944,36.8187340954329,26.130904926614946,4.5325860450831765,-21.397794579743923,-41.99946940174002,-55.85647635294691,-60.97259919364754,-55.75291312555443,-46.34110362946515,-38.85036865607943,-33.16234137903847,-28.253643030128025,-24.611442479650997,-19.020291119054207,-7.676813856799956,1.5756227888773822,0.5641774023917989,-0.10567835849181684,7.74193471413699,14.56110602741737,16.591610709533086,12.162022110420468,-7.301349332059676,-26.71071429178008,-23.373117142779954,-12.639137873085051,-13.361194872867502,-14.612441695140792,-12.856930716558068,-15.43897919910464,-15.32126913752083,-8.549327984136394,-0.24414557838120743,9.367461871844203,14.94124949005197,14.852710556020138,20.60893154205423,18.599333770304774,-13.093889714293544,-41.507292329929356,-36.69314067846916,-31.226623691840285,-32.67258349507432,-19.617657303085572,-18.803310577271304,-29.78599793705085,-18.086167759450404,-11.920911124805794,-3.3178592120103634,65.9783750312999,180.4110255939484,339.95920168291883,419.2852814098603,51.757536646467486,-599.7599357505761,-722.2162626116244,-241.40299628372787,61.90256282777232,21.83182186554126,44.35538040815321,105.4181543580138,59.07865997348806,40.71003009333183,62.285943505361466,31.313659948015726,8.501171517184385,20.399153603711266,12.154068341363876,-0.6613501411876781,-0.5952123131465723,-8.460175720369062,-12.784064642747452,-4.181299515163669,2.3238472789670155,9.523377138225722,22.032174134345354,29.514019171811686,33.184706225399594,41.20215570529051,48.132383118663824,45.980002529743096,37.45951824776114,28.142247939673588,17.034049093536957,-0.504676834656463,-22.930124908042334,-40.389941686111776,-48.130290809600744,-53.12041184467359,-57.50500263444875,-53.72147356171499,-43.02947830104716,-32.99306506754179,-22.49028282204517,-11.470950980825691,-3.0528527821290403,7.002331841268436,14.71111179443886,7.022107029664827,-7.9992462401716615,-11.221582820866427,-3.419187438777154,3.5599401310666554,0.8771098191870621,-11.324955341848739,-17.24953488084632,-10.56663073888586,-7.95147460155356,-14.110793868146324,-18.5514631786911,-21.37366957776911,-21.346437637704085,-14.77545600075848,-11.925335310225755,-14.388166074302866,-9.93687780939671,-1.833337036371196,3.0052354586780368,10.113472178303887,16.52820832013352,10.755746498740331,-8.174855185594744,-25.886909410255434,-26.850102118529023,-20.99140294114762,-22.59778846522432,-20.88493745054991,-19.265422908757078,-24.034223859102937,-13.09743210668081,-2.831613877010787,-6.228538935197092,37.252406125195094,136.29959528883967,270.3352713297887,405.0669660044599,243.04600723568782,-355.24490273751996,-749.3152439665265,-445.37144909810524,-6.159676261272956,51.19629413004899,21.864068337153128,93.50203845906267,81.90791617776475,29.944014513690483,48.98468383438941,51.56442731753704,19.884151162297897,15.274527073245835,11.639838114693083,-6.0375941936350905,-8.512435255643203,-4.055343945347806,-7.31953576680941,-9.184083595665562,-4.850228332447917,3.4466597020497627,13.083188607984853,23.289708067190737,35.943641198853925,46.19032740807197,47.81535058440103,47.397629037258255,51.7408370297648,53.003369884905275,44.82867575678385,29.953461072379383,2.600994475577499,-37.64091419268397,-65.32679025298299,-69.1725309887186,-72.13424333778607,-79.7329316474335,-71.84392637184628,-49.206312419721186,-29.596024095941786,-17.25864467992001,-7.461403319876062,-0.5091040518719687,0.7431690531764232,3.495768991432417,16.273585882193828,22.71678803561957,8.81727307082959,0.06872028878651193,8.56034053533903,2.3419633916897418,-22.664458249901777,-34.036994641386876,-32.70902167396209,-37.858287467791214,-40.95337443170876,-32.599156426208125,-20.649478175483587,-13.020424593453711,-15.09071005909745,-22.552351320875125,-23.567129207687948,-21.80116618390943,-23.200165340975822,-18.509014478006694,-7.0139228392557165,1.064320344893801,-2.2440740923352713,-21.79695165921957,-34.38884278019778,-16.51413738885494,-5.749725606119666,-22.230537837760693,-17.86375117281864,3.901194808910354,3.2098075980369263,2.3074077058848923,5.9666060778627,6.004395449053064,50.52188880884115,150.62093260688306,306.1585539185222,442.8201003929604,212.3950935835382,-427.7715704863003,-747.9535127331444,-381.48378012621396,19.525458704060075,55.08303361454923,58.50217690180519,128.66215036146215,97.66376966513813,56.792483871076385,77.9517585961281,67.29335966214461,38.55051269933041,36.78446779295528,31.876178222613582,24.35092237836554,19.77526650487177,6.541765347666523,1.3713597203918937,0.36958775503978103,-10.679438657567776,-4.309265733747154,24.43185303949657,41.80636252689009,45.257005160661066,51.107146022649815,53.85585115484653,45.46225941864843,35.72070470412281,33.358477446695275,16.160307834601078,-31.66660122614654,-57.54602924173558,-21.264822477277605,8.917902051965363,-24.105557428654983,-62.41160499923331,-58.71383361873424,-48.6169023898249,-48.93621692941322,-36.2547071256735,-16.471801940153707,-10.534111760732912,-11.24806835731701,-5.56083036089777,1.470145012554271,3.5531760401387054,4.543067280065592,5.79083615838212,2.7036670304012826,-3.0195607428913522,-5.050088429885816,-3.9421696788632694,-3.4257577923528144,-3.5289334180373544,-4.50884962471004,-6.191112711510167,-3.820928495533286,2.1464615446674715,0.9342890081726063,-8.498471997366131,-11.323210936729524,-2.06334134329728,12.47345704906479,29.48731432260598,40.798790369115224,33.72263663671767,14.143061190939495,0.4014793502582634,0.33479617010526397,1.8104729069088457,-9.986469964267016,-19.7010888596173,-12.829727156875967,-9.71907555506013,-7.300195853906028,5.155647148836611,-3.830942838763101,-8.19339975702032,54.866407740263924,172.80352775201754,339.396620683337,413.6299070225386,49.941219060655186,-577.8350841355278,-708.4927530927241,-269.23854897010494,34.44794151890167,33.1454186156851,65.59305590789944,116.4565973803155,73.6021096800294,57.17662511851983,77.5227929650974,51.53777531016079,16.12921511054373,-1.38979962648121,-18.201764551878643,-18.162942368443318,-8.924710696156923,-10.840332551261804,-8.455233550929375,2.918749772695712,14.307911394266583,27.785376810890163,38.245836607215864,45.205373995538935,55.169158163302825,53.77521317978393,35.53326041504706,27.08694320625009,36.40471058868522,38.12740236490306,20.22767191313312,-5.457568090357697,-26.85958559974685,-39.9226081389582,-47.20212375166441,-51.72739921410423,-51.082837197289436,-44.75266852129373,-36.74499590016255,-27.23104493511846,-16.539298541342337,-10.651162782496797,-9.746685193127092,-5.971197444716784,0.9075853384992705,2.9131002929230014,-0.5495921724457933,-0.5398457262609213,7.594925411429443,14.7526354613063,10.94945541682742,4.9652417259404835,7.733780671057126,7.243973564429606,-4.219952403672875,-9.135381436415027,-3.3350927800400116,-3.8372549510411025,-8.604416925127296,-5.629470745115071,-2.0776437540124837,-3.5360040091514264,-3.6748373375222396,-5.021159930585545,-10.158364728682916,-9.110799795287779,1.1727166420238078,9.84950011702388,5.5095695694727915,-11.884721158996427,-25.037615852208383,-24.93298030816605,-24.92198056930375,-24.13995077789849,-16.436585853640025,-14.794801607526452,-9.894526522375855,3.983370969444988,1.532688447644242,15.818500211480746,92.01985414788984,212.8897845949736,371.4804983642302,389.34273037630794,-43.958175900063566,-636.3436282244415,-666.3857605030322,-223.1870835419791,14.91049167751028,8.48389225622443,64.5188846174254,102.59749714952127,54.46818152691424,54.08563305192732,70.64528599313627,35.475288533244324,16.267812658644544,18.859451731221466,0.7987397723651246,-10.773369581193075,-5.598938595484333,-5.43158261013874,-4.186324370087359,2.157462232196142,8.12579220786921,17.663256779266284,27.226829402532744,32.00251669559682,35.50037235321278,36.487686166256694,35.59823635751148,36.55105475447167,34.372787323685266,26.81104551301282,17.428511144098543,4.155772219773675,-12.835329992556819,-29.69149864878804,-45.44896422547357,-53.77767970349471,-50.490147198657,-43.800719321607495,-37.17730471372556,-26.99274406379576,-14.374043249107167,-2.4427474205276347,0.19420510311982397,-8.462115109575542,-6.546111395763425,8.65852340139037,5.6099286659079795,-11.631210503723725,-9.295799728256556,1.0610822623939207,-6.053890783402501,-14.531476972501089,-10.875710172702304,-9.244686372352646,-13.317262801902894,-15.182116489017513,-15.184461740775314,-13.573400017515377,-9.671626476607479,-8.101752061829057,-7.678044253197358,-3.190083429886755,1.8329762940389411,6.419695612267031,15.72450489817098,24.7531681961474,27.033870915899236,19.630096470250592,-5.267136288119326,-34.35940256965973,-42.3599924269349,-37.857377647299884,-32.81008866594884,-25.89372997039646,-30.52133896425456,-33.61048843655399,-18.25494497919542,-13.507148118860679,2.543877982222405,77.46423879458669,196.4156758348525,356.69850008191725,386.06461418738195,-38.74225962538739,-630.765578246226,-652.1271168138861,-199.39791072170655,31.597554948167677,15.194363288588033,70.13514185472818,107.17925317564601,54.96879681543816,48.139346953190696,57.33874516435387,22.05083371718277,10.214703163449386,18.38388763004515,-0.8038244620204926,-18.05002999552846,-16.48306339264792,-13.583503003033943,-3.778442728610056,11.905563873247075,17.217693596659227,20.36126434412536,34.19702101157718,41.67213968743098,32.45402444771865,29.404454178843682,38.87188968175495,39.544893779144196,30.64874250943835,20.693638996806747,3.3062968021279557,-16.463165783713606,-30.648428195912818,-46.10429878515446,-56.96241279718788,-54.77513116447197,-51.5064582063285,-48.34152941031475,-37.09259042995087,-29.188471472538986,-27.519852757184676,-16.765057154148835,-1.7369193099818503,2.7413155130760707,0.8277706954478354,0.031706093755683895,1.5832798142740323,6.81199066394411,10.472274882857002,6.339745014161844,-1.5522912660008732,-7.844104843734609,-9.923529280298517,-5.185123330826933,0.25201740776923565,-5.003953234346572,-18.91093565092288,-28.23590240598617,-28.29665305539543,-23.555444905311,-14.736353533573375,-4.253323304627699,-0.3613659085133474,0.46096781017335076,9.456470331862771,20.757804761953285,18.437229296362602,-1.9243127439177456,-29.353182411571307,-46.54190267696605,-46.12166694816027,-32.52143128972559,-18.973193622287884,-20.764789452460654,-23.416463252645435,-11.127839979007293,-8.818417450618782,-3.3267244201126704,50.945569151050464,150.21233720554642,308.68984882247275,410.71236238935705,106.07236388321348,-503.1537958455613,-686.9196533301731,-294.5159547293947,10.903330247377745,15.05235683870308,45.6895575190858,105.94510639042886,67.1337482746976,42.88107291934351,59.059203092291746,35.985718180084774,15.449937120172907,17.78132641523367,-2.334187286276566,-22.67255314697074,-20.175672034971903,-18.91093780430544,-16.047270934459405,-1.8937422515580482,8.94978603994423,14.07591579555686,19.636018977901912,23.71744927332391,29.364075660879628,37.43982181022216,40.500941207109314,38.15938683575137,33.8710783447031,27.443321266450013,19.799605742569305,7.152281741373376,-13.625108226205226,-32.60147878258674,-45.50683202973054,-55.98746621234153,-54.25383216153114,-41.70096329970616,-41.279749795296645,-48.57789069590213,-40.01908065303293,-23.50099833924698,-14.437963700290538,-6.51497809666521,0.7823874438994096,1.3265690689088423,1.6628090104259812,5.133549108386717,5.785874916746687,4.541920851592776,4.582424396371808,2.4497104596643187,-2.255076573336055,-2.4707614283630868,4.019483879254521,6.0029315512430355,-7.3015740065636265,-26.45056335854902,-32.42218598872378,-25.25282899003691,-19.621319837151944,-15.500744689695242,-3.682562478165199,7.265980512451197,7.888166037773907,7.198830345129998,2.1439075087190016,-15.71289617499519,-24.987181524822667,-19.87412681269575,-24.595896701598896,-29.474081796370463,-22.58965890164725,-21.626550966727407,-15.168761193357286,-2.976195039143647,-6.996444517322194,17.146554045450408,98.74555250720559,223.0797601919736,371.9995221029468,292.1049954408197,-239.38598920707798,-712.6518411250039,-529.5488481211712,-84.42678171131102,34.95309254983581,14.818779292329921,87.01381968548871,94.73763486400529,47.079150026035,61.070348052227914,60.79245848479964,21.24059848891133,10.907806597625605,9.075712050134804,-4.269401140377518,-6.538311693577331,-9.98829262151568,-14.554402866851618,-2.7177562791712555,7.721408462641718,6.325079051068206,10.277733096488353,22.453180391257483,31.742776048334775,32.657582945361746,30.76892799242099,34.660976191645524,35.76028244002142,25.64186426372553,17.22347422335371,9.11641568218803,-15.094077649533737,-40.258831000047266,-47.363511204863094,-53.47375855540802,-66.56310614106401,-65.72930321441432,-48.33305349748372,-35.89540989131862,-35.12575436500165,-29.434626210193723,-11.063714179602123,1.3489554533370445,-2.023830020617499,-4.489953071400372,-4.600658985678102,-15.566713379242628,-22.00597568728008,-8.034697263505972,4.9215505941580595,0.7897625026130832,-6.685843701367077,-9.992439943799795,-14.202136727007744,-17.24620754964077,-17.001559775209266,-17.83521613337473,-20.596528787628337,-21.105099274696826,-14.290122859511685,0.7317777799571008,13.995338809512395,16.810578980260605,12.68911306379372,-0.8378805924832271,-25.57376593204311,-38.844549595344084,-31.58246126530995,-25.74174050667067,-22.52089553065232,-16.684573077905817,-18.987704687378834,-12.052063030651386,4.386212435327038,-1.361521676911475,10.16595326835585,80.85247638407284,199.8362211725272,376.29846517459407,399.5302685863563,-61.77350629376167,-654.8130354965962,-642.8353659292169,-188.79679811369408,20.971153763235947,2.2997617414936258,59.462974334313884,91.87349356051365,44.673549766741054,48.21331257021755,60.36641928251309,26.090960162280677,15.213824566982009,19.394195705597916,1.306379240773424,-5.135974801115484,-4.070958341972823,-18.88522766089017,-21.564867572073638,-7.507148131938209,-2.3307935578770684,3.2786591121777913,18.957856583693125,26.45106594736778,24.845839518634463,27.422536150117324,28.669765106614022,24.94788599579128,24.366475872512,21.445271122403625,9.295592863038902,-2.7694551416979074,-11.778937948021012,-23.348554088592472,-36.44408830589112,-52.857842720112245,-70.52945491788576,-72.42325057490183,-55.045527759446216,-36.53665132385453,-25.93827433513162,-19.26227261982809,-13.362039081365573,-5.604562762408705,4.085161942371176,12.281562470501227,16.243450892641658,11.583572192917867,-1.7543070515648473,-10.352330650098203,-5.990487051661914,-4.015734806340593,-15.95921063013802,-24.51726363216354,-17.376288007750894,-10.94909971142144,-12.258305231604604,-7.7354530989967145,0.1344431325620885,0.5264003055085187,1.9844107046424106,10.623834466495161,11.957507440958608,-4.339073831934886,-24.535164527661255,-29.901500643633153,-23.79253006876984,-17.313889151584732,-14.539335538552205,-24.531434361584324,-35.70119550860433,-24.987073561191742,-15.620925603856373,-10.985210607754937,36.34892023125405,129.9009282366169,290.0674792711561,458.3896815249473,261.1246821998295,-393.8551032614696,-785.6237217835734,-477.9174435269738,-69.52195779718305,0.30999670031317095,25.78329016799827,116.12726860117836,97.63011873205086,50.774672971171775,64.10995920737201,51.54720995447281,24.916425444476545,28.26051665981851,17.603012053684516,-1.3569546549494187,0.20439691170096008,-2.927209126334822,-11.923443138350603,-7.133384064821081,2.431243863755295,12.788690305601108,28.4565555441794,41.06793291615504,48.127564886401856,58.16491184687479,69.84911178479379,69.54879237276145,57.09951808523746,48.36144117586699,39.46445282284253,17.850816239863892,-5.459405948414421,-29.571172932928178,-64.56975206766525,-86.87381827695803,-82.58070543095391,-76.99456776314207,-71.83221012831494,-54.69095342416206,-43.04504942029534,-40.04126547294197,-27.85811651520458,-13.175292167243725,-6.028217657168202,-1.814774967172852,-2.176662523178198,-3.7436437965004004,2.0178826211724683,8.368917921215617,8.682523683007009,4.692359683348277,-3.3155635047572964,-8.911008769237355,-9.239304083431204,-13.512756798653907,-18.607459017960675,-14.878719384494568,-8.708935769720785,-4.3019349982703865,3.9808058022378354,12.285998009191134,7.555018712714375,-14.571509725045331,-34.160194965325225,-31.07923039254264,-21.501002832873567,-20.105411064992758,-17.041074620772807,-18.542144952868377,-20.1304587567048,-5.867591739998439,-3.68050197030803,-3.378138750037481,50.01232193536158,146.42795246353063,301.9762327848479,434.3729549912657,161.40440354773278,-497.93460793712285,-764.4056545944428,-366.4948028860421,-1.6583884147800632,18.96789098393564,46.55039302885949,119.92408278502103,79.54262098716013,43.39152844580582,62.969541478390916,41.12772743498699,13.318968966846192,17.954365806470292,5.59353553590595,-11.322509786730638,-8.296976382069612,-9.91289823095062,-8.76741147002085,8.254551999049438,20.37036380453324,29.19953706014784,46.0585919251661,56.448090407152606,58.05727617219857,57.6185296113789,44.20285178685788,26.22879526993586,26.997854146547418,32.56838697006584,19.2080851102395,-7.282341753389826,-36.57334266890632,-59.105907519457695,-63.28987724690866,-59.16506972897739,-59.06163256669532,-54.56619368648431,-45.1455727853526,-38.902403735889486,-31.89967321116213,-24.607603087823676,-22.048862964879415,-17.165797536518546,-7.780991775394725,-2.4326059956830974,-0.5482953152937924,2.780531194809175,4.212477046813618,1.9751041677557897,0.2813897703795263,-0.9596204380721858,-3.1075928903263765,-1.7385803181663277,-0.19747481507764064,-7.920813421325377,-15.252814407651123,-8.759055166640803,-0.3017999861887972,-0.04489026693174836,3.673406760783079,10.874000191820453,2.200058491978803,-20.248204902021133,-29.58592287967128,-26.366261943463346,-33.56302401001875,-38.84806258827529,-29.229209347323504,-25.93403414792013,-22.025264247249147,-10.300120633874148,-14.171510502508937,4.961224914619617,88.81871111983322,225.9501130004114,413.05374345394415,411.2751238292475,-109.58255459720965,-723.8531447915105,-654.3870482669073,-148.1801097418756,48.95103466122376,14.208793016034955,81.30238923663308,108.22556092248522,47.90176769458027,55.615381687573404,65.56196301694499,16.854044611113356,3.2754344795720574,11.513932621453948,-9.943868324371204,-15.905063266381628,-1.6903424476416258,-4.896916017838216,-7.352024511666351,9.178988183985062,24.659624067967535,33.077567058601176,48.5318904403418,65.05038460325432,59.55454498409803,38.94327561636865,33.101268706520685,38.10954427214442,31.801507752498416,18.244533146294025,1.5911072542683602,-24.293342947562753,-44.492980598204085,-46.888609190245226,-49.83904388442277,-62.238739293199245,-65.72246420908687,-53.08567739168719,-37.19498138490586,-24.909049369308782,-15.2092854572821,-9.596559926515447,-7.786169631056378,-7.097789209797167,-4.07946820081073,4.645052397504934,9.129037322724535,-1.399633179542187,-8.371994265970631,3.2063325707698027,10.009522645881415,-0.0681255004088328,-7.183674603940137,-7.603584508586662,-10.571195338781127,-10.153745981890413,-2.7427963263527726,6.699859223652622,12.963359549139057,10.252305027320775,5.365931400113515,2.4373272157870662,-13.794622719831569,-33.36975195665708,-31.706484534050563,-26.58671895770061,-31.085046483465202,-28.458755425234507,-23.123186295168907,-14.153774430853026,-1.0208204928807536,-10.865330594104432,-6.5786773680292026,64.61655940837215,184.87476282627097,366.12134468668563,443.6819463126467,38.09561321414418,-613.5739796646978,-701.2768637284526,-238.0703884189575,25.30836558910959,0.4916637911870545,49.05637698936423,101.05809322994547,53.05270622492313,53.319320964229206,80.51773938202933,40.855744654658096,13.823139118685177,25.515807101230585,9.007918599352887,-12.064394720422545,-0.6125651592886712,1.5623635819671002,-21.460929678034876,-26.29974236788754,-3.296249814485149,13.380474350396867,18.700662582502726,31.35912658615332,45.52479022646982,51.637115746607776,55.31277909757203,54.31063442126616,45.18770787812682,33.18015339253738,17.238438662562316,-2.6439402055759187,-18.236658192348045,-29.01972325909709,-40.77052755983771,-52.547680202582605,-58.11413740105075,-53.65590906927402,-42.79787530276723,-31.27643971269478,-20.78459076250556,-13.817766839945278,-10.026348585075178,-1.627459239271822,11.626956832780117,18.689558425996893,13.752509234183004,1.5358103882393905,-8.20242518827444,-9.091809505623159,-5.850481991939027,-5.258645312938327,-7.24188824395058,-12.317615151650731,-19.162534932875197,-18.25648159127343,-7.827369328354862,-0.5390097855799443,0.30196010031058584,6.229604830731166,16.25223911600819,16.6996463694402,8.09769536975277,-2.5145942470008134,-15.721724475725079,-26.47853997481528,-32.3695047226236,-37.56689771740146,-33.653967365795715,-23.436622427439197,-20.67394606150539,-14.115643553389411,-8.957765131889433,-13.160620497084434,23.619567742659452,116.82242599043866,246.6738998422684,389.30119138046746,288.32123904405313,-250.6894707575672,-703.9312236845042,-508.8153967910553,-77.32697447583266,29.062566058617165,9.81186919272497,86.88046925660919,97.00206727904026,46.85565198108141,57.565647365012815,60.51712516642862,26.886535974659274,22.13060643157126,27.137579727216668,9.810582494582903,-11.531296272563097,-25.828404405075748,-23.832936577558886,-6.035021548864775,5.9833621797579255,8.440688368834916,10.124652890274252,13.554236640648542,25.702019540852394,42.53589288946972,47.41182045174835,42.89212230333002,41.93526705425471,40.328406265090216,29.9686631146407,15.003814767827063,-2.2371846350987425,-25.376868541355474,-47.15012378627896,-56.01798490465699,-55.65693346220899,-53.647005895711985,-49.433726297621725,-44.18103853010663,-38.18254186476668,-27.705842494549067,-16.90320268907979,-10.816628998546062,-4.0711987994248275,4.969217057771235,9.68936487116796,10.548536645585168,12.30157747650614,11.600186575435078,7.614391901320695,8.37257849555481,7.275661563993843,-11.577647677575772,-32.82266213811901,-31.956582551702404,-24.387427558288195,-27.764782888413887,-26.276273662203465,-15.596568760120498,-11.83250264130455,-13.991695272943154,-11.5109983638707,-2.3665343382487833,6.575262431490934,3.857308685335987,-4.021319221676126,-6.493290927218684,-18.61963678254866,-36.29259378264231,-33.451188078636,-26.313133560484275,-30.829509607471483,-28.132577109844913,-25.470400055911256,-23.417983271252886,-5.250901914661796,-2.7022136623536346,-1.0667862839861453,71.16375095682398,199.20753816994477,355.5012621218212,422.3108442961458,78.30640904709638,-551.4352287798806,-729.7147791312079,-324.56254878383277,-14.736293873489146,-0.3535624138969595,47.1800718643562,109.01990767960623,63.62035126000218,46.543558283367275,71.1470652099151,40.993444322921334,15.420961294743364,27.422200383514536,11.499412981549092,-17.674558792016995,-15.482760560337747,-7.227256107716769,-12.54321754053365,-10.395202005654484,5.034026130649517,16.317860330773122,21.916898665454426,34.20822215774786,47.950911662940605,54.18031101927193,58.44712578153184,57.30821573433769,45.852420329151,38.645580162559405,35.16224164591887,13.577221389536893,-18.16888571212837,-31.04381116675825,-30.403995936936635,-42.880867929439674,-64.51360195660222,-71.24366870116852,-62.90359408584422,-52.82206109749364,-38.06441892725077,-18.918053193055712,-9.280474598798431,-5.0663769873125375,7.424126985851304,16.96564135232762,10.131712158141028,-0.5314873635668249,-4.0669235093701985,-8.575187754587635,-16.119540158818538,-15.807635905109827,-8.472520072652717,-8.515010682196603,-17.071853481539694,-21.262678286230788,-18.762007591641154,-15.577785824322198,-12.276363446383929,-11.4999432425724,-13.16094947989251,-5.07038799947245,10.368211107219786,13.64967393083449,7.663287858650495,1.9774149379860368,-13.216418782327636,-26.523804254305652,-21.44323996015336,-21.945795755938093,-26.859303491045395,-9.515645356475083,-2.397433879356342,-21.149887461031668,-25.138882087106403,-20.668402103184622,-2.5900054840146236,74.76503694829802,199.1029344504864,368.3431591700061,446.57976037682084,62.71890667911062,-623.8777168196403,-785.5123999843977,-311.28915694593525,21.587767110310498,11.941341037043394,50.74087894505587,119.69503033150784,71.12324718936841,47.107955105768184,71.08690774687997,43.26492249453357,16.75651790931432,23.277030794691782,8.965365430322683,-9.027246649474579,-6.137844097137792,-6.512315256411581,-4.530122933677469,11.203031009138474,19.497304188396157,17.510882141313846,23.21261503824445,35.573207157812995,47.72160971698655,60.5444309261506,64.38929360390766,52.86463741087248,42.542239778498626,38.996528064794276,22.18916903057855,-9.089575298578604,-30.76891618711003,-38.08693875673929,-48.971308280159164,-67.6831725205163,-76.55909449452413,-63.33116473059492,-42.923302710619396,-37.599745693595935,-39.346527170637074,-24.349756862304325,0.14261155451538343,8.359529564377741,2.7658708637961418,2.875630149253885,6.7642484473857,1.4727443481325295,-6.665898640462405,-3.852440964001076,2.1223442262209495,-3.170845795219879,-12.070359088967606,-12.972083572112522,-10.194361210873211,-7.976785735704372,-7.574930478147344,-11.198837393995348,-11.206645103503568,-1.9554748048135018,7.8158465618651825,10.957441495692084,8.251176000360575,2.961975763559069,-6.395718295035836,-23.440559155047396,-31.387482041263276,-19.587784845756154,-16.43666483339223,-30.97566871325263,-41.12426310165735,-42.99205694796793,-27.85903063151627,-5.957341990636197,-10.847423131357028,9.30913049981817,108.17831490370568,257.11892692087963,435.69703789228726,409.0598892514377,-143.77234320673972,-775.4053060411569,-689.9521971920436,-157.19159562973496,51.135005575936674,22.140933211623267,92.72062850779064,109.32129313346474,37.279972908518644,50.26389079660434,74.47094459737913,32.46608231061346,16.912554203812658,22.210409394697432,-4.089783186151311,-20.39185587130323,-12.291861466660535,-10.367578043810196,-8.425310358000976,2.958224781197492,12.00389302651471,19.52583525701266,36.04467666702948,55.42854628833193,61.02909593847421,54.862829887653916,53.44166861638983,55.59091834394145,47.96277728246308,31.40603560808298,13.142091730529224,-8.890348122445154,-35.52049641299591,-55.10917872262113,-58.26991090509701,-54.6530994304137,-55.371538082017615,-53.28137355824586,-42.681218453175575,-30.486072197900732,-17.747713802097174,-5.966494132354477,-4.339598329886808,-5.007233029805633,3.396892245504109,4.188051146069869,-8.762562485870557,-9.704107083808708,1.0609269678161013,-2.9231359370613212,-13.812956051779326,-11.416961961467088,-7.777587302423438,-12.095097712328482,-11.800576769838552,-7.112174232111679,-7.135828986086636,-8.181574998472197,-8.786587569645341,-11.487240358277765,-8.295137636715857,3.8397933644573925,15.839290798587893,25.787445844585896,30.416923391208726,11.584576993532725,-27.553140903709156,-45.512775898743236,-26.943918716257826,-10.24376946325772,-12.311874054449294,-17.40495487987601,-35.44016025508333,-54.12675956071091,-34.457652469492515,-10.380459155263447,-1.3418498546344457,58.45222992004132,171.91661012574173,322.23156639425105,445.4255052892247,197.8891866091971,-480.11656245446386,-838.5300968243098,-463.0310168678926,-23.398349454654173,28.035889344036697,32.84629653668034,113.98074438867363,89.20216533825759,47.277717266893816,70.20133112667622,55.332023891342644,21.506613543390998,23.24849562823544,11.49198851958565,-11.29048639609746,-11.447061656523243,-11.003938172136863,-13.144888929086559,-3.4411941886246478,6.557961887698461,15.593580486034316,30.337620673545757,43.97688497638535,54.726031250110616,62.92162662298436,64.84204038988885,61.97994450295184,52.025331854415036,32.24361353821293,11.720277140396774,-5.568187702094633,-25.025518696597615,-43.327543984052454,-53.949606886117664,-57.16519226261329,-53.87987994646281,-46.90104812284183,-41.62171645691424,-37.64778315286978,-31.378509191926867,-24.170040969730525,-19.41815227063376,-15.892579225121182,-10.05157718370296,-2.86979706867751,2.7497224926583463,6.32566807164234,6.769084191413416,6.135937841112931,9.154869816295221,11.49193076794976,9.499571363140939,7.997012130304264,1.1673836212791464,-14.37848521188977,-21.219707914375206,-18.83425701306768,-24.236874003842615,-27.541442076128426,-21.00768520779708,-24.021126881736173,-30.48818177480254,-16.533639222237433,3.4646729603080786,6.626500261341704,3.507654808034461,6.084976726330716,1.548792981185116,-16.278861448016627,-25.92125778890625,-21.745436520354048,-25.335522716548475,-28.22451667672439,-17.572946946390687,-16.29679886642455,-15.28128523431258,-1.657175601960196,-5.6061291886082945,10.363506672737667,95.81313029294537,219.25304948655887,377.49645781757374,391.4686621211075,-79.73692033189525,-707.4034454230398,-693.1585625962548,-175.28010535083047,69.37863515582944,28.64975311497814,74.25450353535373,115.04571653385989,61.22519851744292,51.408432885148535,60.479464406383,25.003592840265277,9.314260763051198,12.841661700370135,-0.7712033543992884,-6.16224297711963,-3.780426485287616,-9.748634298229621,-7.777232870963544,3.4841349786833717,13.083631539837995,22.770301789075305,29.50966466217927,33.86309952247884,43.70827286939094,52.44951873337393,52.74931608777315,50.81307486781942,46.219145358680485,34.76788578107193,22.291010520498922,6.853169780936309,-17.154134322544476,-36.428023625144874,-45.253611508301844,-56.49643897277578,-61.69321301535759,-48.77893840907482,-39.34349535944699,-42.91129072423033,-38.04954680568112,-24.0154956979177,-15.277264483288981,-7.394969651641574,4.01156492637171,11.095082359718633,6.4616228948680785,-9.528025677082653,-21.215746472902424,-16.162754211697116,-7.7267517305627855,-7.943588110247145,-10.008155507777865,-10.94516684278145,-12.442881269131771,-11.09858453171807,-7.548400779235918,-6.753560756661102,-10.586548457642763,-15.306748446618863,-14.074892983932711,-8.753002536891056,-7.586309459807321,-9.572354206681574,-9.877112016656781,-7.451754854218276,0.6666893295363971,12.518541175794551,19.170114514545716,18.801021794177302,11.002426303747715,-8.350331559658697,-26.636544397639177,-28.544452243605672,-26.94556886697064,-29.18493755904769,-24.025919886892698,-23.038828076620277,-24.472148757731567,-4.212068098208628,6.867199063147005,1.371824654715148,49.21018412162955,149.23545522733357,280.53567219036586,401.3549826880698,198.94744120478987,-422.1795929157428,-777.9247073185821,-433.40799133564656,-0.9063208439374328,52.41974639981,41.98815139865116,112.78693414439942,88.38329852801002,42.71937107642488,67.6837270448864,62.72990642116754,29.06764481902755,25.22516252827124,13.160682605698614,-9.55161541821683,-7.008280012495925,-0.01933680984551156,-7.0981631470305295,-13.075745526542505,-10.499840480827428,0.3170387909841743,17.450571388663246,35.56272462648381,49.152341389339774,51.34226159172309,45.595819736337155,43.748268380287556,43.270746633070466,37.64398612649865,28.995290765246924,9.729259089052224,-24.63395020821248,-52.234791528747365,-57.866314693102865,-55.86759383830062,-58.12340398218267,-60.056270005330376,-56.81015588116075,-46.357513162545025,-30.57133495094906,-17.452111138460104,-10.248629843492871,-5.027134990445035,0.0879875596895836,4.820977265549182,8.034905158643017,7.890560548091248,7.937874552449062,11.053038806863857,8.947807824405498,-2.6688241814958307,-12.390233086491326,-13.800877827298326,-13.702015901143799,-13.940903099064649,-12.053378738676766,-11.201014638568477,-11.622902044387972,-10.770465065647116,-11.21572283291539,-12.316936112296759,-10.945857283021862,-10.377367852447584,-10.051136222972001,-6.328016497572126,-4.965619565427989,-5.307719299088256,3.2969920420450487,14.080883112255101,14.598715315465089,10.88788540680406,1.799509339838533,-18.873290760871637,-29.660561422340315,-21.724179938188172,-19.383034719786366,-19.372090494207583,-11.2036952402396,-13.15229712949495,-10.878980903371023,6.7165854916733325,6.542877599402727,21.138607939246356,94.97338986055757,199.00040214591093,336.1410617763233,350.1747934657569,-77.59339513242733,-664.3785123457449,-671.4000864308914,-193.783008235855,55.278498451736354,36.46282861818425,85.99142584966512,124.25202451281424,68.65808354312091,60.784302426755076,78.56408017527104,48.60627132247902,35.37728519320541,32.71101182622848,-12.744616705606465,-47.66972078193992,-36.0383577261318,-20.66557495538252,-15.380652819616136,-6.252604958206493,2.315801480911419,9.430562457986746,19.912798503676406,30.12658956803714,38.41382258133576,45.48653663320434,47.079413955585636,39.883456366902905,28.023842823464488,19.52209303461671,13.113966023148468,-1.573745404049113,-22.720063659617836,-38.205812973926996,-47.04379224642528,-53.53654469650408,-56.70123059523408,-55.719484120859576,-48.34867891468234,-34.4314607581593,-21.936476280165703,-14.27213014304046,-8.82250246300747,-6.576402050845498,-4.510990980405719,1.7568591884422382,6.825092447803597,6.541287141817531,3.259833455389085,-1.3075995905449052,-3.181147783600398,-1.0203924302898617,-1.2861705464267157,-5.356254039262842,-8.203438447242757,-8.073263393291658,-4.6101694808382145,0.5759339409622015,2.8368594759388,1.4973403569391408,-1.8382656937007855,-8.85874353558938,-20.109239730339144,-28.98412001804663,-25.835314416536633,-12.927356018160625,-4.385551274159271,-1.8371308802369146,6.592700199636555,15.794409811617841,5.27534524656446,-19.75565139438173,-29.349799617246273,-23.51363459295559,-24.83548868368523,-22.96513570735711,-11.620826240694868,-12.946621694763206,-11.000602353924572,4.704163720661956,3.9264863846289035,26.814722957294826,114.94456558244138,226.63503863137294,358.1654508097737,353.89555497305867,-93.85807752349936,-680.6574573724594,-670.0714606926931,-187.4180632459776,51.62922977654298,29.37473199164898,78.12250616024215,113.32657131608367,63.635984552806526,56.26329684398026,55.777090354989916,14.825305025945223,9.930378454292448,21.0474007612476,-2.9650124083368246,-16.895037442926213,-9.745984057138028,-14.000877471511236,-16.411454574557446,-5.1665024922675595,4.072843338547793,9.546526785432462,18.572153544051126,32.80128533147955,49.26099243800363,55.69620916003967,46.72337434959413,38.8072616283698,40.55953711320386,35.206940162847204,17.52133640948798,2.276225797469877,-13.639770448536055,-37.4780193105037,-51.078694747549925,-48.95660897693189,-49.078910733787964,-48.39114260132587,-38.52769008149042,-32.45931556259466,-28.05644483255883,-13.499357436292513,-5.6089238364873495,-14.385350811030378,-18.46668697478678,-11.674329089011813,-8.383426191526407,-7.219308507701793,-1.3602617412640754,1.7562181892197302,-2.984222612293248,-7.726712195157912,-6.854757746103264,-6.1807381356545115,-8.946927511361926,-9.226074322673433,-8.576833683564782,-13.40293999764691,-16.16459899334805,-9.42508304968242,-2.342646786312285,-3.753164950313673,-8.740307781295868,-6.389719086246773,4.552545563089152,14.228075468860197,20.04907317624934,18.304026316141897,-3.5001907801011605,-29.33670600506171,-33.499471880076854,-29.400072299860362,-26.400032643281023,-18.888177965594735,-19.77725903887871,-15.430830008190812,5.934370989871404,13.419075660602122,33.98230204081758,105.87553586752904,211.55379382391163,368.3120431278418,388.31341205610204,-84.99811472186727,-719.6411508399966,-716.3821302141611,-212.49614265065134,34.43175559399091,17.830377841982784,83.27668330075122,123.99625203791825,66.33254328932591,62.86296417627891,77.0173957831604,35.6501291825308,17.000270756063735,24.408298322149925,2.1635484381940215,-19.037884507064334,-12.879237940143938,-4.563969512956461,-4.075796125819421,-3.408036455691531,1.6972860913314065,10.743894041923802,22.632826245792476,40.82561652903302,58.10947982909275,55.392147842084874,36.49663622217591,26.392094315700596,28.69979773569049,26.829714555548357,15.757572635003154,-2.881687631444013,-29.55584344192775,-51.24083718205827,-56.56391437056872,-57.83535793065825,-60.5741234785169,-52.72658617308077,-40.295705451738456,-35.25919376317148,-27.51202378329218,-14.092445457508902,-6.897974924621952,-2.7521414756480524,2.522445956670836,1.5805248718528357,0.8708394997146378,7.875961726273608,9.99931240427464,4.572191800875492,3.087659816102807,-0.35340506920712755,-13.60749149417331,-22.603477431641206,-16.289643159232767,-6.632744611619751,-10.509598598556098,-22.17916910101923,-17.51530829616129,0.705176389505116,3.099830100244315,-3.975706385400118,6.535093478722834,19.457835487677407,14.917941221327691,6.493685154782005,-3.1217758592704694,-21.284155812335687,-38.44195346063128,-46.055207226619,-39.24292213822725,-25.74902320192418,-22.173125535069246,-12.866676566321328,0.6650257117873473,-8.404083298780423,10.72210854804305,98.41330618143877,224.81654063411048,388.37332670791034,378.76751929154386,-123.2258423129615,-722.4252017697218,-665.7289090405989,-173.32456361674699,38.717942216416255,27.346612669020356,98.96670874841665,120.71533889858692,60.518754938962026,70.91452992873766,78.99734912872952,22.24399488213713,2.949115043887037,14.863849732526443,-7.315557967271174,-28.106637595407918,-22.17976129568573,-16.204314088110934,-14.906963265695591,-7.84288391497545,6.147972942360999,20.252666121920157,28.07334882614568,35.959886670206856,46.88165972439212,51.2233563271371,48.137684038365876,42.33773647352076,32.64460269061397,20.893332317204198,6.6034350845803145,-12.980075424784381,-27.39129078432287,-32.44243393365108,-44.264880016460936,-62.07997530445862,-63.769319500004656,-49.55583660007995,-38.285573286448155,-32.57550495259401,-24.496387850816298,-13.265804422946292,-2.6330414672106386,3.908572151208922,6.719281789690456,9.590778738228888,11.071730625062479,6.986217148786563,1.4876226530779597,0.31023903332357783,-0.310786403682906,-3.4408821005386283,-4.863906421708958,-5.380726105341122,-7.202630403493707,-5.923172163204445,-8.50623728265154,-25.283261128776765,-38.07862903104134,-27.72009433993305,-9.153931737614345,1.6695079421525847,8.383285049967578,11.447989390276039,5.700549333118984,-8.77793141979353,-24.63772773448936,-33.167430268922715,-32.832230229468195,-24.227241501572063,-14.380868078040734,-11.218357431393066,-0.8591270556949908,10.493942464742311,0.3799847689398561,11.910319365384638,74.9039067026554,174.3724961590885,337.8677043969098,370.786844336631,-77.66486980369837,-673.5645415124769,-655.3938166194088,-176.2937740949465,43.183241312314046,15.253979842476465,72.28863859608657,107.84230345446396,51.78807561972349,49.07309123213808,66.22787203575126,34.40898488674929,19.60609844549738,23.923564938350353,9.298277883178896,1.3439823491612584,1.3408744769090586,-8.095853855487873,-9.493239132348345,-4.353394088255329,-8.73189778703731,-5.81757531093592,14.130412725729375,28.36394940609452,29.73060739467227,34.69970904723243,42.07701325217769,39.8008651684373,34.57876295056249,31.199102810580165,17.227616931975984,-5.735644763118968,-19.336025572836288,-24.393301902808318,-37.775475223249614,-56.02918635234908,-59.41936642310053,-47.99614177282917,-36.137023341121655,-23.528177548543855,-10.07185871594745,-5.961540853932867,-3.5437520821970168,7.5122563536038,14.472524141249863,16.436661032980023,20.513473254071947,6.994867842400367,-19.769163640830506,-19.677996946027367,-3.540472167008872,-10.385535728569975,-22.396323792471172,-16.898668786687796,-15.338723839750678,-20.615296281235764,-12.328090778266734,-0.02577538540616331,-0.7566660618819405,-3.447267779966202,4.0057288217620055,11.364273851546884,8.654804820099297,4.179107064599411,-0.21469767118973238,-16.3099065359675,-33.29443004510178,-31.913303191627506,-21.87489105485853,-12.238354038715416,-6.377011735555946,-16.55549206863519,-21.269076914780506,-5.520534555980335,-4.728196637401382,-0.533028445661019,53.86264734782175,151.89639935654725,310.957076851684,386.6302914024086,37.248684814051146,-543.0144181752484,-641.0374810242224,-241.83667833741083,8.823061951077527,10.732682953870148,61.98591484930921,109.80401327327621,64.70748888629235,43.82416176096412,48.46040377752226,28.898800342415186,27.136354927119243,27.106412447999773,-0.20691414373655026,-13.796116772126902,-13.41871843212186,-19.095160930948538,-5.876826018896395,19.11133805511107,21.35970039618857,13.335140325247234,20.473215500688525,36.466420401871574,44.488342406995585,39.59721830257657,32.630581115901514,32.98883159286437,31.241275562834858,21.744844018047722,15.749887205913787,10.060802375346583,-9.214821510871163,-29.526223302849463,-35.753085797930936,-41.66493401323939,-52.62038134501231,-54.09313289706917,-46.83133767193506,-35.75444333812527,-15.927363042323233,4.3064184713562454,12.397091246558075,8.854899453068567,-3.2240074919040396,-12.809950179379136,-7.3456260425021185,0.8465102960538147,-5.56530057157368,-19.18835399865013,-25.117877620126823,-21.897814843711814,-17.302826696380436,-14.124736816051852,-9.041993339856557,-7.356495696344997,-13.272334064433318,-14.962246007818933,-9.441547385778122,-6.551274811607136,-1.4466760232571794,8.847754833435225,12.28847296622659,11.60445759703972,11.935885844683582,0.06286147934379471,-17.746447685066844,-23.027628408932642,-26.98840120076594,-31.403932289966562,-21.16791240619267,-15.220664713054294,-18.278425198219676,-7.24106661030777,-3.4798827786061954,-3.5912070207867366,42.260041060171055,126.57278277152946,264.1972162211622,391.06538150068775,159.84664744071097,-438.66830846504945,-697.7367040311055,-337.55442546354936,4.360712949430948,15.346980957620005,28.42904787498572,102.04456061190321,73.56134660461602,39.07285848232945,59.77838789756642,43.19893220351243,11.063520661055257,12.712335739704402,9.92828853882985,-1.1527272254164371,0.5056655420651086,-0.8318734043516274,-8.642359899354007,-10.992949679693544,-7.327882239031753,4.460356915645212,19.798026135526232,27.15078442508248,32.48925323878528,43.18946657956814,49.458480791984435,48.07248459255227,45.380652112373994,37.532787402300684,22.12815829456359,7.4817178599328376,-5.569389367947366,-21.845376093333947,-36.77965846164095,-47.04147473803988,-55.94580369437891,-56.62469079836171,-42.310313512506134,-31.416715102362993,-39.77602225881241,-47.2425815523158,-36.00122915249026,-21.4187124452867,-14.813917124924469,-8.740203509216045,-3.1781278164465085,-2.7388517511494825,-4.223772991329547,-4.157782925091368,-3.339236013585303,-6.09555356843169,-12.55383716520155,-14.581628497689934,-13.659258696083828,-18.590622262886438,-22.306038604680648,-17.670095262286214,-14.33599203202182,-14.18582191795073,-6.983726106439368,6.073774615923447,13.344979304626767,11.999135437902751,11.756075412130347,11.057472139512136,-5.794223925673895,-25.90881603744507,-23.98399328699454,-17.251459237818132,-20.24739171107941,-16.434633417477674,-13.95896330626875,-16.05812825176702,-5.295209599117249,-2.211020951305418,1.7095414827650774,57.04107983952425,161.66713163411106,319.89833251494605,416.4338117941846,107.95916519329691,-511.26919929354165,-717.2192117611385,-338.2204074550469,-18.390952337312754,9.461928705778387,49.06207053702593,108.8103593348869,68.85085106415463,41.55689671943765,58.67386567922987,39.66956550662064,14.289496173457257,14.334098257265765,12.933955590195922,9.61819847786813,3.074833668062436,-6.902498626406896,-1.7040355310726163,4.427981609433332,0.17379520046489105,12.459329974683001,33.54154852566411,34.51608704152444,34.24447756616387,47.983124955024984,53.95774956612867,52.61136654313293,55.23658443068736,41.43084963635385,7.916532663529073,-11.14103022312657,-10.480576497379914,-20.131436366211926,-46.206030179253794,-68.48089681156827,-76.2188695152079,-71.93913670725755,-60.32016712760664,-46.044372190656425,-34.26651874339527,-27.03228560824681,-18.66683652713958,-6.383805383861155,-0.15983525243296626,-2.1855039524687,1.4064723499698673,9.05393930736491,4.392025865588934,-4.669062521383573,0.124010951128394,6.261312162540284,-2.707924856765562,-11.624702928313033,-8.958659003465257,-8.162962099378955,-12.537435651265211,-14.211351923744813,-16.663011426795862,-15.810421517347066,-0.9015445369446189,15.872763879192913,20.136749102835797,14.925522774514256,-0.2947365280962657,-17.684025102850846,-22.21588545551802,-27.581909372731698,-37.107318684350986,-27.446851363147793,-18.305924284215266,-26.37099975871034,-16.100137840411413,-1.4605482833268084,-4.1510018687839745,33.894089905395425,129.13607105921113,276.77794481281813,434.11309938558543,273.54727891036816,-343.69337571622214,-760.877181379226,-483.7894489280229,-55.73376717549663,25.14061756157905,23.117968244889045,98.53874248627854,85.7470018365076,39.46227463099662,58.11370588026752,54.35205412139766,24.428802510282324,28.439748889747978,26.05901864449963,2.954409361327172,-0.20468618638625813,7.600872611503904,9.61554186070972,12.856723509826551,5.977556952721538,-8.520842347235654,-1.1084442757722872,23.53525264832035,38.23857609685068,45.01978263174843,48.95554486871666,41.694525363040576,33.29068264340687,33.599477642160196,27.10839759072568,6.800350820862958,-15.42661908274166,-33.25911830388225,-44.25913973639834,-46.34833090643418,-44.90202294095606,-46.3424932678501,-50.97132014161628,-52.36304523047681,-45.72235254457837,-38.222800221904066,-33.83694992209591,-24.642964026983293,-13.817690393681836,-11.50720217756832,-10.115981900274864,-0.17174365381080037,10.102533018756844,11.49280038651282,6.268456656454855,-1.2486878849882004,-9.765103000073388,-13.798529733730263,-7.87388374901156,-3.620380971857575,-14.32552116583496,-25.096504049689525,-18.542944776235824,-5.416793343576671,3.291339293887253,9.818262319407449,11.563606939897598,9.014252018297118,3.7977927989960234,