ECG,-2.9087319392289492,100.61315284885694,-204.6286538078611,-364.1291362498532,-46.6551413705112,173.7190413812732,11.355449161649119,-125.49536581025788,-51.317010910676096,34.41564984571059,34.635227937920234,-6.343985181571481,-21.400541159921605,8.701865747551238,14.345276263429179,-3.520904694359256,10.615188084584979,-0.46621253279916886,-46.12357209179542,-36.151880936078236,-7.946260764069331,-11.105176780946081,29.47602469364223,71.19379656318597,1.0623959707435588,-82.3647178031458,-64.26574132051606,-31.772646548648744,-40.11178377097002,-48.738853059091355,-76.90644244753256,-72.10558416519315,34.887324818883215,39.661934882059924,-145.1497509603606,-188.47008197191937,-13.940887520462155,225.30392743309653,722.0978098824681,1096.6317473355725,351.29071486295504,-912.8487179773413,-1011.0803315105952,-227.31114672153618,28.93289054627988,-95.98308580617507,35.88442707788632,108.7502799306458,-1.9474374122743647,28.18588727014906,92.70658561880559,30.18808437685559,6.341407375945966,41.668064225045505,28.883313113677644,10.766877010458183,13.992402186570452,-5.7337584998349875,-24.30570826763093,-16.285740795259706,-21.35207806271786,-42.835654781643754,-40.57052706813063,-29.40806759511259,-32.67955974212132,-8.839030570714321,44.839198400644435,67.3627562437436,67.12151696664876,87.35027067820205,107.26480096737464,122.9347340897692,159.18418460454455,169.75423476103157,111.4410792481108,42.163472878654495,8.0416683371249,-37.13945425249248,-107.85796874575296,-128.51740088855453,-85.3908602439059,-70.41411190111656,-95.43530518577764,-77.3206861408192,-28.060219397293597,-14.738289457651845,-10.414459942526205,18.531196830434244,34.723749635294865,20.952911183846894,5.821016432513863,15.190045535330867,37.220567107785996,19.300126504311468,-32.519606722247396,-34.774229225306236,5.400370209075875,0.9715248509170991,-30.801165739815108,-22.080149830844896,10.58455463325644,28.2860171473219,21.016760451210697,-8.963890937930538,-24.91382259819305,-5.5510607685246285,5.464843445364838,-9.37648692560015,-15.648895495069869,-14.293504674006726,-21.588078926883057,-17.868476702298462,2.8897948565612257,21.903375876199753,29.374839702403843,9.153719697307004,-33.17293126743367,-46.395966622450416,-26.585716945594147,-21.137564778264263,-30.44907970781024,-46.683222068202824,-65.68524867407613,-42.54189437567348,-20.950098296194618,-80.53141229397846,-123.54903273160227,-34.55581190208815,266.44814157036086,807.0733574721929,975.4437140611404,89.34536087535139,-969.9612148586784,-866.1634457144867,-159.88134769735427,-0.4722574257164105,-86.28052950294166,63.60585076629039,126.63348534247189,41.58872417510104,39.69005342848803,37.220881287837386,4.359547323355898,33.163973690511185,38.723939667930814,1.1154802160550812,7.217589299413863,10.357416617911742,-23.444584395981096,-29.64997726021371,-15.335597516007995,-20.778632027996277,-26.928822420696953,-23.75608315301477,-29.232781813321346,-39.66160896077585,-24.52348775132817,28.802820687814155,73.67284439694721,68.99072080667696,58.50627437663742,88.40087300972989,129.41451927421664,147.77788363419367,138.22175469446196,94.60864606658873,36.579862000630115,-2.9996343769465508,-32.68108210039307,-66.73597146715512,-85.62694168550907,-78.80451627791348,-65.78500135847314,-64.86027180544032,-69.68040604476936,-60.01628325030378,-36.39314793403229,-17.77485825452397,-5.301709941061546,6.684340139353399,6.138759626986079,-11.378228975611218,-24.20649649522751,-11.865746670361819,10.144315282928446,4.3966079650077,-22.11071684929123,-22.20363846715918,-1.4160853894740946,-5.32348426933433,-22.906964590255598,-19.369773402672408,-9.469736919559217,-10.753421395180297,-9.226652801531671,-5.103045076126261,-10.11193217786565,-10.310320435400575,6.312255312358693,17.48549583459543,8.575604368761317,1.147481982548685,1.4895511782808608,-9.841842117433465,-21.876430595691154,-18.190248307746433,-17.75080876939697,-13.40732739057841,21.998247646476592,51.292271040055745,31.02678326918302,-2.1826980185023315,-7.755680328242422,-14.662923804008006,-49.56926325167533,-67.60777154207359,-45.83754633366171,-48.82938617661728,-75.90275812317917,-62.26409235057873,-62.62875191966634,-101.70472492763732,-81.58264613233567,34.445951522131224,388.39078457726885,942.3375774915908,830.2918324662669,-322.9580073167318,-1114.4640709758842,-624.1071775651983,-1.4215934891928574,-30.017008951799014,-52.86237494474638,115.49636706545489,82.70793654700145,6.637297521629737,61.99148625849706,58.17222172168138,6.963211516072772,16.238976617017755,17.191735609215954,-3.196551052125127,-5.7014382835398365,-18.985335529418798,-33.69101588008036,-23.491596585350702,-21.898174353148296,-40.72256907442814,-44.86829267942381,-26.450840859281765,-10.663984178400483,-6.297975297383088,2.352614970008485,24.477644009412817,51.44356510524535,71.63607246428899,86.2446681932439,109.61942143141097,139.15747974428774,147.34682914911156,126.82287202547946,92.7266603663552,44.86003462232496,-11.840120271028477,-53.57604219041833,-78.59060073995195,-97.12221790468462,-96.12913044069478,-73.92680664378234,-59.88122048221875,-62.410719579389486,-55.25648982778311,-30.825614581291887,-13.520246326738981,-10.57003667319497,-0.8037520501237765,14.802041131187265,9.834391921881206,-8.171821681946525,-6.465654164158671,7.226531995395746,6.086482508167046,0.03471102622788713,3.6832294754956285,8.000588075610061,11.238741914575455,12.347004643761002,2.3271276765766045,-3.280121508401564,6.19005929174341,3.058547032668791,-15.040153064328539,-17.569902414950484,-12.79549094211353,-18.366134120825862,-18.125604542748228,-18.115756198102503,-34.73064455107564,-35.179683067787025,-2.3911294782246815,26.13568679960212,36.65245335909658,33.260640375386586,3.5388781321445926,-24.55524289360099,-26.73903071696425,-40.00597770248605,-53.66162615680187,-39.92185548926667,-51.13601175071969,-68.87669262251978,-41.4346014699362,-57.39425400673592,-114.75120452466963,-79.1530042193301,102.44954913678879,538.6606210568855,990.6180246280519,579.5079172166703,-611.0094019080819,-1066.5142165616876,-436.8381587162983,-5.535979026820648,-90.1601782526146,-19.0673411100669,111.87360186805577,30.009264353952,18.552220555706548,102.61845502346169,67.11928528321182,15.740929485652888,33.97556337384437,24.918433485160904,-2.4288068150368014,-9.386717586315562,-22.980119974009984,-29.31161554002662,-19.11884188016415,-25.100957592556895,-41.93460772347915,-41.35013464428193,-25.18528456450297,-8.024905307760362,1.792913903403626,7.699899021347743,26.97807557161332,61.89172108070811,88.26161880092313,101.34379362650454,122.73025028685976,144.37686425931878,139.81578459850644,113.39614814927646,70.50586337592803,8.022873076770646,-42.73982850857033,-61.18615989061761,-80.32417401519777,-107.74017796331464,-104.07211630466611,-70.51508512870844,-50.34377136191671,-50.21050075059824,-37.77826199508998,-5.895836235404875,12.178331265284644,2.745722519687206,-0.9761000250903837,15.09417319796122,13.679822108971194,-17.15251717632647,-26.914063257623884,4.684061049208477,14.45563099926488,-26.521625387946756,-39.05062039419882,9.932025697569145,28.08367272703858,-13.948566523534016,-26.777712610058526,4.1364599731003,10.158256511227432,-3.447131852448667,3.9360870495626505,12.971183893646948,3.523871443729938,-7.661760653145668,-17.12898746311143,-33.078402553805276,-37.43648308560975,-7.077328808806055,38.589140714532654,51.765497657105264,22.98794135803923,-3.8159486810202257,-6.938412812343134,-22.257652550956433,-51.4751259055453,-43.32746869835795,-19.176851640387603,-39.37668453890684,-73.60603425311753,-76.68062719242498,-48.63220298557146,-12.221788236685974,20.59006876927222,274.7628739147399,851.4155013009614,924.200390681992,-143.87807308012543,-1153.390469055394,-858.2407344770218,-112.62723901637,19.688345304279807,-32.40053648881049,98.90204377973582,83.87552166713502,-19.808366025968304,32.09766311534921,88.43058320029519,46.63104019293958,18.234814083795545,23.717786621652856,16.3467962065118,-6.038539538101649,-23.21030482175881,-23.218217452387677,-22.995987638785383,-29.038116193079645,-24.298694070280373,-16.283777169917382,-11.993310583965279,-0.020327886025583553,11.263718431009153,17.3102097689858,32.44971702005847,56.66270556603672,88.11646558875721,123.97298064582832,141.05050121311072,136.85749652004296,134.24546655750748,124.90756810713033,86.26872209884814,28.73494337504114,-22.29825952525493,-55.20420435372552,-78.0984518437846,-102.63523014853436,-112.04123092015513,-84.68432843597215,-46.934346264690085,-38.92025597628211,-44.78781494887802,-21.044575591247558,17.909671653990028,13.88025081586077,-24.760904714320528,-24.799428433680966,17.812724345900335,31.262938491714248,2.685202087665173,-6.566884389833216,23.820210850920336,41.34343779495473,20.26390122154503,8.393993905251858,20.786389205210774,7.2291858131708775,-22.096389112849568,-18.24669176021858,-10.66685297415945,-18.36520909343545,-2.044334457068612,12.421493171193987,-6.430372219458857,-5.499079900925717,11.076904855800434,-14.354903487301224,-36.92909460296676,-3.6788810770885725,35.21756159934594,37.788655501254084,22.589223440779897,9.680714685020877,-9.76337108008268,-49.34622996123427,-63.223128118780764,-19.038693347198254,3.1725925178508163,-23.495343816572287,-21.934831266731535,-4.868356198816315,-22.547755786684128,-35.91109870656517,108.10265062900325,579.025721746066,932.3392813206653,295.96680622406006,-872.840198851453,-1046.343067022432,-287.5677268831249,63.501363502716,-55.5268131403692,22.920673777361728,124.55310221456762,56.57827101706338,72.38042849249089,107.32738881907585,26.6276034225856,-5.681889779065184,25.432098635259962,14.346634319199392,8.160087774137121,8.225238845652623,-25.889715574283255,-29.507114328107896,-8.977048456495487,-40.51145315411006,-64.74191065841578,-15.096771492412277,22.967392010815256,-8.939141117065425,-35.59084122418512,-0.5568600640278056,53.97636720804104,70.86281454002133,64.29999605238892,92.50494513025289,137.96161401999657,127.46153942351614,84.2049015969584,74.03210880400732,61.42845565472482,3.555426611844493,-53.13398628341304,-71.14809026101833,-68.34761638337811,-65.40541405195549,-68.03445007800102,-66.23642232387202,-52.37374905262681,-40.325239122893294,-33.30055824513914,-20.058192449603986,-7.476855460084721,-1.3331124780443702,5.857945689666842,8.599828394339918,2.6435264151307756,0.5696208157670419,3.791047111683012,1.06363841065928,-8.05340298200959,-15.498530830521707,-12.493474781880234,2.421676644991745,12.200640027553316,4.209997824793014,-6.024335812215066,-6.34279089443346,-6.008184082451267,-5.692221816804738,-7.22556715922077,-25.03395283606925,-34.81949066211684,-7.671984861207157,4.181611244432602,-28.676770461860784,-22.403827683670652,45.398515005726665,65.44035628770868,6.273729249752088,-30.344525814446055,-6.462392628195198,-8.077535315848706,-63.08157293177588,-76.46430685695643,-32.3702134160417,-26.178169851301277,-57.739014918551064,-71.82994120116491,-72.66692950171011,-56.45735352482009,-8.98893614835518,222.7484362890137,759.3416296788292,926.7785069148032,2.1833764473530266,-1038.3194933675245,-859.4594657969544,-141.670272613935,-17.5534220693157,-97.60604897515805,62.40914281470306,108.29782079876549,35.813872993021576,70.44116238786728,69.8573880729449,19.753867212298726,48.579628763810135,48.0030987288608,-21.688447448095665,-40.581766737519324,-23.561647644666248,-20.53898730382403,-14.252998267776277,-33.235948895242224,-66.74666486006701,-43.45673441278248,-3.1963314043371405,-17.253570611594544,-25.496581893494415,18.579566963137786,42.78809287560274,27.379939711311035,44.62029726670072,97.08294476621074,126.08531181370682,129.3803090264571,130.22135527653722,119.8183006478285,88.5801759317952,45.262087371326615,1.8713172201707087,-41.2020185412221,-85.26862875559604,-104.35438943358258,-86.01203976106113,-72.57203818873617,-79.40681034848046,-68.12119644538083,-37.33498144574858,-16.41080475489352,-13.340141311069587,-26.718090563468017,-29.178905283207854,1.8855718286913632,20.006221422847535,1.3642504911157438,-4.90589170348294,4.281556578294111,-2.8402727729535204,-6.516735643755952,1.5058698162783344,-0.2977177860120399,-3.133902476563808,-2.5101999123755476,-9.274411676177113,-9.355956148755599,-0.44603096708067724,-0.2551039284585688,-2.0174804411016414,-2.8892837225072547,-17.748856730213554,-32.77714240390341,-28.53428586825248,-20.782206852899506,-20.19167323881999,-11.687216667485927,10.945437857699522,37.53902157942353,46.19552079494694,19.613679314753895,-14.26548076157559,-24.750250271000652,-33.06035934939285,-41.872579499129316,-38.1415824150726,-51.64609489597613,-58.50990155819997,-25.292617260662517,-32.404197089262006,-79.4698445839877,-60.256306040058355,86.31553430285723,504.929099503143,972.1971534906565,593.8570903365967,-594.9892858782036,-1091.9052144659645,-473.8592869707695,-5.048290858709315,-81.31643511177468,-28.45895575068502,125.05565585543285,68.24359575727237,27.36408278724496,75.92711319685833,42.9941780565819,9.050729985777682,39.89936820110228,33.21828614484608,-9.759901179056419,-34.690819142703646,-34.08929990728724,-1.7272583530815906,12.801427620836378,-26.012531271598778,-41.87668761087256,-9.217618436265582,2.7232286345321928,-5.7963342695363735,3.7425494907060894,22.421485367236503,49.91888053982886,75.17330847776552,68.27781702012433,72.42573553682422,126.40165892368142,160.99560080608123,133.47546208337909,93.95785877984981,69.60006973338436,44.66211879964642,-4.029989419637081,-87.47641990370111,-139.80222103857838,-98.11946995573453,-45.560322070970194,-66.37585931848409,-93.68783975365108,-72.05076752458791,-46.75473565965865,-36.93021886814902,-22.354146184784447,-6.639848260795755,-0.6215416736085011,-7.572496477333285,-10.4103561141407,15.646200694999077,37.78391036139391,14.700937625503663,-12.54005661201533,-3.2265756872426987,14.888090735269634,16.185738576246408,-3.452077590811701,-29.012387927766603,-15.157710429926674,23.401465979540653,13.418199406806156,-26.208307481158336,-28.549351444746723,-16.309484030852786,-24.24367628914893,-34.34454463340248,-39.735074601274675,-33.79572856427398,-7.764774699252262,14.095881398396457,27.44125373676482,36.5621905282962,10.175231073194453,-28.51557033843987,-27.25752922728134,-20.730569521901977,-36.80833537118186,-47.99869073601212,-53.19619246998694,-38.56298781881237,-12.565843682757626,-34.20912825328305,-60.9567991420135,-17.35959666207775,184.8564753016164,678.975930688883,982.4246360548427,247.03685432041576,-922.642564193317,-1018.839658445012,-293.08877090785865,-25.809352143250194,-100.91561948842838,54.70322080532537,129.10419697501226,9.661701585957175,29.27475434362714,93.25747302001957,41.12931477378886,21.156470699574932,38.34252139324957,9.342904763976462,-4.681143260155469,-5.006913572885029,-31.789918545005897,-30.812682465330468,-6.885821793809711,-26.051140533528745,-58.31504044303746,-39.275452150498076,12.22799434836395,33.99748024476855,18.08918469695101,20.183799512143985,52.356699686228595,64.03496576834486,65.23941059612737,97.37425947695371,123.64201518193465,126.8859979104577,146.17562658477618,138.60633982957424,60.356794750359185,-9.183961837369404,-39.86370211624147,-89.21235504446366,-115.18562246062264,-76.92215809566093,-69.89905650683804,-106.01830233187539,-77.4725552057956,-19.054364443453125,-30.01773944229981,-52.56770437769987,-27.728437583056966,-14.622514483251976,-24.725708293266955,-15.796156064079838,-2.523095320694095,7.05419981686304,31.238251972147513,38.39578395734175,7.050090301932558,-13.847142388522041,3.7721662859940253,21.778059174384463,11.946843472914246,-6.445144308619451,-12.530382556241378,-12.864696567870531,-19.480268250875188,-35.1569976122487,-52.49091243918389,-49.44190862629654,-18.441615875783924,10.989043529748045,22.047209324578116,29.836086249447842,24.77022587808848,-4.379070217676558,-16.198177301520012,-6.329445367992099,-28.872868201256416,-52.62995406650509,-29.530454516471803,-28.575802758256103,-57.15155869100756,-40.237795476676936,-27.094280606061453,-53.52221023142099,-45.68153850769783,83.83883125545265,505.837500604125,965.5059680654832,544.5409445807913,-670.2475243467643,-1136.250021262356,-482.63642281968316,-10.40037652657574,-70.27818864415283,14.593047345715547,155.56275985021213,57.928755783675896,18.38779513118539,100.40907040435464,74.61353668551715,12.35770934401487,9.99132356954588,-1.7141910991543554,-8.44249175335164,2.8524917972919894,-20.586665156538487,-47.102212767941914,-34.431944017137766,-15.918487843882358,-8.640356058563269,-6.598232538829286,-12.344752379195707,-9.890644989986907,6.283693272986135,19.858267725433436,36.887431917757866,61.23050741439623,78.09905598268293,95.28230981886733,118.08498513981507,127.70237963096656,125.71862921009219,114.67398643200059,71.80170339898041,3.159399567911356,-57.498524702884374,-97.19212234275133,-109.33665658514076,-90.9590776109614,-70.08756517745095,-73.81366070719996,-80.20480843381456,-51.71348312317418,-11.759673065289071,-13.29952574596814,-28.796965231648606,-5.0097146801514825,13.25718257491016,-11.002929038199323,-13.750631544338187,12.793524750235225,1.4161232031399962,-17.580842836354048,10.008716151350157,27.375926292075462,7.729316921565365,7.695324426839368,16.785657971269764,-2.9459058829446256,-16.642912057553062,-12.040856497285956,-16.60691860273897,-17.0956548416724,-14.420144775071293,-31.7332546503799,-35.97327475713612,-0.9242700395479435,38.58773474865821,49.62185751922009,18.864293632074375,-25.148963900021375,-27.365156020144525,-20.25328038659492,-46.216278584021076,-44.40351575413748,-18.181528690936332,-34.539900955707445,-47.07475368359092,-33.92918941528025,-46.65465091997076,-52.87469800440546,8.200727891183021,286.00617208987796,796.2637717275068,806.7965168780888,-184.6889183694787,-1050.0191838701735,-738.0088891297789,-110.46618286396462,-44.46794694127885,-48.311781619589425,128.464937962156,118.37943273233535,31.499503552993403,74.08394700122344,74.03856959882765,26.16064961449661,38.780988734264255,26.718697655603417,-12.151710835731272,-3.622285963157484,-10.04582597222112,-50.63107935853061,-50.90751145426213,-24.486137144829208,-23.57554894570196,-34.05831879481359,-27.842853277336555,-6.659818654235749,11.361987817028067,20.520388193920773,35.167327877362574,53.93343152173226,66.07791000810147,84.85730263030784,114.0915707822916,132.96885591778974,133.3327769762802,108.72904550659752,51.072885074812795,-9.476931833038664,-42.08314865586334,-66.35455039738702,-96.7645400312687,-110.61888424473362,-97.75147024519704,-69.52357134911567,-43.32442603522503,-39.24409987695805,-43.94595450049019,-27.84934004069915,-13.27090331560128,-21.82204095646925,-14.088095023516749,15.267828766255858,14.990641259619535,-6.478470639511059,-1.0621459673106397,16.282861200963243,11.408467477428747,-0.5689101053236723,2.8547976966715867,11.793922154915926,9.879695690317977,2.6842349732278428,2.6969575263162637,2.786509440433746,-6.301109377635109,-13.221415139122616,-9.764391537363363,-7.461299457588218,-17.506174097363516,-32.333288849337286,-30.538193546336498,-7.717904109189656,16.053174085724763,29.72593528376411,26.995426438555228,0.9261108008133494,-21.725049801974304,-24.75121000975345,-34.64756751949482,-41.5781735698714,-32.2311110213937,-40.062586658899264,-42.04362795788793,-20.150539454568058,-37.636399417308496,-68.84409841181119,-46.02072830166844,103.6476555130487,553.338090917667,939.779709636758,380.8304020467767,-749.3272049045404,-963.4283787213833,-284.2205276339863,21.66864465188244,-89.81964021292082,11.846602116253983,124.9246329612424,42.39760075819677,28.341749812156017,67.11210370658107,28.77773163124487,18.263336564822453,31.116340784324883,-2.323427646257068,-10.320650802807206,6.027225213537895,-20.78671862505746,-42.79918570715372,-23.78402385605325,-17.9293430473092,-34.1076069168027,-31.454572516749433,-12.851216066587622,-3.037265436640366,4.083929718069577,19.91545779504692,35.61675201088001,50.3095046623733,75.78497947624638,103.50474534729769,116.57262260106693,119.59423580971699,113.93567365752182,83.78395375182055,32.8572444651345,-15.814878015760762,-52.96852853777216,-72.96150891990132,-69.50699290981264,-61.96548597002848,-67.37397715862515,-65.45865341036797,-46.11890744023219,-32.45304133070128,-28.70510990792326,-19.007013872017033,-7.032062542626907,-2.5076207296112365,-2.914854293710393,-3.1814371755510216,2.1097748837177566,8.807285469693824,3.9133630550357843,-4.341673215663304,0.288710398389334,4.787066073428291,-2.901985805945369,-6.215361537751146,-2.315198418751013,-7.6475993328297704,-12.515539317556552,-3.102177938850275,-0.39142824051653946,-12.474494934372327,-11.80171434136814,1.3086815793930704,0.016449952114641064,-6.0379525954394975,1.7744242731292017,4.5875201727322,-7.461409950893055,-12.826164384575632,-8.237151913968301,-8.028176812208267,-7.869026019958149,-3.6564203067364414,-5.581697641187201,-7.794116752990345,2.1915227965995836,9.01550282593021,0.2717924776503944,-2.219060837245366,8.645962429755738,4.752265624987449,-14.852610857853305,-18.555231039805747,-6.75055202034247,-3.3840174858145886,-7.65879368447769,-9.730775430023623,-8.51472030035249,-1.8715413424907084,2.61012103487563,-2.0394680902086417,-1.7246409187367142,5.709298556174852,4.461925782339451,0.6895052438207196,3.378537744173272,1.5321707987493127,-3.7619818116299912,-5.245585225247449,-9.100811835308956,-11.174610773720778,-5.778621095584981,-7.742584995131658,-24.105975396756627,-38.020783564367804,-28.775398720037405,5.743224927071149,37.92261200568479,38.33766703170856,12.186100564692225,-10.74265600185441,-17.348145200974933,-27.785701872435926,-43.45876227514484,-38.93004261958886,-38.94130502825377,-57.99620582762418,-46.013718999309084,-37.25235912351124,-85.16702227967124,-108.50088002159023,-27.953595380888373,288.8877483372121,841.5397742047721,877.9019592416014,-117.52749124626558,-984.9205745111709,-651.76610532708,-32.55824830519833,-33.54812527360677,-96.89463149521998,76.82019956380903,83.7532545515244,-1.1960877349061434,44.09512526734366,57.65360905689122,14.446210409781159,27.236206964032647,32.858798740337654,2.1260015728010337,-13.251574330928673,-22.661669992967937,-25.292425063655394,-16.351006903396488,-25.462430074851042,-36.72613877614843,-25.283643674355602,-15.0790176075083,-12.867336444234686,-6.4778464117625445,-2.158043960083827,6.97072210126694,28.331029636244555,42.46429941618071,49.390696835337664,68.6295997408408,88.16027550666831,93.22644069207718,98.30150309015097,101.9068924878378,82.83130085408035,45.84279225346103,7.646152548211061,-28.401990014669252,-53.101676015107245,-59.623111807367955,-62.80202935115413,-67.74725630467042,-60.16446345989571,-43.42201232985911,-31.905995741452585,-22.795626604089374,-13.372092362040119,-8.261259007433619,-2.7219601928639,1.8843949776898903,-3.7754660652225933,-6.015875751325334,8.221702521034182,13.741772923132405,-5.268920336238443,-17.972946740022543,-4.787508660665058,9.398539412685897,4.649352262331007,-6.730710847943158,-9.470838363038542,-7.785048918762769,-13.38053719377752,-20.580568668600534,-13.418839244466318,-2.1166176909794814,-9.1809000908072,-20.48840509635235,-11.071240716604278,4.4172481511238,4.971297170026524,-1.491829862630631,-7.718729975338967,-15.404599929468679,-16.806962053689876,-8.945278629258596,-2.6167771317311654,-4.399638717673987,-9.779553106040467,-10.223761685294534,-5.2932062997979,-4.255869774040221,-4.989501070020337,2.992952478345191,9.861943502914158,1.37741457277553,-8.706668723967923,-2.349772109283835,7.664017559551898,-1.2834779570889285,-19.005835271164738,-17.11273972667459,-3.7096383665574937,-7.691085856983754,-16.815535224220557,-6.368055757108854,4.3102385134005115,-3.8573968134725067,-9.375219560124023,0.1921547764103071,5.239260355014162,-2.6431858699322106,-6.08745959318151,2.477828194322491,4.515538007369937,-9.043536738846127,-18.324297714501412,-15.509615803774114,-18.31892829406338,-24.968683459505893,-14.19497693251214,12.813796198172787,36.07553728258529,37.25429659780377,11.423208610405284,-14.744207590488111,-20.54212523693005,-28.282951536667895,-40.12118753139399,-38.27292950989908,-46.99885282897535,-58.64430164140318,-42.92878011817919,-50.7867541123658,-84.35332436266975,-71.15132873876934,40.95974814812084,426.9549972649927,937.0886692075317,680.3326823275656,-458.70410627166143,-1028.8670058763905,-456.3949540390968,24.653870446219074,-81.45547173431305,-59.31557133728205,114.61242771800984,59.54653178941219,3.6912611321674156,73.29215965216316,54.74390896252132,3.0639312966777608,25.847917948941426,24.507035840533838,-6.3136045795036875,-4.151395924360693,-4.106214474192477,-18.832429256323667,-21.951218360157906,-27.4897977105128,-38.632926616338644,-32.78010860875743,-17.09683387924776,-14.767161784231561,-17.319253858934562,0.4190758301814146,28.422906412010462,39.137319686677614,44.868526576437134,64.94130197986084,79.33288137544918,78.6267288930481,85.63048114399336,103.18187312633665,107.35847216310302,77.31399315314063,14.901914425040866,-41.3892907525572,-59.45810125990107,-62.75772722230032,-75.72610686048446,-77.95020262259466,-63.62446188318773,-58.19078742264417,-56.51468096050747,-36.439556619246936,-16.124924566291213,-16.537197491671066,-16.533341418830496,-5.4602277152264485,-4.319495335203204,-8.930474955496276,0.12280219846860874,9.247633353000216,3.6584966240712156,-5.0558308509253465,-8.613815591477923,-6.09516195621708,2.0131777956762065,4.699679597421078,-0.42061005103880333,-2.5765067724714754,-4.831018619279625,-12.20828134031289,-13.767924231864345,-6.4653105250109775,-1.439092518821333,-3.606517483521488,-8.345362824700828,-8.776626638722977,-5.135502917612662,-5.5305273429492985,-7.84946645493433,-2.4356127606336706,4.148135716154764,-1.9881378953346367,-17.09504798521351,-23.500528145372154,-12.615592076061095,-0.24908564807372713,-5.274048728203706,-15.338775259136227,-10.44146495219189,0.15763159327589094,3.469347665185227,1.3186587131549334,-5.81461658928124,-9.600441488817218,-2.524598018197599,-1.5298359647542075,-8.930536781766406,-2.5430076869358613,6.5287016062582595,-3.1701684763182847,-11.348028935494478,-5.107801316641442,-2.3035336928127492,-2.5681070378933057,-2.6538008392946644,-17.047950063035152,-25.169900244166026,8.81650796537862,52.39378594384573,49.93794936604197,17.20927689819832,-3.9710992293175345,-22.882784712203573,-55.31988057137477,-66.93595032465385,-45.3012650212372,-50.56077503706891,-80.208186497139,-52.109318104120504,-13.284847851985127,-49.832304808107,-78.9656386653323,-27.130687694153124,198.79194444398973,705.606523579777,916.0417024261768,98.32484113330676,-933.3970927478974,-856.6154353571503,-184.72662918176525,-27.269254803010817,-95.60297718576209,62.14421444264035,116.63457499604463,30.030962219864957,57.87292088422012,82.71227515338279,27.790234199954817,23.189148310293678,34.267954177124516,7.816703256721078,3.584010915832783,3.2733534535425526,-24.361591570602826,-31.151973605730156,-15.305594418360243,-19.527188437825355,-34.05722124210709,-31.30057386292126,-20.434240457518904,-15.947405291335022,-7.100966966591725,11.507297861004197,25.06193567470205,38.21932768254296,66.43019517299079,90.8374769392774,97.82310421425657,112.83925882663527,132.75591509611897,116.46959806536978,67.77182067587115,23.799209459749385,-14.809004456864884,-52.963708415597594,-68.27101669988862,-66.26575564048329,-76.2940699561635,-85.1524786027922,-71.03572552720695,-53.20703751349101,-39.08281955289485,-19.105021981283095,-16.920843641685178,-34.07192584102499,-25.042178071734163,1.9712901838514973,-0.330323122686778,-11.474978799907948,5.538987830839018,23.75721786968654,14.75369114514647,-3.3241721114824294,-8.352261320128022,-3.325656292469967,-2.1637598962932536,-4.591053669760797,-1.0905856981378896,1.3682368723990876,-4.933794086749041,-8.825292566612996,-5.197206824758609,-2.4814859372592135,-4.9738976228894884,-11.023999872781912,-14.045633444768587,-11.24726364768391,-8.53604671551854,-3.2186284793324607,3.78747306354202,-4.892510534124378,-19.95337807760514,-11.805392254648641,4.319949459132493,-2.208876425089297,-15.539673043671058,-17.2367473790655,-20.057371330950605,-23.374609880944107,-17.732202478784597,-13.91130173917145,-7.751926899627974,17.262650767105935,39.37032140967288,29.596135385226347,2.308902309776494,-14.70222547924659,-22.41935839516635,-41.22919473131273,-59.77385983337437,-46.145989005135206,-28.057711626244974,-34.20509367424624,-27.752595105516164,-24.658433547835884,-53.438639109556576,-50.663615002582354,27.50057393735105,297.09907613166195,772.8292308720635,767.5837232970862,-200.5531603850139,-1050.0863890485366,-748.1489911289879,-116.04167792008516,-34.74657539718354,-49.763670791859525,111.42473713402637,113.19627771987378,41.94076152781682,84.86347730493205,79.8553865684297,20.96393079822407,25.89228805745472,30.373620732068762,10.908479782335778,12.036625100319881,-5.8829653201058,-37.950425532572865,-31.078995680747916,-17.61266907013183,-30.376930454166914,-35.08583977963744,-23.020502529125878,-17.682038330670288,-10.503267865304313,13.094439471362854,37.16957706081094,51.83979963317648,67.08782790479167,82.51011010812141,97.49848451546569,120.63599032803191,138.2352650570995,128.79440130853726,97.73263738181434,52.18442962455234,-6.37696836664453,-55.91659478996845,-82.36642957636427,-98.44387549622763,-102.4684691609067,-84.91650607367748,-62.93560495701014,-49.90738497044993,-39.433351786749284,-33.80586463346187,-30.979678364230217,-19.31201479920416,-11.621930515262868,-19.43978847227357,-19.98281202125407,-4.742050165150005,5.357634806884741,7.742251191660088,10.18303676339049,5.776549468445177,-0.25621493222054603,6.522310163088131,14.181280955016565,7.449314571182567,1.5831971062758674,7.651529949620565,7.972960508080204,-3.558371989593203,-10.620465892097739,-10.425127771047464,-8.683838960630622,-1.9747343737524101,1.6876939615037454,-9.902396208047268,-21.592755187554317,-14.980074755469268,-3.646600693811772,-5.9800398128243355,-11.273483837229282,-4.27507345897901,3.1455488642273526,-2.8665777776427266,-10.672227423607914,-9.735470910233785,-6.348610082135087,-2.5416554165578304,1.1127654937791984,-2.5141739063477146,-10.359556314250979,-13.562249591888584,-14.211022934318487,-15.476759419680866,-10.750846761707122,8.282753165518123,34.79230273563218,43.38375989278691,24.518335726824787,5.927390472531268,1.3576203516112764,-16.36936447713,-42.065775868599374,-38.88291390678244,-38.75402286801673,-67.67378172245799,-58.22559605846908,-28.368027084855303,-63.33110775022288,-92.21671294282771,-37.545477859549095,166.26205734460245,649.9597262202442,932.8848058426831,205.10791086095932,-894.1834840842145,-927.0724080276312,-210.03294447461877,23.152119880332265,-80.63247995544666,41.81491786209128,115.04532040000558,21.96358018366382,32.9673649427682,74.93237009908603,37.34978389459786,32.26978792381177,39.63907820026187,7.119948722507761,-1.1051590988767916,3.00796925840939,-17.55397195021073,-25.18877585170783,-22.43466740432507,-33.550273666919345,-35.210971065508595,-24.004642257969422,-20.127987739615918,-17.361508922836364,-7.859550930468917,6.568022291248717,28.440509353713253,50.92652328330661,67.38867467155873,85.08792606141508,102.83059918700783,115.56595273252132,128.48420960390462,126.28116598826509,81.75613276602456,12.698063922217084,-37.26097044308743,-60.19016733817242,-72.7703454641469,-79.23633223477022,-76.10510129256801,-65.96874615826627,-55.59616061023832,-46.90302662260669,-35.24726249060595,-21.84424975251111,-14.08254246592566,-11.367916365445133,-8.100470385137735,-2.442533209251719,4.63079301990374,8.406324785232515,7.541121781208226,8.79172497184035,11.18106478240439,8.214118667647048,6.064278230046993,9.128932402613534,6.949270560080819,-3.5175173678502123,-10.993239207356893,-10.875210875888389,-10.221650757618724,-12.640898320416749,-13.391186276709476,-12.096173269294123,-13.284914744448137,-11.032985119007762,-0.014182945501479693,5.785496417444483,-2.371391587242755,-9.804051429558745,-9.640340531212885,-13.363541454281973,-18.740677759857732,-11.578359895831415,-0.2816908997952261,-2.2508501020350327,-5.636404743945516,3.917704462525414,6.555352735508462,-7.364281833677941,-10.2749345105378,2.6457074415111803,3.2579903794540606,-6.551584215208358,-3.435583101371432,5.256368928534563,2.4576326442554857,-4.216576887458526,-4.7281967372859715,-3.297830840622021,-2.5005045488480553,-1.944827448685122,-6.789356642667816,-14.952661333832332,-13.686639687835394,-2.9737545517621706,4.898998262720549,6.262511630668728,-0.47473690297280147,-13.678569713067073,-14.246358833729538,0.32198793209556786,0.9805789729064784,-13.439562252979641,-13.527564424724947,-1.7747301586358328,6.6368371060827425,24.628619699755113,44.17011100664567,27.29791897979411,-12.008575906127419,-25.62370446225098,-23.488336064178736,-29.86922053289229,-31.99376412156075,-40.77692029131988,-55.840711801147144,-45.29001794379299,-51.01019992254309,-91.67641292045437,-89.09672416757364,2.6730075532322246,328.5673739084072,864.8381916880008,813.8399934162003,-237.4291080103593,-1031.9140257214865,-625.5393958761954,-30.2476095189763,-44.51573895305272,-73.71640303111568,98.44202145938162,85.68722836247525,12.497391689339235,60.19378024787377,50.779278095078126,-1.9175672788949454,16.641408449287162,25.23836013580065,-1.3957153469986459,-7.414619036026853,-10.187154366345368,-18.579562496359642,-20.34968561912288,-26.552605520234103,-30.773660853674492,-30.1286810909277,-34.91592226311259,-29.37587175249082,-8.973533198175058,3.344637273925292,9.118742484167257,24.647050835196428,45.120450662865515,62.872630611746295,81.91231834570458,103.31223058751323,119.90424268146737,124.41849445696371,112.35914164245324,79.79776131787716,31.241786057385095,-16.631393716239366,-52.39188631133118,-75.06807195276582,-82.39530559888252,-76.73768700570263,-66.2716779208756,-52.04920548318339,-38.4673726338374,-34.92439887175745,-31.00259776488274,-14.103718727120516,-0.42308667145685064,-1.949095307209948,-4.011132293343957,-1.031153708882874,0.8474309079342106,5.907522813351093,9.801155052396819,2.20118219117027,-4.2437632800124,-2.102842671014624,-6.746583095241839,-12.958094526806295,-5.577943907666806,0.3446883135581871,-3.838844795485697,-4.385529423455269,-6.7141415307333325,-15.285632218615046,-11.008113378926353,1.1872696162952359,-0.42455202030867056,-5.0892350224112235,0.3276813323275105,2.704313450540557,-2.9326390549949686,-7.04211782924896,-6.813372215825947,-4.514070484388823,-2.778184078855567,-2.715790568613297,-3.545050846426056,-5.963418814068909,-6.615629429060445,-2.753559801045962,0.2736391604045414,2.8867124668503825,5.060741609994839,-3.07388651356616,-13.10930426503626,-10.10888595785273,-7.806248515028203,-12.0173820912454,-6.268843955331997,0.8793396574041683,-4.878274038875606,-8.9567521744705,-5.651032990427401,-4.699637971965332,-3.074979131408557,-1.4396350802912838,-5.633493835094781,-6.0759546917526235,1.5919303277650947,5.801985904728026,2.551495496713791,-2.636952632139323,-3.620693282500583,1.9433433864256093,3.639761047376073,-3.706843100139073,-3.41067830638196,6.794711660940266,4.314623577633312,-8.952197791206494,-11.49585366550574,-8.752044309107625,-11.521747672770971,-11.39076961410825,-10.83042590731537,-17.180176023754417,-19.79037743571806,-14.368394034332749,-2.562700570685336,23.082439876201853,44.03748223397101,28.0387421868075,-3.839436565401468,-16.06466212782619,-29.628627328814336,-52.171660727886945,-47.785175705661345,-41.10961865294331,-61.09259707519629,-50.611234021811,-29.719945179091646,-72.28837778696773,-101.69560428817186,-37.93979079609984,203.02172584903676,725.694494082896,971.5267732746559,173.69680384981183,-890.8405065263313,-840.791591763607,-158.92419186241304,-15.127747384547135,-119.37256757808188,30.22340853694383,88.0112233750758,2.628367719542121,46.05214030649898,79.88355197837028,21.887655118300685,29.140749041898736,49.3895789252618,7.5108398426250345,-8.234964483418171,3.209651941770793,-8.416096186715889,-17.553146729311877,-17.256886974370186,-21.263302111673283,-25.344876677703645,-36.21606598040151,-43.19809446976401,-26.449700976967897,-5.566180031852003,2.1322219802307245,9.144524053151816,23.4451028173392,48.338656813292495,81.75541888331902,106.14074671062278,116.89407806883408,123.99391606806387,120.51525171609293,95.4621331782102,55.99779668492498,13.004611971056132,-29.5652057941535,-65.38470021552178,-82.03552269072702,-76.56963027660801,-65.70375256867446,-61.34012338128579,-54.426968150650886,-40.60645616175671,-29.818349332156814,-24.104275590203418,-15.82906027013479,-4.752119960100902,0.273085079467311,-3.7525950269464055,-8.128774954838413,-7.813347279671353,-5.920789270267704,-3.5492660069125375,-4.043314186610566,-6.454433089346168,2.01506679847253,12.861033225472248,0.4000702202813411,-20.130446421940967,-14.51973866349055,4.605645011956893,8.917477216690811,6.285767014142429,9.374647416557599,5.266882688067216,-10.389218967533573,-16.611340974474142,-10.79533111324799,-14.254052964926377,-17.414362531306814,1.2710550994019156,15.02115530921294,0.24973908339205586,-13.128225594927216,-10.745942170777019,-12.29854705981155,-12.369647006944192,-2.4144031486523705,-0.39625625727306435,-5.875910589787704,-3.8042254142216656,-2.175539128901095,-6.772412836247998,-10.209303638650853,-15.864917511466846,-21.272558158356762,-14.686819722499544,-7.059698103918658,-12.250348028796845,-17.079388348117504,-12.993340241722194,-9.710313263861067,-5.282093244324729,5.767355398777315,9.413056871684706,-3.9752774795386046,-18.500505965840386,-16.10529291776708,-1.9844780768861678,4.0506045199584495,-2.175445031613151,-5.273098316282859,-2.3789751786446836,-4.0962154796600085,-6.122786829946969,-2.0587439983525435,1.3624223708990826,2.5544901225399617,-2.026375447896987,-20.288153559622458,-34.7020513192251,-24.919559395670404,-4.533878228771666,11.039557818180747,24.11111300247978,30.581442323575743,22.791116113961202,4.08403396557385,-19.614103657860927,-43.00030108434032,-48.56355395205884,-32.650990062907425,-36.95645633507735,-62.83141631719407,-47.91777636982044,-22.105704442233787,-50.808107111081135,-73.57153393994457,-8.727423647666,277.52539762491097,805.0059569182864,881.1032257661689,-67.37028372436765,-1015.514513981134,-794.7422655688473,-132.60456992279285,-28.30772057529108,-80.60302643513597,76.21119307800458,102.325612559045,22.216040758632882,62.14827960652329,84.4794287141354,32.09432211101733,21.669851102738868,26.196291871368953,6.922571206137736,-2.8631539880676895,-7.568512304054671,-11.058255351408912,-13.120459310536821,-26.599693678367995,-32.11410310725839,-27.520391108729132,-34.6945560203651,-28.91471086149782,-2.343025024422989,6.404444514827077,9.886814814597251,32.836461270875134,43.066540218847194,44.716527541443426,79.01645451484474,117.49702115674188,123.08115876501884,123.78369150281543,124.86937995305381,91.80470512749942,33.55476719747956,-14.947847163328696,-47.66146988839057,-70.30518147828114,-82.89714223936897,-86.51944995851315,-80.39714014743454,-65.19476632559281,-51.52077542178902,-46.85399763943512,-40.034815304265464,-20.41037335624899,-2.0043088434264824,-3.659280257549959,-17.909055102861032,-20.84580582503976,-9.122475818765846,-6.544088660966764,-15.536118448560948,-5.855458418123607,15.468855693560744,10.073512295257956,-6.547152281458018,-1.1890704151038136,6.406820673772422,2.0626185041773706,3.996473113557208,7.090345956467593,-0.8381566220298655,-9.503130516484926,-13.829006120269614,-15.3135562456162,-15.762061248320283,-20.746954586502458,-17.960020643655128,0.22694157479806698,4.5370577464549555,-12.486172757614662,-15.622586693478068,-2.627518277422162,-1.7723194187732076,-7.996657185263853,-6.130865355010442,-6.60494442338619,-12.096602623011226,-8.801844116936019,-0.27609710111166663,0.0823820169052194,-3.3291470349345857,-2.184832518910355,-1.0578540819654823,-3.9388100537701174,-9.654786863178305,-16.04655998450501,-13.159670911873217,1.5510700105197266,7.658937736343594,-1.6607497288557838,-3.4010078875647443,5.360871538896852,2.096043065420048,-9.689537908135847,-10.361618648977892,-4.899581033891604,-5.060682120055432,-7.607881260537194,-5.113965628521967,8.296936220999976,26.518998311767508,30.050845180615816,13.667840231903114,-8.256301259401408,-21.103696091702588,-26.202203652007256,-40.15293072470807,-53.15462912682083,-44.301596966774895,-41.341009695020375,-47.66760654033971,-29.320968258954622,-30.35462377463297,-69.88133117696398,-69.23182537461832,51.83426764583447,443.768524388624,930.6297694717462,657.4129956229219,-483.39669051479325,-1071.4825699991227,-506.88373760625825,4.973824716123119,-71.48945731205771,-46.05072097318641,125.9718985516244,70.37685971374233,10.943204287245539,80.90504031387326,68.22095731271304,20.613020806933292,39.44083703796574,29.422060141126135,-3.7906133933050548,0.6674663032998143,-3.510348794834518,-26.613000417239014,-30.7562165458228,-26.017063777073098,-28.41883873301589,-35.425228613585006,-41.564359617309606,-33.98172807650083,-16.05792388023396,-1.9155034195532359,14.185944070195191,33.75054125708171,49.975436046670666,76.48129174333843,111.54800034089679,124.91782605929974,123.74332530590505,131.8675822930111,118.41280931968062,63.3076601605458,10.966637856400942,-23.4033687367848,-64.52007048231002,-89.54696779618111,-78.80712913031716,-71.88516143504313,-72.34890119342951,-43.7311412674257,-13.952016562659367,-22.18102640455985,-33.77424222843731,-22.424588026651875,-14.198691641344503,-15.396615933528278,-11.955344837777753,-6.669190799696491,-1.3005891764492112,2.45107627953864,-0.10718002949898597,2.4922471344901194,8.623920540910134,-1.99726827729274,-15.303516382354415,-8.324841820048157,4.123051560092636,11.118811050418843,11.059795987147496,-10.042426945824493,-28.44333509581568,-9.968604689810245,7.5463343125842925,-7.047809125507754,-10.986883365583804,6.045817681467387,4.615439629461141,-7.118747774198212,-4.0000477888974775,-4.2095451806093145,-18.782761668414665,-25.74048502688224,-13.06264572254204,-0.2766011623252247,-10.187615831783203,-25.343428584934784,-17.02290289361513,-5.622788627080739,-10.93917254444683,-6.84344294952024,7.3451451732896675,3.1332523493170896,-8.672238577186,-7.969727438231496,0.7603639256191936,12.73169438606235,10.894564434683303,-12.47641335801453,-18.026187660368127,2.427866614725918,-0.7217227147604746,-20.48902279739884,-5.259575912479187,20.347415114362647,6.002192017575666,-18.785601568751026,-11.754229800053606,5.739926260857613,8.215922264379826,4.092255773265152,-1.8327515674563912,-7.636697835387714,-2.9559100084258003,6.499761184478283,7.367200489662121,0.16855046670782414,-8.780444170888932,-7.296225806101234,3.261265125705444,-2.0487760858170967,-10.84390313263194,6.829474600918483,13.288015642276546,-14.397765693714952,-17.396221470938247,10.437921717322402,9.481248554850215,-9.994171682512755,-6.962826046111836,-0.12278875603862716,-11.780713575333543,-22.29912831103172,-10.00904802122722,8.422921083091051,3.7092523411134595,-1.1168276828491925,21.285103254837885,27.766055929581697,1.8048645503903522,-13.58981755054432,-31.50642671270924,-61.3338970290536,-52.82819021380667,-35.48767336611165,-50.66528016100256,-45.5039192721672,-46.296321635788296,-95.48504287288358,-98.50900123624007,5.773132311759383,330.36183446309053,873.6514250750226,869.3553037699764,-181.33234480589059,-1055.8781033558344,-682.7924495925749,-41.41239916694982,-42.720128772763246,-97.76341697275821,76.58390572205329,75.43845787086931,9.330213322728568,79.5898619144231,80.73321767458711,17.960831140635428,40.054156343874475,52.914966382655955,10.679647202574479,-4.095769562238878,-10.160572541484333,-45.08557893652273,-68.78642985526534,-53.594490465110745,-22.594367946443526,-6.864687386170729,-1.49494528421992,7.4155803409986465,3.1165252449211316,-10.115719514003338,-2.5548986596133467,16.220465432589144,30.561756956267708,51.9881692903151,74.18006462730506,89.92818876227312,112.35546719964269,127.02448149674537,111.36662014436914,82.15762144923761,52.41077973307605,12.323339616210161,-28.262803545831932,-55.00612498030783,-73.59016967628983,-76.37688372018744,-54.32233202958538,-38.790896113447815,-47.51426039545114,-42.58522715389816,-15.494757821321885,-6.560648086024013,-6.7996316031098,11.776969705423658,10.69551792628204,-22.13944627974879,-25.740708436066107,1.535931333747123,8.256952750632975,5.374784300451687,12.410287342738311,7.041219531186489,-4.426292719624222,-1.9623339586628958,3.304189135142251,3.503860248418043,-5.557294686034377,-22.633106817845764,-17.563467862774765,7.054695496822896,2.757244981806245,-29.535386838166133,-45.94679097331488,-31.883961698600938,3.753157465374816,36.40387417796951,33.91212754474016,0.5184311455346418,-26.524945254256465,-17.473141980544334,16.479934678063408,21.36949866832674,-15.602325677891487,-37.44145435620883,-29.582590448121014,-26.52482714105449,-17.365549454064308,9.80336364739616,24.507958027846257,22.423255989775562,17.62940364490636,7.938364011680582,6.562032915671647,14.101751174000235,2.201698504025112,-15.723658989613718,-7.855838114768923,3.536415194921479,-3.782729215780667,-8.966647897734008,-6.631340707511487,-10.520359196825195,-7.065779399535543,10.9081239821388,8.603488855031863,-22.339638621714872,-31.377647316293256,-2.105531122099534,19.300970576976972,13.338794053723955,-1.8303162097532493,-22.016152639081042,-36.16133523897312,-20.232133769859917,13.714927627599582,32.363356369087676,29.59788265649432,13.998043658798768,-3.201230516262373,-0.24188718309842283,8.955705253011974,-19.735700626855817,-55.21930214424579,-42.85574944176338,-28.702139633757284,-41.59152493803351,-43.219777032937685,-61.55606082516669,-96.90081638350905,-76.3342570393813,57.40558465541861,454.371065440904,927.8621551184632,625.1636579739413,-494.19113118321036,-1023.1815652873081,-474.0248989670592,-14.928648107190828,-69.99588567096679,-19.059556281628833,113.65590057408191,44.62727869197133,13.122017884091115,73.22313376629998,38.76879656357766,5.836814628494482,37.76945058044706,24.929344966451023,-0.1121787135507395,9.482335806269063,-5.560032786645222,-26.951486124268964,-17.085752168799587,-20.687654433094945,-40.40185987957388,-35.370550096724,-21.07240725969138,-20.555830024243303,-18.290956130542135,-5.285363533077964,13.214039923241822,31.810514849193865,45.23160992110424,63.91812381559585,94.0946941777337,113.45260104949232,117.67809811821894,121.90625339366045,103.676177697145,49.42390604126881,1.4070402746644906,-21.859444547867984,-43.93514761674626,-65.97365444725992,-81.78401813639464,-90.87900107999027,-77.15910511764882,-49.45462066863855,-36.24706288919745,-27.66889219046788,-12.897680585657294,-7.453952695628455,-6.119640269160751,0.008420356426590558,-2.364115306606852,-13.47780943241997,-20.42257517751062,-14.977318041080544,1.7424437810101487,7.174513210013348,-3.6484859219813544,-1.9878157958859504,2.98774385995382,-13.444753354178172,-19.09175780135824,-2.892574851581948,-7.422356631225938,-18.634371090309763,0.7330395734143078,10.151021757447355,-16.310580863068914,-27.786592710967277,-10.377974661450782,-4.568015376375648,-12.49220636477397,-13.192649169511288,-15.984966642983402,-28.329908299028983,-27.757417560980958,-4.6428283668374615,7.12119515631143,-10.188775650240807,-13.792449433708853,9.631703102056573,3.8757719200364065,-26.731948096803503,-10.874218691047936,27.305753485771717,11.845385874201195,-22.484182393162726,-19.105407928383492,-15.102887269690527,-26.638921315382795,-15.196500219693197,2.253480710630999,-4.374933117817395,-7.3933629314317875,11.609168314880716,40.68678194542258,47.92439762590873,-6.633041363065393,-62.14965971736,-33.22806526803341,-7.143544190868373,-49.64281334246318,-51.301653880626084,-15.108522485985176,-46.37763437414905,-88.2249856571038,-72.44214040314276,-45.65926026064524,-11.123258547565456,152.9681509032465,586.5801946331064,933.6479325191332,409.94817114499466,-701.2991746194665,-1013.377469573588,-385.30203505241974,-8.76278619018521,-84.16428989797816,-3.294490242318737,122.8198131544143,57.61040645355297,39.230454980096575,90.02292113284115,56.278216992984966,26.81675657972423,47.50756146227299,33.7661070137336,-1.341932129385608,-16.216323040258033,-22.538601411076453,-36.724296516035956,-62.14194570171026,-64.55860283780133,-30.214372228462093,-13.715760657112837,-18.849834244345697,2.347284755089019,21.055734018865607,6.105360757136463,7.115342571755377,36.41769220372714,53.18847356438211,67.72000177033078,101.37969933789319,131.80060678592878,149.36056723467743,154.2948419505809,120.74547149822166,47.6666725946711,-22.493597817841476,-63.65364735383368,-86.37232269875788,-104.49619347644906,-106.18732072232186,-76.22229858405109,-46.15207465558912,-49.48256501400258,-52.259603037793,-32.76322041067848,-30.30599238470101,-36.230764884415784,-10.346355553273671,2.5657062834608055,-27.905403135728854,-22.736562767896483,31.828288771373863,28.780856879035344,-28.09197278815482,-16.432859879711565,38.69634133133063,18.944089597991766,-21.154843142477947,8.640776979016602,23.0804850527314,-16.019235649748012,-4.60560846893748,37.37501288355491,10.339958745740901,-31.11411519017183,-15.960809732253974,2.8246097237210392,-14.691073216464268,-41.48735334494204,-39.04740629246535,3.950249343900177,28.825674472667544,-2.8465307966615345,-23.104807912038925,-1.4243776534309145,4.18456585023381,-10.642021623135493,-12.029928986413914,-9.698888063229383,-13.395010372139737,-23.619160935113953,-35.94561267758144,-17.183358010433288,22.32059082099496,20.603172485407907,-10.857366360061711,-15.25960102117569,-8.038314496108429,-20.59974269686697,-25.760384324499658,0.21746027452185146,32.57172398398026,40.29073590961934,21.546423497902943,-6.473000720572072,-21.90903648644956,-16.978496059950793,-21.72686775225684,-51.023777792582266,-61.29404827947329,-44.74937568261706,-43.44716573857459,-55.15834093147554,-67.13520487269842,-66.424143736644,-34.55412917926514,11.834128358582205,245.68136665531824,784.5723297626876,891.3314440138871,-74.73120861707284,-1022.3399133424823,-752.010126542414,-78.40361051571965,-16.619699175514207,-94.00175582108051,63.59731045260686,89.02130309664426,13.0783875481108,54.14193101288348,66.7158156481591,29.45333490456725,52.22777172643243,43.35411148200998,-11.350186743019425,1.4996331891844585,28.69821222274827,-7.658663189466749,-33.04749610586635,-20.49922846032866,-41.118503612627904,-71.06124229290273,-34.6916679744651,15.867703740144623,3.409639394666528,-19.875111704446674,-1.5124623705125408,18.48108245402816,31.93912511192419,70.18917788976354,107.90633523881161,117.39074518435667,121.77695093376198,127.67424907479395,113.51631776177568,74.61696802737924,18.780884926586133,-38.018617496493924,-71.93849582441334,-82.45644110557677,-87.14323343757854,-86.28800823165165,-75.45639223169914,-65.25924902257796,-59.39237890860092,-45.34238093933818,-20.682252960689357,-2.26838192587277,1.9165211972651868,4.017044511038945,6.696630019865987,2.0057754714464178,1.2754150171599115,11.59362434243547,11.009119501956775,-3.7543816244282855,-6.618990508703298,3.2251400964508665,7.035284557806592,3.9893758415376723,-2.9277386402591166,-13.141140651103676,-16.87210799956531,-12.590454106878571,-8.615132187467434,-4.224059196880297,-0.580438381276629,-3.690905124822585,-5.989379732912667,-3.606415834027489,-10.515801096237436,-22.10577847816409,-14.367421240878798,3.455051949446732,2.2605588422113545,-7.881766330175202,-3.636645679153549,1.4075207380310033,-5.734762098605092,-7.491284187171467,0.22991213277072386,0.9465329013513104,-2.613996942559914,0.8057255438172595,4.4033525113059,1.0645452916504032,-3.8663787007909205,-4.496941587343758,1.085321873308636,8.11774907706404,6.750191061769012,-1.819458738558268,-6.692060012202468,-6.515470257972893,-5.5116692748785105,-2.3657882085796516,0.057133417345621496,-3.1635506547532266,-4.558142670953695,0.7003210111432043,0.7703618536386525,-9.2712441807135,-17.98875346190275,-18.646405645070473,-11.711798064665544,-0.2555271622056505,3.735318311654744,-4.967010765885327,-12.924053898030074,-12.553446130376555,-9.124489852927573,-4.598372315464546,-3.7790766190988734,-11.855712938005205,-19.57813722709787,-18.709817899435606,-8.138927076836053,16.712900914972884,43.045389602605646,42.396831820204,15.907462239964307,-7.163826174880828,-17.849743913727533,-33.777042062832194,-50.82387765807002,-48.618292924870325,-52.01593507078017,-72.03096482157906,-59.150359489430585,-38.365595098443336,-65.09812118690823,-78.20266923218679,-9.192348832774968,272.0114410015659,815.2491922602501,934.8548209769203,3.9749900802188733,-969.8658082785602,-770.1586720097332,-119.62192419744446,-41.58218832843245,-107.89041514439334,56.01768386299129,75.79760220743931,-11.640465238786344,43.89868189608317,77.28060538993901,24.77832939636599,23.388842852373877,30.478426161006517,4.219039353108423,2.6957174151600753,3.667554832908726,-13.114635987805405,-13.681959434716958,-15.201599993452604,-34.90769973405952,-40.534038213758826,-26.911799311041946,-18.691621895280708,-17.830311236940652,-12.662757876319073,-0.6870473744954637,15.752131618659586,36.92955955193316,62.037348600473564,84.36233332545396,99.13743959597605,107.91189313126375,111.51897985206054,110.02768480768283,99.00851802956339,64.94150175484782,8.061398244748192,-45.78442979591949,-75.24245815874511,-81.26398571626554,-75.3021711930174,-68.76221008658928,-64.71671580692316,-58.16592173790558,-45.39088731234702,-27.612574456523056,-14.9985208777616,-14.286303417740601,-10.262010820902573,2.9583043697420237,3.7696493918786853,-6.441797698198421,-5.609131288440912,-4.52653222280901,-14.501423762656145,-12.64193169417044,2.7764741808640387,5.207982496253681,-2.115674858191852,-1.2343554842130438,-0.504741122606994,-5.429998923534242,-1.8943061408966058,6.615738674731999,4.365182012393817,-0.35533219237246527,0.895423331684567,-3.5594120262443045,-8.393002031542526,-0.4184568313774335,3.00118220739585,-9.673930832192516,-20.101439058284296,-20.970811368313687,-18.09471217918629,-12.464245303308797,-9.92989232070386,-7.941811336545822,1.025541553918968,1.4140766033395913,-9.685407580297374,-5.521633064888039,7.251904759219963,0.12204303225054502,-11.308657843300752,-6.872984561259127,-4.6633212264490425,-7.42289616823603,2.670159085622183,10.364111138536362,-2.2876358278689324,-11.00276925556436,-1.3618466376222838,1.234017584235902,-10.81313689565106,-15.939762167486668,-14.593022164501456,-23.788396911978744,-34.34745633638412,-22.5546771061698,7.637462351630707,26.991853295698856,24.177717053935357,11.039798323866094,-8.303428200193645,-27.325620993040904,-34.347003231131346,-39.17022095895544,-41.644429199475205,-35.01258289102623,-46.18973487207959,-59.23892541376222,-38.988840034983426,-41.906307831728576,-73.1616290253941,-53.279453101015505,70.97978710695156,460.6195210383803,950.5861446758697,657.2054397018342,-505.88086489139806,-1082.2597120144137,-517.5949510919074,-29.795129625876882,-94.42395034843159,-39.61177520500384,126.90151090063023,62.97298583348142,12.89343750953051,79.42800621183389,59.763624676798266,18.66462034380894,38.230363615989006,25.290895821426957,0.2357584570949678,8.074855340424515,-2.773976210612272,-21.729496390368144,-14.447829396189213,-14.54310686026394,-32.672676864518465,-42.76469591387581,-40.70467150961709,-31.049600793100137,-18.688848481433663,-9.780533321326637,4.609061378040103,29.83444706056204,54.248762616369305,76.32240212986886,103.4536982337923,126.31206772053218,133.2158377896547,129.97057045848797,115.82815588727242,75.29268419060577,17.226780612848216,-27.756578184660572,-57.41818262865061,-85.69984201493077,-101.2520048070368,-94.71368966794853,-81.01056391642237,-66.85344346171533,-50.07213548384705,-38.40589999846329,-31.18508936843713,-19.137453779137868,-7.160990265913092,-2.780585629514025,-2.5466798673125837,-3.641656255570936,-4.979559770743613,-3.46889155015767,-0.4380004244571314,1.4062588735254078,3.6659666544406857,5.965689419370143,4.687724103524885,1.6469464159253349,2.5775548357609015,4.86238035551454,0.8477488281494665,-4.937300436810971,-2.467038263742216,2.9698611903093246,1.283531108352884,-4.556233922112543,-9.932270621320109,-13.742128617857555,-10.27369260763138,-2.3616849403502176,-3.0729599779340457,-8.876832198892949,-6.659397589464408,-1.980865181963388,-3.7320203922309556,-6.044012204523783,-5.676411658947034,-5.0963753840778345,-3.110462968298883,-2.450208192970157,-4.7046634289335465,-3.605159448151559,-1.7428213285484837,-5.76533473652275,-9.097158162461097,-8.166161277949511,-7.177383205949543,-3.1626864941337374,-0.19362008353117588,-7.58706721047346,-12.901398239427873,-5.262442777710406,1.5976149027261393,2.495167915597106,2.4421846431629817,-6.614619950447727,-19.95027891767262,-17.55099923140985,-4.969189470497827,0.04979616333397985,0.4128518093280995,1.9950241285608268,0.40703468940203535,-6.104094103571548,-12.715235171184652,-12.233808728871985,-7.331481090500869,-10.795404697601345,-19.478621949092098,-21.088972348884454,-21.36815654917157,-18.533529984299904,4.09015617471459,30.968893347302,33.64955059013994,20.752811614119683,7.784863661021889,-5.991233248006571,-21.29992282217245,-39.59456276687078,-48.30866028136011,-43.79824022749391,-55.636937569768136,-64.16950315534966,-43.42038218197614,-59.30094420879598,-104.38235741525995,-84.7506139093637,56.838683575988796,474.5700875854679,972.6933482136561,664.1718235012897,-479.5943667178851,-1000.432482806615,-429.57002591792036,5.0832798340500105,-98.4682724853877,-57.984040245768895,94.60965385882123,33.39158198476027,-0.12833967736378327,71.54611919025116,51.301412499251164,12.4024213628888,33.65598364182023,25.481448579565885,2.0822274818938835,5.336474459466708,-3.1535964321386594,-20.700576422451935,-24.430526005663996,-26.196063808735417,-28.845550450376248,-30.023999103930414,-31.473145095421017,-28.261994712503387,-22.52821255240737,-13.586357904175099,5.565667362294533,25.672777853919794,40.50908277367881,61.440595694240315,87.696595684191,109.14919423243671,124.50238873214712,125.27634278958453,102.33597165333398,67.60675221797592,31.490604155660463,-10.424346457240912,-50.772980305600974,-74.21735295430615,-83.59792602645479,-86.39734661169406,-77.63536208249151,-59.03739278247369,-43.93458436882616,-34.13267946649544,-22.81475575840721,-12.507729113482021,-5.24855772162892,3.063253389221316,9.049103377069125,9.219572869157268,8.734319102194853,6.461885705821295,-1.4008351718691383,-7.377756826281898,-6.4380398439221,-2.869905088690274,0.13913892973859632,-0.5990945656788114,-4.052453491525235,-3.2980426328506205,-3.26707954322535,-11.119763023463355,-15.063803158667714,-8.632815024387543,-4.684054745741603,-7.070180496059351,-8.686878659081327,-9.646384851164143,-10.699042284017303,-10.161611590754971,-10.585677231811395,-11.842885662243077,-9.449926868483248,-5.007001701718181,-5.388108522509297,-9.992161613702537,-9.124140867035294,-1.9718760834135676,-0.32681351930553504,-4.056971577674778,-1.572347624838775,2.7580493090293867,-1.349992094218349,-6.649443645443891,-5.948597634667096,-5.071469913467174,-5.352950707554968,-3.7648901832351767,-3.7719630018661023,-5.622469680632809,-4.809036531288527,-3.875565219506342,-4.853076855606655,-2.378535608810033,1.4117738727622813,-1.4258052606833367,-5.326035537915068,-1.2674991902711747,3.9179781439945818,2.992707556503709,1.1246229307642936,-1.1513512137714041,-7.059841831755117,-7.449222146933973,2.6028292719378103,9.912836142157365,6.26879411149983,-3.397822901418639,-14.073914933655962,-17.93872347467537,-10.750557443400334,-4.196869179990173,-4.974301205219922,-4.471741147443714,-2.63619273142025,-5.354158044862189,-7.364688754428011,-6.678128580868618,-9.108384543982462,-11.585057054051386,-10.115923332252944,-9.924374033522504,-10.75429080629963,-7.385614686459276,-4.701014856708254,-7.453386118790236,-7.985936479432032,-2.082247610121612,1.8591720545051191,-0.5919616749221066,-3.6262574754785266,-3.611462077677004,-0.603916051935578,5.605858176889186,8.923986394984647,3.929141820985893,-0.9401821822384195,-1.4846450432474363,-4.16418246691164,2.8423426408785293,31.084716439914214,53.316792894689655,44.40793573263879,19.21837022382398,0.7666204560214158,-4.82673536530337,-12.737640598731502,-33.49902693098201,-45.90134644864487,-50.17957307653475,-61.28803456593725,-53.61128096318363,-50.63464641438693,-94.47674601777067,-114.67941198512025,-41.340927701060565,237.22499460142942,782.5767345162263,960.4451788266465,110.554836429604,-863.1007028386324,-728.5287448696773,-109.71261424086948,-32.29400795900007,-114.43142091325251,41.560176330914175,74.51274574615681,-13.071901916755412,27.40354067131791,59.093536889959346,19.113444281167496,26.10353959790419,31.656101639866108,3.282472889964695,5.944688132346715,12.568930487419435,-3.3676230072556192,-9.536890066547326,-18.693168929724635,-38.30669248604203,-39.66615361312495,-31.273359789626962,-30.499917803082518,-26.52704606573038,-18.329657257564943,-8.985480426395629,9.389348401341028,30.586326026850692,45.10472397455733,60.548915350446954,78.9789866474116,92.50018108610388,102.7883431154387,110.56149252349525,104.41455159846292,76.60742151917749,32.295696935780114,-13.978551201508058,-46.29810833774836,-61.88928514947713,-69.82979644319738,-73.7013523858903,-70.55609697087213,-59.84487829788102,-43.191720906382265,-25.805067188756492,-15.899529416509822,-13.066516198299208,-8.74751976972492,-1.8810663429894685,2.4528237482974085,4.456917130280466,3.52065312044029,-3.4547470658874744,-9.789389809359331,-8.319784040153944,-5.583150270727884,-6.186012064331688,-5.237456067512975,-2.9644630835249206,-1.8858122404104396,0.2262782952204594,2.2349608771406215,1.4768634810946448,-1.2105060808685035,-5.071685513909333,-6.464552508084527,-2.6994917286317595,-0.011173927237352999,-0.6840602275717762,0.10937259530062882,-0.6645127456714501,-5.092966358481096,-6.826774740893395,-7.760834116254628,-11.904249072433704,-12.604076352516502,-9.959203509658794,-10.465179992641339,-8.417219847320432,-0.20071392874996086,3.860750473334739,-0.9122869112729397,-7.712458239766411,-10.692131499773009,-8.65371639095699,-3.5174369050048178,2.021606198263896,4.4815535034927425,-0.363422816175035,-7.361165545804671,-4.061273489618085,6.706029365108778,7.4544185163581655,-5.532373963232933,-15.745491072183912,-12.21783950296855,-4.625624531896053,-4.32703716425779,-7.105518732655117,-6.259602763004018,-3.6696791588344926,-2.468423620859376,-4.056338423483312,-5.777219000281282,-1.816323073782212,1.5748326393857024,-5.394977197307419,-9.896755149002393,0.4658845458787262,7.315364397769807,-1.8443674845763391,-8.045023377108144,-2.2019754357270562,2.325249908202731,2.263522922533779,-0.6432871162500948,-10.221261224694821,-14.558761435179985,-3.1714685603874324,4.553344083751062,-2.1231661162320385,-5.6365410763780845,-5.117977026559656,-11.73367433518297,-10.656625412688623,5.118124261490495,9.530192071168747,-3.3796947566682345,-8.293788928951141,-4.094024944197871,-9.129265970698743,-17.336464212066353,-17.0408981508029,-10.633260274638097,8.812181025298425,38.64475453562844,45.99072426777646,20.598596401331932,-7.772338939079736,-21.26738308123048,-29.440659345654836,-42.51874483297469,-48.89240789980001,-40.73456793869,-43.771902746254625,-50.18349468735241,-33.858225222794374,-50.937152978922626,-104.84793696756634,-93.41056900222355,35.079179113593085,405.43592546525645,930.6279919140957,796.1316705676277,-294.1270336722379,-1025.8876369821137,-588.1082711053577,-48.00960783725966,-83.6099939253311,-81.89282138215897,85.8833432579554,58.5670600969877,7.7383140267587205,65.34592199334864,41.35770921297974,-5.508071858261866,23.76280620078386,20.673944367782855,-9.71305173321511,-1.2861147275683038,-2.6214469814907932,-21.750242808300232,-23.70666896571822,-23.774405230458402,-24.8814423600284,-20.351401801417044,-22.647734229429496,-21.91239987496067,-12.177061328865957,-11.118544336960273,-11.980469256826474,2.474530662270819,26.342070490695598,51.6469588043608,74.43026047036943,89.78685879068343,101.51465430741769,111.47143839442873,112.34611013295716,98.1128570678283,64.11387528523156,14.852478595232336,-29.48785232121197,-57.14265689986818,-74.86025315489002,-85.79613469367104,-83.12923071870111,-66.01225126989678,-48.23144095351418,-42.64218616556475,-39.43502036841903,-24.404517971302667,-11.064949027296002,-16.37881720514002,-24.087848226983112,-12.129314503142531,5.966039088954048,3.00075086882482,-11.824502219582515,-7.215088518484732,8.084866135457162,1.043562587720146,-14.322114569866347,-6.4914645761576235,4.922575332934882,-3.2250906961019083,-8.533610367131214,-1.3502953266702136,-1.762769398652635,-5.267476113914192,-0.2062889497609035,-2.9564100516362775,-13.029635174114766,-7.162006764175752,2.700471171798114,-5.302395406047147,-12.66403801957556,-8.036570835475015,-6.9454692754766505,-2.6161047289498764,9.072583734499752,3.583053082712077,-11.667121948388562,-10.888194466212981,-10.709716966441476,-17.524877967876563,-7.85166950629708,0.6971656342867014,-11.626150212998251,-13.753715312243443,-2.849529384386992,-5.7706636145712995,-3.7228008002979998,8.171971451951666,-6.775936899095452,-28.32010120081666,-16.6760177817963,-4.177037118040468,-9.982456901263834,-0.8311902222018777,11.789348593497143,-1.5819120367544688,-14.766870118983714,-9.849171179327442,-5.548289963265012,-2.8399815255236014,-0.17423741903429324,-9.539653481208987,-20.26884006402736,-14.822910697604616,-1.015754135958849,4.859754964004479,-1.292635894183217,-3.52900935647871,14.907824232460088,37.923141204151335,36.50902086518445,8.453891309077482,-22.305893284555975,-35.71346485717708,-43.85813786969854,-56.18249811396046,-55.15237950012158,-50.981799229907516,-50.0936725383262,-31.77232383313497,-38.91566050887028,-78.69359710997519,-59.36470062026775,62.35792821190705,407.1500849076052,918.0463332039385,791.0446071467561,-325.8919604599172,-1114.076093167015,-672.2920690928358,-72.34790797589392,-74.14695771063293,-59.84940689503681,124.79312393680715,85.4046166728378,7.625055323287629,72.51811496949507,65.99530516889638,13.330259374850872,36.128847284213265,34.12225731019255,-3.727675506668273,-5.406722176888417,-11.392596005561588,-28.478168161426925,-16.596853627588363,-7.94777734972408,-24.756090902743654,-37.35107691094644,-36.220748086517375,-28.879929654178483,-17.0825378652502,-4.079722369439294,7.7985163852087975,16.246542517275753,28.64794997179166,59.95872687768351,97.60691893824132,117.26731834232069,126.57024595403217,135.25726700097027,125.62666573335449,89.15778485096972,40.05174573796365,-10.949504511267053,-58.44323890865216,-91.30488055160774,-100.79304172272786,-93.64391258576285,-84.4215705560265,-75.44563390969854,-60.746411781906936,-42.4731504646992,-25.984286556026568,-14.833191514228751,-11.278791555947254,-7.479072843472693,1.9741732497152604,3.8705812329493305,-7.110193539437148,-14.902559387877961,-11.800934737335899,-4.60934181483341,2.6398190143596487,7.071285189579443,5.148768736974215,-0.2082896593537651,-0.7833855199284514,6.9897521089242165,13.465152532761515,7.763873588009584,-2.9642591995181853,-4.965618106685769,1.4141765814202247,5.9118449480225,1.8027385064000807,-6.110382108260185,-8.423035419600968,-7.31006058591111,-8.437018832193731,-8.467345239693397,-8.594904686796584,-11.932035223707196,-9.107819893136389,0.936931924296907,2.797829709590043,-4.680756141530525,-8.3808495466039,-6.952756397424746,-5.374738834294599,-2.7313647555347345,0.3434216063749247,1.0945007457012412,0.9765692258202101,1.1247506900464996,-0.9948113591051131,-4.511092112045614,-5.167973862348264,-5.269072919712416,-8.708675521664373,-9.819232512297354,-6.03818983627581,-6.260988020080859,-12.715125341992279,-17.210303426978193,-11.831785874325105,9.296776851268758,37.21395986737429,48.34058264586971,33.38653753781391,1.5565234945716946,-27.52794974922452,-36.497544491401214,-41.64916069098109,-54.11643305025881,-48.98162757221214,-44.25376403563104,-59.83259098404703,-48.193853055498835,-33.40379351018645,-66.2058746556751,-70.64350718945207,21.99381259487609,325.6555895374598,857.1394294827714,901.383715433463,-99.98174990553937,-1036.7971003282569,-754.2762082348704,-96.37108746744497,-45.77601411970056,-100.76101796151931,75.94901064091223,89.25218819309666,4.772695596908729,60.044963685128245,79.00712714703823,24.157338559189576,33.47341923238882,44.42246631896799,13.802737940349218,4.009714173450899,-1.7819880083360102,-17.221517178489766,-16.2946432161169,-20.26223251895008,-34.07612764050174,-31.654582099829927,-26.700267768158163,-31.170743544741185,-27.05126227468451,-14.5657574698828,-1.216246376525067,19.551958774037367,43.66456284363295,64.24607332059747,87.41604288530631,111.33600914821713,126.17350096618802,129.48071690833547,117.8281399351221,87.0215304835778,41.99454474677645,-6.3500319590300265,-43.87530934120642,-63.47360979590424,-73.71842173284575,-78.81889641620874,-72.43247094243243,-58.08021967007194,-43.59232160602609,-29.645202499052033,-19.824511570802596,-15.637978438249453,-10.778563030538212,-5.79921535580192,-3.8265028280002333,0.24330693411950044,5.365773012845358,3.051263536404175,-5.173074072677053,-11.30051814767452,-12.12049798871191,-7.58404761887423,-0.8142263983666922,1.9114290783456092,-0.41804785452432824,-0.03663943427319971,7.150254293963645,9.803635460517906,-1.4603912369510024,-12.922340456873446,-12.269520595285815,-11.364616350074638,-15.153352779221564,-11.25577105253078,-4.287323500856324,-7.395817413071953,-12.385416124917306,-9.644145147203504,-5.342451946796832,-4.626644913721785,-7.394685223622812,-10.72778532059013,-8.284840093166322,-2.3127305600148773,-0.5988314160472523,-1.1566426891941024,-1.6354228879560395,-5.294710083963873,-7.850291295723585,-4.177020945927939,-0.13573018619594457,0.3005422855975528,0.10087496825462416,-2.112665145676573,-6.495729939018315,-4.922334798231749,2.9828035965465896,5.759846089148301,0.8222631562839755,-3.0659692364720357,-2.010905373753145,0.42396062469100393,-1.6485264376063693,-9.139646433741792,-12.083310351184725,-5.712504627111365,-0.9445009453956343,-3.1662866681134325,-5.879584411683615,-6.375801341046664,-4.435875307834047,-0.7708998444083095,-0.6296509374578836,-2.6104064405332483,-0.8884914808096145,1.2247422057827961,0.5722721685969603,-0.4034323726201907,-2.2784499863897656,-3.7047935995585672,-1.2608784229173033,1.7231720210939052,1.800972700547522,-0.08241208767083741,-2.181692442192481,0.30743345739691397,8.475549899728366,13.245912844383778,7.673362864155376,-4.256098689886168,-10.66942509506428,-3.4649928257260623,5.065667900306963,-2.833425904085109,-18.165253848157697,-20.614716705867107,-11.886004055044996,-5.024276851620904,-3.488657169575429,-5.2996155379698475,-7.743960160136112,-6.074411644944754,-0.4987925087148759,1.8613813831078243,0.06816490626618776,-0.4621688666017141,-2.8488398277159748,-10.133356887451688,-14.305725663213263,-13.667860904601309,-9.063547165492674,9.03131714975089,31.539910342588705,33.90389909013042,19.367796721526375,4.483674298592377,-7.00582660754002,-17.664228785780434,-35.22289781910538,-48.8186367077042,-45.46813954067912,-52.49727100276844,-61.13683811811843,-40.62249368168726,-51.94364903189425,-106.42429253269451,-106.04344444859208,27.16426030422008,441.87885245059897,967.6292062549383,738.2474013182476,-373.3883649047787,-968.8202560615158,-456.400471771213,-0.30522709933591585,-97.96006033404747,-83.92687151878617,72.92444860618161,26.04037840759841,-11.738465259084508,63.028975111942316,50.525814659347546,8.870746795168257,30.10940117698412,25.433133216529754,2.0574824475912568,7.4198939808840025,0.8200257689289954,-16.862155164852545,-19.159479283357072,-23.329696014911175,-27.09726286211168,-19.07841559300519,-17.24632347492578,-22.325966403766625,-16.920270821951366,-5.608766132336385,3.8807285307771977,16.75222926259228,29.842717191531232,38.32948649518444,51.86767111548456,74.75464471784325,96.07964846285131,106.93946151111562,102.47347603440815,81.22970656945824,52.393129772117945,20.767097979380026,-18.170740428063525,-53.52750900498357,-69.19058236629138,-72.5079415215859,-73.18664913936453,-65.33217661254075,-50.70434967292492,-38.9150349167044,-30.244626285063653,-22.84915707735086,-14.886526254209098,-3.1575749896514616,4.398371227132472,0.058786705784863,-5.156415810990961,-1.5779622675644784,3.4396372409328606,3.8231020742308433,3.3970134559588505,4.166642914577414,1.3510690157797711,-7.444794141545302,-14.21307607710417,-11.750103835171602,-5.516935856719121,-2.5795178934655496,-4.0305508846016185,-9.0512405180014,-10.405370281683615,-3.405900007299417,0.033337372830224865,-5.377609425596736,-6.409639966839398,-2.395176259054022,-3.847760613221757,-6.348689309962227,-5.972536229522916,-7.800891118975811,-7.786110736022556,-5.573420902469003,-9.781136114337691,-12.198913794613906,-3.243563977693033,2.8968262061978436,-2.6369826072861944,-7.791842266419021,-5.880801561971242,-1.7742235977192875,0.6290463713076626,1.1907197347588605,1.8196934350505725,2.660583026030017,2.7093303299746694,2.020258920548292,-2.345234278565364,-10.261619233445147,-13.775065164965541,-11.084244213814635,-7.8165973625374905,-5.66510598909519,-4.11761378021591,-0.9726598829196256,3.9356902022977143,2.8603153172729305,-1.7479697209734608,1.0225140502711456,1.1755422285873482,-10.441168696308347,-15.679780587555957,-8.760069369897181,-6.714439029231238,-9.43601173748013,-7.329012127809461,-4.309290160709452,-3.291954844401179,-2.7395043596063946,-2.9566828499521582,-1.6631250276741225,-0.833676704545538,-3.621718196768011,-2.5552843121530797,3.061074449933965,2.651213506202156,-0.08595374904528175,2.9762695473561234,2.24259477973904,-6.330283563432216,-8.592411907238183,-2.9119879554869446,-3.709876395810088,-8.856689146817796,-5.10775059827861,0.07379119898291986,-4.71580742377434,-8.546237271630435,-6.037017746665848,-8.528493806891074,-14.01632891050034,-14.501125867744369,-8.80418098392667,10.224458164823785,33.44210712354169,34.560723461448156,16.793535276102816,-0.09730032129227473,-12.038216328415174,-22.10434261294638,-37.91946440903466,-50.302808862001235,-45.582477227401505,-48.826782066455124,-57.345787238111534,-46.93129786039808,-62.96896431092659,-99.46333711641698,-72.57728171898341,86.56292100168758,516.4445899125726,978.9920946744267,622.0025495069559,-502.915756650571,-970.1644748327799,-403.15315923060865,-5.940784803976921,-109.89656287922561,-55.54732771170306,89.0393703031669,21.435067267507335,-7.640167954894711,63.10969678359557,42.126324636036124,8.802857988700236,33.36947120376713,25.67166553318656,3.4146373871078364,5.679148119378677,-7.037133456211015,-28.158060297314723,-31.237145979198466,-29.406239063780276,-28.083668628211843,-26.244363615681667,-30.29241565603569,-34.17942836151426,-29.015478530139124,-15.883697184671087,-0.11148299561011221,13.842191426060317,29.99632963940762,52.5610487001568,71.77777196365588,81.8797456361385,91.17797163659466,98.90441669352657,96.69189656683339,84.50648819091671,58.424069289283196,16.679523134070024,-22.710349758264226,-48.42174693843745,-65.87544952554794,-70.33991474180861,-61.04640431727623,-53.82681320448491,-49.21200464753161,-39.664202906286306,-33.6781386913198,-30.364172931657755,-17.65952610894887,-1.352945073903058,8.07653998456806,9.676059839112034,3.4355223006154496,-1.4571478186814009,3.419927589558262,3.664503123920584,-8.50602570126359,-12.24038952487776,0.9765126574203356,9.691620335794797,3.771122621632575,-0.7331439491223275,2.4340454509961615,0.27595906827508543,-5.984731772365562,-4.042721117818532,-2.63843778119233,-10.17497459938736,-11.828846104953854,-7.263726784878044,-13.43588944356567,-20.774890126321715,-12.001845554594441,0.21950686819594267,1.2879624050162182,-1.9414532269284983,-2.895538260594277,-4.486609795946816,-8.771556739071482,-13.104949907735294,-12.637933578090395,-8.180921373964287,-6.163243634122818,-4.268265263181813,3.987431547810889,8.580713580306554,-1.5544150478377965,-11.471213423204551,-6.6253779452191965,-0.6967920499289448,-3.6103887665117513,-3.3138442421159926,3.383454409170776,4.76929231478485,-3.507494658404182,-12.94325943833514,-9.505674556629245,4.9330127105101464,5.2322068148579675,-13.338105553744974,-21.335617900258363,-9.737649294049213,0.33313162879877645,0.25501025981220415,-6.015799226447996,-14.87184029858755,-15.918638828152888,-7.839792559911479,-3.8445507454288004,-4.211470664463409,-1.0364957095254468,0.6796967324227463,-2.2775942205172006,-3.0559706270975067,0.1294414349928692,3.358168488066423,2.8722473717115093,-2.847157486016499,-7.525539791568597,-4.856838277465407,0.22262993295981737,1.620968833870121,0.776150433600928,0.2455094987660118,1.280007584419562,1.725644977476266,-4.674054773661881,-14.826168863399367,-19.267380519845954,-21.87004889674759,-20.853650394747298,1.2752526211541015,27.736274368413376,22.526560099188735,3.575385198468666,-1.7079489193863235,-10.30818622636912,-26.122181974650985,-41.31078571976677,-58.88745696929981,-56.80136582483112,-43.60730134808389,-52.903976481191904,-49.31113683137552,-37.95272737982233,-73.517049183202,-92.80055093312322,-9.324933559916076,288.54091872310096,825.5303379000544,931.8543075780168,-9.170452233052373,-995.3296481771843,-794.3965718668086,-124.83648757544806,-35.58926482670278,-103.04453967154846,65.41436809980324,91.0689075343373,-2.0888562921832445,45.40943741282349,76.07880276589243,20.793047914183852,23.816725435879526,44.275972957821,16.81082610551399,1.3651342989070656,3.2749214339452326,-12.913575895182158,-32.73626224288297,-35.2100982718013,-26.87587535409409,-27.793647360848997,-37.03154396833019,-34.632781856705975,-26.05907870870862,-22.215947818588614,-10.079489985985823,10.607954965444083,29.824879943218942,54.252589462650036,78.88324104537257,88.80841262427822,97.60799596295263,120.24075850739685,133.21330990393295,111.2143575139235,68.99790462189537,28.618531634386542,-15.33593703731188,-60.79242064299013,-83.61120757728456,-84.41607824875516,-82.03082230814724,-72.40129208818041,-55.8538311778795,-50.054511296052986,-50.04751517227103,-40.98195477013626,-26.544001695744335,-9.86864657071698,3.4614194277158887,-1.5749552732795635,-15.669466238336788,-14.28119560026599,-4.177605242759043,-5.24531543404289,-9.538561682421978,-3.5942548900518183,2.616246503173505,1.563352391202777,2.9129970274601718,4.374601878861029,-3.1681890695359645,-7.386481945993722,0.06488729984554897,5.529378353467726,4.141798340447972,0.41496149072526833,-4.125468972196929,-1.661945868464075,0.9990560670854958,-13.576056522373953,-24.930392613950236,-11.66596587414493,-2.9158909985722357,-11.444269189123073,-9.41917235845049,-2.2801487515610432,-9.803276677145815,-10.767765342546646,3.108251298016901,3.9258679143761146,-6.863203658720298,-5.388733268946636,0.11326076740884083,-3.900667157466909,-3.9974749285924114,3.2618934984702506,0.2041376117735556,-11.429338950090157,-13.355780241322176,-8.868564933759892,-11.888218704613923,-15.994991094870876,-11.108549342227466,-7.554930203954372,-13.93654149662312,-16.12675720089553,-8.193864292473375,-8.361390661036697,-8.61305949516754,21.902965275708862,54.127227247053014,35.26394367809148,-4.209033885439851,-13.405474208175406,-14.604612477157147,-35.95900952908107,-53.46800345857877,-41.297034576142416,-27.094969796670885,-50.15016934087338,-65.40265885686466,-36.662481953362786,-42.31079151693396,-80.3598550599984,-49.80707002017685,104.25932211536565,517.9000962588163,983.7129885633688,621.1684910468629,-578.008671969076,-1122.2236108600216,-521.5970568012758,-29.40563184459038,-89.87728091128392,-28.0761768223904,135.929849715929,73.69761876723202,25.72396123423402,85.07557055839034,66.140782700156,33.64266928777459,50.76562793500872,29.34577481399075,-1.0907676419811878,1.8635635045574932,-8.257593727340963,-20.934080202497995,-14.119867357653654,-19.89233077595087,-35.86975466909577,-38.00892191915483,-36.630351554237485,-35.99556754560189,-25.605341891369825,-12.43440167427921,-0.8523559545123227,21.777951630524246,55.333448508450125,85.15385339051501,107.26039501810557,124.348358297984,134.55346299383024,136.25684845021152,125.0569468146143,92.71172099925447,39.8791048695396,-20.233825490355414,-70.69538186301126,-100.42337116295451,-107.23826658974298,-95.17122842355377,-77.22050224220453,-66.68532968582832,-57.47831208459655,-40.28520077423363,-25.215355863730643,-19.430984870773123,-15.976985889651957,-12.111582637570276,-6.527623093780132,1.2800303417025543,3.0428904992670773,-0.5476463941004095,1.007799550255566,4.697272934434846,2.6557703273472804,-2.8134972943364467,-6.861310649090228,-5.482556897668273,-0.3762998698584985,0.48718585655533,-0.5756431886233324,4.149349187473778,10.450872393025158,11.708189235782658,6.534548637471067,-3.7132228684112505,-9.269496505016297,-4.40225846474396,-0.7537597208106162,-4.694176238402643,-7.427930169605231,-7.47377760089604,-9.702817435760679,-8.928556873057325,-1.499116984991101,2.188670097685927,-5.154410032823174,-13.086432329133912,-9.904260230641839,-0.9575259397386189,3.08229546045741,1.8183546281165581,-2.229657337075519,-7.311230574245464,-7.137524202586192,-2.5706163485701445,-2.4114111562041414,-2.1172083037393588,2.827370562115087,-1.8482394303356013,-12.894950878074605,-6.058452006201407,7.7500275203556255,0.6767751442693566,-12.282944640387129,-7.628512360805251,1.8158468913529617,2.0905725448523285,0.4378229154390554,2.2258933520091273,2.9970912127993437,-1.332734418729164,-5.668526692462758,-1.307107702188999,6.250781403598004,5.124924576383744,-0.6442773972781959,-2.222156386777352,-3.5531657948070965,-8.234570844368024,-9.793119505526755,-4.91791990266223,1.6993259361695148,5.93748758922367,6.147576626910792,5.243596834944898,9.040503994817158,10.019819371484697,-2.7666497101385588,-14.943653479511369,-11.731323794564222,-8.47966411516557,-14.861550512974556,-17.441791891830686,-13.07594820440984,-9.380017727890671,-7.263977980351561,-5.7610442581718955,-1.6269794555051806,4.618595471228374,3.0950795347990208,-2.3409639868539713,0.64743386483714,2.568358152905156,-4.344393544158009,-4.633896136914055,3.6428325019824492,4.402456623453567,0.19175379075908294,0.9934628401255567,-1.325525691143648,-11.066531421961972,-17.667170191818748,-19.52716647200632,-16.419441316342066,4.0431069442572705,32.11611314343038,37.56012756989273,21.556830607108257,5.133325987992977,-8.612188566792481,-23.44463587271207,-39.43935989196614,-47.622506916615535,-45.51889255293922,-54.680930073590595,-61.27707194898332,-45.802740025700956,-64.6034126355132,-110.3047400998208,-91.54570162716354,50.43893865350773,465.9733265757593,990.4027411949785,748.0506895282406,-388.1970172211647,-996.4230427507778,-472.68687926123164,0.3510398086976423,-91.11499727996936,-75.47594610093137,83.96382693855752,34.01130394603443,-12.803707761161848,58.61567119742862,52.62153449086326,17.31630856470778,38.28757896404354,29.642689749338228,1.8960811747316022,6.352152751622113,0.7830858306570931,-22.482447558863186,-29.515399736107756,-24.55374560294462,-22.32716189236186,-28.127511076516193,-39.28134791693477,-40.63936252526908,-30.25583801360217,-22.575466371594224,-16.072036218173544,2.1745237840528375,25.03852021706963,36.90293893495355,46.60610311893368,68.44528199948238,89.65526891772856,95.93553921344902,95.12146352815346,90.68811460313103,72.82015074010108,40.430183360797905,3.064589267035293,-29.956935752903398,-53.520984876837076,-67.32328824447623,-70.76999930411586,-63.61910622798986,-51.832971773762246,-40.76859671309866,-31.26506882132393,-24.1534840714279,-15.990171516929692,-3.9944554881281356,3.4212530741828324,1.8051487316481634,-0.35458986599318365,0.7468233025867139,2.8619966142757356,5.7690791047539705,4.708028083934876,-1.97882055019104,-4.263066617800762,0.03061652652966451,1.3157952931724495,-1.311309317533242,-3.1255095532494135,-4.455415631348924,-3.8599506625444135,-0.9790629483840867,-1.1734888498211333,-3.1580296586323637,-0.8024160647484795,2.328575561289397,-0.11077018580755826,-6.044130344740689,-9.855254271838268,-8.689669289806591,-6.524563212494439,-9.002051188924435,-9.735871508419224,-2.2850882719067407,1.5448924622929479,-5.483970396900737,-10.697099733003466,-8.81958594718167,-7.225307400941922,-4.569706528167066,3.113862601660717,9.306037470467482,6.282667891876468,-2.5440215347279747,-5.4958776415407105,-1.063828747804326,1.2676337854407964,2.8173957768794904,5.220591973021954,-3.4888751356003116,-17.206096420364887,-16.121306934569915,-8.586421234696937,-7.630844707257966,-4.598325718734733,-1.7549078777230651,-6.829649569800862,-7.051177336982052,0.7418375310688141,1.8730873684493892,-3.313934906165237,-6.793339596686308,-9.547710529049962,-9.19378459169786,-3.2748272558690585,0.7871871933551757,-1.010974614924252,-3.171179796693764,-3.2766599172962074,-4.055452939336702,-3.4460211877750995,0.8805873130058615,1.2478813188620403,-5.007226807224389,-5.68184494790174,0.3732804307585047,0.02505651146881327,-3.65720979564221,-0.5645526305024813,0.811116941279348,-5.955744593245411,-8.87728724947854,-1.4573859823124578,6.253421111945816,4.398749414417513,-3.8771033526137706,-6.804185727713038,-0.6180534978300545,5.572037356301881,5.401978541440575,2.149597894165761,0.045988778338305725,-1.058643394719038,-3.6147178409274003,-5.742372747366363,-4.2004622872917645,-5.28671214107431,-13.165293156630693,-17.840904978249544,-11.822868085264732,4.4090992671064955,26.03432264691815,36.239544244216496,25.13512638397832,6.902814314719377,-3.9718281243356586,-10.303320397488605,-25.205563970740986,-43.94963651854239,-45.67005828818141,-48.97130336270725,-66.22275274649176,-56.03122781996839,-48.46376245378838,-92.36752313596011,-107.05767360389964,-20.362405320594263,274.8559724739439,819.8820522223243,947.2498610978269,40.24456759571473,-907.7466402141647,-708.0568639476414,-92.15648872121035,-50.77277540368365,-130.27877593122517,28.118606722803577,44.683402347873184,-30.74037320041512,35.4641400134452,62.19556553274839,6.919068725861052,16.776856904461816,30.72590380755713,2.152023374084898,1.3605142134139854,8.031652927587977,-9.53058071271337,-19.247678522069116,-18.779975559959365,-20.38345571599241,-20.386015598369514,-23.23098407849185,-27.38459011069741,-26.461601398167467,-22.98474343390492,-14.153396698003075,2.7999290994475423,20.447937555485222,34.57543400790128,47.67792338666393,62.29136216405877,78.53954830799307,93.02361624495182,102.05926544614186,99.75442069704596,76.9742736283446,38.30823401759869,3.572345418357388,-20.462463448868796,-42.58460933498372,-60.61041235757245,-65.60280442656946,-62.04038445667139,-55.01427265263552,-40.941437757124824,-27.099877748561568,-24.568398875127414,-23.275283368562178,-11.777692494387772,0.25100042094814334,6.086312185959569,11.128627093736885,10.38048568407929,-2.213105461669107,-12.532566541676793,-8.383255620442874,-0.9570178891042502,-2.271671155715726,-6.663099208684768,-6.154961354494205,-3.1135088793860994,-2.776631152596188,-3.832760217942619,-0.8475861255175179,4.272199223522104,4.525628161923291,1.911857300954198,0.013765549780780262,-4.398939123861034,-6.355890747591861,-1.0641889374738973,-0.9886365834816715,-7.294920560822286,-3.619670401547932,2.192853756559341,-8.591361419702144,-22.68330563935811,-20.750612494141404,-10.63307834942235,-5.6111938102971415,-5.871104506704569,-6.885994481149066,-7.461848885326436,-8.742620875538584,-7.661744005288904,-2.122805543363161,0.18003372826682806,-3.3837617530290895,-3.7177382192014843,-0.393346358272046,-0.4623399821088716,-1.760349463791269,-1.395967640125531,-1.869465628341473,-2.441568606148577,-3.148767083504316,-5.0351496000241225,-2.77022267155038,2.352453685576182,-1.1523529964362282,-9.613664079314908,-7.448114124480989,0.30855010049903875,-1.8576650559753816,-6.508213738483687,-1.7751214669440305,0.36900552821221844,-5.407700034772799,-2.407093819351206,4.946633678104133,-1.5246724179888558,-5.764613574019111,6.159401127807091,9.047955328721573,-1.9227943484726984,0.04065067064188943,9.849682424418765,7.260866493384824,0.9611323241810927,-3.3090508910977334,-13.094024391849269,-19.146065168841893,-14.262846903199698,-10.790855441085851,-11.336817840876698,-6.575813346127214,0.19442642473615912,0.021401334995724497,-5.001157112915346,-6.6558284268787915,-3.69946311421217,-5.525548439543593,-16.642092898278626,-26.11827339388986,-24.782358079988914,-12.23370568685425,11.607028617882294,34.36575021191251,35.58123521293644,17.832328805192393,0.46026768948363816,-9.114289890814625,-19.82229560607888,-36.12562486395897,-41.59301781632506,-40.89866918306512,-60.77479480304376,-68.84266865991603,-47.11568964962752,-62.86952967058725,-100.05434217345525,-75.63944270781786,81.25755965606072,526.6797740504014,978.5884036326966,561.6204161446575,-571.5166364357545,-966.0304722542535,-367.4023368924685,-2.1888475687328324,-110.02735532180401,-38.06465426719311,97.38711688177735,21.98769237423153,0.16226470809125715,68.26294942147771,44.3299676565412,17.3488460665188,37.49919180926204,18.021602307523864,-3.7653689467291933,4.915890560824106,-3.3580520015041593,-16.112650105023647,-15.170257550047435,-22.861967073856253,-28.068813749669587,-19.17102031982723,-18.406429181810267,-26.342942535606912,-23.42430373002592,-11.358401276750357,0.5515102020635858,15.243237427907728,31.84333705598683,41.371395845427536,48.63339522029915,67.05588077278509,89.65559490678409,99.7842003184991,98.42695357223712,88.70540313058373,61.90063517960596,21.914845033684358,-11.858542643269505,-34.41118201319734,-53.922324675480475,-67.96706441942094,-71.19245899384188,-68.81446216015884,-61.1895585498409,-42.61219801556821,-23.6575382698427,-19.1395204404801,-19.226137048553277,-8.644724088088601,4.022944282585698,6.090412810520747,2.318129469027296,-0.08024173714929361,0.6753561547087799,6.005964179505485,10.381350416205258,8.717159768047756,7.719506428319162,6.283786110733453,-5.26082390652731,-17.183289538401223,-14.906592130554523,-4.335786629845071,4.530517530836206,4.598379947616715,-7.913772633141813,-16.062606816717057,-6.271183788860288,2.2174683635867964,-3.910588431423607,-11.007960239270009,-13.654339634094548,-14.778197430696958,-9.428679555879338,-3.349393410506634,-6.686119284872145,-10.390187549809669,-7.935219300098005,-7.019462938992026,-3.6521701064611296,4.959290208506885,1.2781563478680287,-12.369421284104957,-10.616933561487066,-0.406184908883084,-2.10139693064405,-3.395025935295209,1.0397587487602102,-4.378075410834686,-8.80469229437467,1.036518631173033,5.9984233509167915,0.23852215155323986,-0.5891575889490159,-0.8016946932046469,-8.175760971622967,-12.26341943515613,-8.462626707379929,-3.459193692507416,-2.5694067450395757,-6.995573902364517,-9.291247191520718,-3.3942363264223143,1.756925727965787,-1.988834264738486,-10.098548394558836,-15.273181537708176,-11.904968206358387,-1.9452397858148034,2.844579093473678,-0.10621619229653145,-1.8333819738405523,-2.9029844415608395,-7.841398033351224,-8.285651945215694,1.1624435286723136,6.741984287586531,-2.9208447430949107,-14.668276752947474,-11.150008448907743,1.2126847565241126,7.308723855359325,8.109858976885818,8.54580490810611,4.245901891180552,-2.657166864084968,-1.9548626919341179,0.8039802834477516,-6.712306075180214,-13.705783431021601,-10.152229228633525,-12.208864673432288,-20.645966238327453,-16.36793305426246,-6.399149553758287,2.505497211764018,24.514792718963463,42.068732939369774,27.031620207901735,1.0975982747203696,-10.840664600935042,-29.444989815746165,-64.22628175563258,-73.69619445359926,-48.613875711442276,-46.43848972848551,-60.984318320758625,-44.57134284798403,-53.011638566501496,-95.48839608495948,-67.224396302374,80.66272034543064,453.48267595995475,925.3329111296558,699.723856189716,-403.4615915325741,-1040.114047812508,-536.2921194675475,-18.876073144841897,-77.08825018974746,-69.57125459755676,92.33138995434916,53.427065542162865,-0.28183519417961556,64.1866527687719,59.66079033974742,19.841581816304053,32.801416141521734,21.222608818472434,-6.517090191361028,-1.9423379777348817,-3.799934975048112,-16.289997413465528,-15.44350869649038,-18.096301094032768,-28.228694022728856,-31.497501824441976,-28.80131739317946,-23.050952512100796,-16.602221065946562,-13.89381462295158,-9.787325192161152,4.002887783225447,25.323922196975126,47.83540694844869,71.0810760082777,91.20581228677798,99.73600648216083,103.67751598436274,112.05867251327916,107.86316831492613,74.88738727049525,23.337595081408512,-28.270768178013018,-59.364917259032964,-61.88699821955275,-62.151692068267835,-75.80205648040567,-78.3214822014618,-64.05921397357164,-54.98301016242505,-45.076484692421474,-21.56297995882017,-4.5009261274190955,-6.016579375633949,-7.740946812773302,-2.614000579559704,-3.5084067188311288,-7.586301531428862,-0.72350622268854,6.026483241871613,-4.241033991433703,-13.808792054548967,-8.548110042844014,-9.029941899412963,-13.697617059831884,0.38824399371433493,13.39538189989528,3.2360594475540445,-5.248889280707246,0.26722842067608976,4.901257684004385,7.851238268219188,5.987819687227624,-3.7386323871165086,-5.292676789003012,-2.7457422281200135,-10.63688533021583,-13.008365114891085,-8.318836406583397,-16.465054578472746,-22.515139094703567,-12.571344757073268,-8.296811954021546,-10.917829299135756,-3.9631612298106713,2.487523732195669,-1.377879257903622,-7.876788292654435,-12.937606745913875,-12.016889198238967,-4.0881444730559515,-1.067583839960644,-4.376199473806205,-4.659547172689468,-5.064259466060943,-7.109230169888702,-2.3850064780499416,2.7951919939251946,-3.4236403069527643,-10.956655130358401,-9.92428698005559,-11.954756084832088,-16.660611386947846,-6.8719263477245764,2.0837580013614065,-15.245256657762562,-25.48475241678958,7.661666555588503,41.642903779705236,37.89653266779825,25.696224963927023,10.529509284216946,-26.15044913098621,-48.7409888365982,-42.12905092064328,-42.65907432561054,-44.64740928545307,-42.89508779538626,-54.1069548508857,-45.939403012214385,-33.70728057604403,-60.32722639413152,-56.19343984608638,29.665482818603948,290.5174455106404,805.2423692572231,938.6881550128536,7.030112479428794,-1035.1049748605333,-881.9013760322024,-193.1529297176004,-64.4412480064552,-106.19564295228665,87.60955984857388,126.2157338017254,27.759935336192775,73.32052389010738,100.26639352367927,32.72258453295588,32.727377241338836,54.967506595544194,21.814938377018503,-1.4183943155385403,-13.57381293486478,-37.043232503049495,-33.921820777112515,-24.16790548525057,-45.825818068823494,-56.76111743961111,-33.954732411716186,-22.08631887585311,-31.159085873036247,-28.104333510622673,-8.263092597443515,14.66655896836301,35.57377074939385,53.750093523572744,79.44066527396555,114.05536433064742,138.52460527528262,148.17623510002437,141.32920004768712,104.82452272287591,56.80716026295501,17.12425517577712,-34.83436379185846,-89.31247128192086,-104.85228936996273,-93.64616095828298,-84.48988745856846,-71.08990605332076,-58.48266512131639,-55.85719995286665,-44.919420683674815,-22.45300465443266,-10.039442225595554,-12.613834755405904,-15.064683403392294,-8.626460890040377,-5.040138194578098,-11.021842083094999,-8.849441504478806,0.31276160179890766,-4.945255936612712,-10.74281006759882,-0.9873347858614476,2.6447439727674045,-3.119519970884973,-0.38645807015509615,4.474911169099988,8.208999608194729,15.571357418344753,11.167611550642732,-2.2461181364643643,-0.11827549240131319,6.903028687734916,-1.9309005895978029,-10.259844804477225,-4.636241553001039,-1.0462905105238889,-6.8985897811653825,-9.115478933409742,-3.36428398759616,1.183773165410071,5.4104549463724965,13.280125268704758,8.148806158531544,-17.286097051138483,-33.55895258020419,-24.068402829266283,-12.214433351582633,-14.098266308125732,-19.266330904288914,-15.708631128838187,-5.3981454791845955,-3.6840603992531804,-12.702326296505891,-14.694448565551582,-13.396862927467916,-16.87036733775054,1.7137140820267618,37.84934681085157,42.643772231555204,22.73305079916754,9.488285523226327,-14.286658608193171,-40.067881812623554,-37.9489687166411,-34.14828721809378,-43.63632789361192,-50.53629419525291,-57.657396485412974,-47.097443764985584,-30.508197118093296,-49.694812494577164,-48.75442248548828,23.418103351475565,242.03899585884508,730.6124083944885,975.6850915260073,179.2104159715762,-961.0952798433841,-991.8363287877544,-267.86980669419256,-28.103105846815126,-100.02115136761388,59.37938625274684,137.6957007599367,34.011839751639904,47.751197515867815,93.15387886891654,46.495161740273375,37.20392421082478,49.89994677257725,13.88781036715748,-3.4931334401797987,4.309544802618193,-7.816772985391085,-19.4969867578278,-24.994346987869726,-36.60362550743697,-37.50237120646257,-29.917134494853496,-30.15560822779169,-27.902099267610765,-13.08622578057764,4.749418042634339,18.661264095445357,36.64534343628273,67.20603714180521,100.89620897621907,122.62001696111845,133.63795643880667,140.4170450515395,137.54196135266227,112.48478337766835,60.16246816297324,-3.1116440291453875,-53.04762403332169,-85.96565518346176,-105.51080747060632,-104.73208246189934,-89.69348201752702,-76.41405022511987,-62.28134269661179,-43.598720313308284,-28.781630604871445,-16.451958560966823,-4.597013897151257,-0.9469798736386643,-0.6316457289428499,3.299508994470484,1.3466691504067168,-6.292877512708202,-6.258185161849703,0.08568431731961645,3.1319861473691155,1.2705041892455124,-2.3809417109844393,-1.6322642998937988,4.837858190491653,7.5903151629659025,3.2180861160628904,0.42651110633251665,2.023992701166506,0.5164047140732375,-5.519605958915228,-6.798973682635042,-2.2382226428591316,-3.2163243389789997,-8.879817711984225,-9.369499960908172,-11.491100804178922,-18.507289519293703,-13.823230978046661,-0.5508439677203043,-1.6661648115973904,-11.346549354146113,-9.34404211577597,-1.9823623317908368,-0.9037185021472602,-1.122798183049344,-1.2518347081646475,-6.046888968806213,-10.166509867581,-6.4483024045026065,0.5500432744996528,2.513725469189141,-1.72850219611683,-7.181710718302201,-7.773472186051651,-1.8813486542631361,4.296988830153268,4.230995025009462,1.0561198028448278,1.3309457775529516,3.06141026434526,0.30334401831323277,-6.404532876230977,-12.178796527156802,-13.160683773736917,-7.916246541317652,-1.6378650694918555,-2.107216230944948,-4.603561115266745,1.0128058194320841,6.97910471982516,-0.1685784199727216,-12.793026665569489,-16.285164528997104,-10.655883127519003,-3.299296762057719,-1.6706253823038333,-6.980497615160758,-8.319314572658694,-2.045068911452015,1.313528081111703,0.8095473534368072,0.9093708951822812,-2.659584075137019,-5.726666241936222,-0.879078935630714,1.4335986388290536,-4.535981056215809,-6.068964179934151,0.09486353568583716,4.7162371381456385,5.228876995595161,2.5516105453934754,-2.1959861404427796,-4.534272476154822,-5.78393502742886,-9.754271329688326,-8.496041887230453,1.623887469762607,4.356420846074725,-5.99386017506933,-9.83628894682687,-1.2820086514453708,2.377534131701164,-2.037943054573775,-3.015340224169191,-0.4846024523124699,0.8956511064211892,2.4474738896962713,2.46985156905912,-1.4815123542813735,-4.3549269768699865,-2.9819419593408503,-3.026177993198687,-4.784202919295174,0.3667439777812962,6.981288741565219,0.7390257577152406,-8.325542826183407,-5.238443988331195,-2.4406785809379414,-7.186738960653015,-7.445725803450893,-1.6057970971583466,11.66569717433357,32.3813796899155,35.52182068856152,12.54638288349227,-8.861815457169579,-16.914426603087584,-24.31022410517281,-40.20746514109726,-52.60420104841398,-44.95708009348202,-44.718719004600146,-62.569456719418426,-54.49921173257927,-53.48533227156002,-100.87558093323378,-110.14223575458772,4.7136124827015635,370.22107204822913,930.9653000240738,902.7205114356591,-147.64173680179437,-988.2828700259748,-625.9163504313957,-47.99212834911651,-84.57620394372755,-125.56883089485427,61.73644172685089,54.50956211897349,-19.737068036170214,50.340177812436266,64.04117651760276,14.898921880238465,30.510063512587543,30.89977253026213,-1.4761278742797774,1.582379475652706,1.6834883784471977,-16.81130822835243,-15.190668289904306,-11.396668824008035,-20.80688456321741,-23.968945145361065,-22.744478124127788,-22.54932699604664,-17.908904410188033,-12.626988417618325,-5.825727133175525,6.068255459012283,14.297686467755625,21.095676363648238,40.31690357714251,64.98086386676538,78.70482882026022,84.10026858022223,90.25307949627224,93.26212051646098,79.96098885175792,45.732385070473704,7.071339966321904,-18.629513553506918,-36.65946494918367,-54.37842373124031,-61.74915630330959,-54.328868435384436,-45.71008215879588,-42.99996738507545,-36.58757508882272,-24.182649426389474,-18.111375048995285,-18.82957466498008,-13.898928966355234,-5.543660819378617,-2.9184322507596363,-1.716430167270742,1.6188529686528543,2.758448692357529,1.6215232151212344,-0.9398541528858146,-4.844955355632607,-5.774096094736498,-3.906660207494859,-4.007403688668253,-4.270747627687371,-2.2763823702455657,-2.06827921551646,-4.5413510859747515,-4.2172907867263145,-0.9349931221331751,-1.75617111901901,-6.160142750097325,-5.2581940429252905,0.12656788242657768,1.1571957885822384,-0.6903719262367964,1.9563758304988212,5.572794051673461,2.1143286919624256,-2.6895075174326655,-0.5445727757362988,-3.8514967271577234,-20.340644728318598,-26.6169060984134,-13.179722394749794,-4.550371334774807,-5.99600144059127,-3.733791742850011,-4.323367992565329,-9.439410461470091,-5.338264798070914,0.7982074223389448,-2.4906169157630593,-4.720270497484332,-1.8928062692403511,-2.2670155000035237,-3.5593466804813865,-1.7829860542324028,-0.7520073309797581,-1.5484236546493717,-2.54740498070246,-3.488519678947263,-3.1232651733193038,-1.2718994259554597,-0.9953939448867422,-4.316805982729099,-6.630726686213102,-1.3932167395379915,5.594060136995555,2.2152673928269997,-5.772241611757616,-4.077594268228124,1.409421901554377,0.07274714925800829,0.15625362081666072,4.088978097854433,-1.125491427465204,-10.623209703490634,-9.401424144054637,-4.933805637752911,-5.389731995490115,-2.626210263031388,0.2272201446907598,-4.615993927493002,-7.300162684265111,-2.8415883600564213,0.22162520441469802,-0.25301723754604577,-2.950800478706368,-5.350353634828938,-1.7805324825598992,1.624290565182101,-1.649538394209019,-2.0986507986170837,1.02082082406364,-0.7142398503038927,-0.8655281398522714,2.5413517736011175,0.3270071352782895,-1.6398794304367925,2.572829958716244,3.2076521005915506,-0.5188577767924452,-1.7899067713131402,-2.875071916811997,-4.0589803725864115,-2.514551942813224,-0.7900650596593217,0.4303021946693417,2.7167910031908087,5.22735314571209,5.745052778814319,-0.9121060397380374,-13.295722462391815,-19.70443526596477,-20.501499195957127,-20.192548151332502,-1.777000160920772,33.85604218829182,45.793412634704325,25.141203158895017,5.933440935244615,-7.202061161525386,-24.88555958256851,-38.864709975298965,-49.58544156298649,-52.570223540292254,-46.37290405875832,-55.263969156292255,-62.593080289007254,-54.7160962578355,-81.29481279647979,-115.05627738586223,-77.81941687420846,114.21316335115495,608.3523952730704,1034.1554829701677,513.8927108708956,-630.0357823457899,-919.1085937519616,-294.9175473179742,-3.5976311584737033,-131.08083265158808,-39.52029834988549,77.21918641977805,-6.000210903308705,-7.190460946978906,62.60451103198152,31.393946858876824,7.784746732054632,33.356361426413294,24.246718182004873,7.812272504207231,6.377697860947411,-6.738534343319255,-14.023376404397814,-10.521433849986312,-14.769622037788235,-20.425161763486233,-23.79662859252162,-26.789523845343968,-21.542091835045646,-12.819762119044075,-12.339443940770657,-13.913731414406609,-2.449645639618023,19.708377716081174,34.168775429135025,41.456363995291326,58.355786212912676,76.53494864525813,80.52392046988494,82.15547688986814,85.61056536480278,72.42463558911886,41.72776431768845,8.200910242455976,-23.704132221690344,-47.738651490904424,-53.99981698441935,-50.45495776740704,-53.44816163893148,-60.001977967838286,-55.16288699721741,-40.23099322935628,-28.1996230582672,-19.428905005519113,-9.285662220443303,-4.0111581231021525,-5.28188564705734,-3.133681770244433,3.480572176941621,5.051038126736739,0.840153586313745,-1.2881402058643001,0.8137266404614945,3.481418652804196,4.321933345937779,1.7203430217862605,-3.2989856677509035,-5.525880242310168,-5.189005387255967,-5.926199446138572,-3.476250351298906,1.5650574833749396,-0.43002019529165914,-4.82594772935459,-2.385945780339095,-1.7068205928947293,-6.958861314040716,-9.835197170141305,-11.912628795677492,-13.863885073712346,-8.976479116140146,-4.369000879177607,-7.038681218177528,-8.331131373386983,-6.256058928827005,-4.644661785547615,-1.7884134302165897,-2.1300885726085896,-4.898651702060276,0.5260969642085485,5.703836103405322,-0.061613416039942415,-1.9506728557100579,4.808458524084214,5.958563364279826,4.001140117882237,5.296299648918778,2.4729769927911374,-3.1499668790952855,-3.9201784460072,-2.122712908933135,-3.208946368784158,-9.865161829340176,-15.642883022740712,-10.639673914242628,-4.233529959126049,-7.299547771343972,-7.51243187894332,-1.850697059203224,-5.052007675656949,-10.706051421845526,-4.652505339454555,1.2353741606103874,-4.263279831246078,-9.014809747619964,-5.4220767991526575,-2.4576170934987127,-2.6394080958270703,0.46956384455810607,3.707397642181046,1.2996728379602933,-0.9813222113333984,0.7100705042669437,2.9283018021929377,5.8201317389654985,4.414700455171862,-8.207306691115958,-17.468686715246726,-8.538951635509648,1.891649229072943,-2.9270516194187275,-10.241770639604445,-7.980468093143306,-5.249048276387899,-8.010596495969901,-6.6287420014900835,2.13371522634095,6.288191208119356,2.1157657662709184,-0.8470602464881578,-2.579564858869216,-7.7778919761738035,-9.536938112394056,-5.984468784283217,-5.226053593144508,-5.334802734722946,-3.248399362552899,-5.887695417810951,-11.306338082618161,-13.70436237349255,-17.262520939864526,-11.758998363944796,16.518149057945113,41.23016283871701,35.71527790131749,17.997490261677562,2.731593973477559,-12.992534028614797,-24.22725036300426,-36.39018649343657,-45.69726456324989,-40.87409587806739,-49.96706878804011,-66.65223532236782,-54.75005310769606,-64.32199334888486,-105.50690142411436,-88.71357303683016,67.02545443163729,499.66831084475723,982.70647395434,661.0365710375379,-460.11736974580185,-961.4357819530538,-410.3490421272131,-4.4335525285362465,-113.68072886111058,-67.80697792408367,85.69344156655914,23.123398417663466,-11.927244533107855,59.89502175230536,46.01512893184165,14.915321183428876,37.4732109715085,27.8541913615805,5.983633101987278,10.848869451338988,2.606288406324879,-11.31045131510622,-8.135400786268516,-7.794554623759222,-15.071715481972893,-18.375511298948933,-18.0648324022546,-21.517853608871448,-32.84959783468496,-37.60935720905993,-21.9140182226242,-0.7264237944704615,13.07644359623012,29.25348735642779,49.6178410370607,64.97225994723692,77.36890204546766,90.47845487013049,94.75492397264507,82.95252938309213,62.75716031682058,39.92379781412781,10.112032636071131,-21.97117854219587,-43.884000796704306,-56.19634710333259,-63.102366505384836,-60.67026926990616,-52.11066891000722,-45.07783326232662,-36.651020847159685,-24.51907815648213,-13.462110725411671,-5.162735712574696,-0.018488231973947222,2.0560415126376537,5.302421772438807,8.505688841860945,5.103896745780835,-2.2824514141267915,-5.273722965199783,-3.442353416737154,-3.0125827268886187,-6.15706652355866,-7.71686860798255,-5.47613177132426,-4.758312458783911,-4.997770815088067,0.601309197690485,7.283055883394628,4.640358353762143,-3.3547155519241647,-6.39031762448134,-4.423949329157173,-2.65943394918542,-3.4067639619715955,-5.5642160563385445,-4.824030327492924,-1.4238956716291806,-2.844329827454988,-8.239058901235978,-8.348490082066412,-5.058521603012382,-4.976718868121052,-3.6939528085383477,-0.30967569908506487,-2.7547220255806657,-6.217149486383713,0.20208604849564837,7.377145127714358,1.4894981062636852,-8.08789362564075,-6.680581820624288,0.2053262254788124,2.1890618522532757,2.2338375832762347,4.262755889432922,2.4879638405722826,-5.79856241645115,-11.564685369854987,-8.779361518952754,-3.2437715062047365,1.8462667551222829,6.112255374766952,1.0503623957999224,-9.883773444686767,-7.246754480815889,3.928019791557877,0.9542270420327643,-9.860406756085656,-10.81103257070506,-7.18058105239609,-5.855858865929591,-3.1554845674625955,-1.6765620478341923,-4.764134784540353,-6.709582357132465,-3.7225598786722927,-1.334720814728687,-5.664087716315864,-11.191368974007851,-8.161252185693744,-1.9779832343464268,-2.6291358712867456,-3.6336347237070186,0.34364678039252006,-2.5003569805405963,-14.623808227001891,-18.146953349956846,-7.553260120196494,0.7409526277311063,-0.4704214385965457,-2.6265057157735594,-3.0114737704471057,-4.041217073694357,-4.585172325543018,-4.652311756685337,-3.7183399139095226,-3.4654742971047963,-10.379469784479397,-18.058111979212175,-15.912173839709457,-10.933354506003377,-0.9366231187432894,23.78142745084137,39.42914810188942,27.012316166735964,8.007816624166164,-5.1961007527940435,-15.878809424667695,-25.40299791413052,-44.09800806532706,-58.594990210216125,-53.65465326373203,-54.48291068447999,-52.43577390469328,-39.06104849088733,-64.05986612122645,-92.15440013317588,-39.63780054598706,164.7739785180521,635.0076329365847,983.0956142980378,391.3958803642006,-736.5996158035599,-958.1283263557361,-304.9145112302697,-8.884622933621849,-109.57490225219357,-0.11505336055944326,105.28143214963855,14.579749111776266,15.01614789219374,75.34685612711593,32.071220046370996,11.163523358455086,43.603121067952195,28.1326342967179,3.5707178445455714,5.4095536648537275,-9.031588409415788,-26.296530980274543,-24.724900591038942,-26.170022900236184,-27.6315896137695,-19.727337642769733,-21.880440487145158,-30.92749656198866,-25.204857317486997,-13.153696598373358,-4.024459061540137,10.93546624213447,25.989150182013766,38.93156018318781,61.60365966740066,82.77410710185723,90.31660696836859,96.93431368574807,100.68623084278481,88.3393100332505,64.20215716680175,30.476889937202763,-10.3533135986361,-41.48728809282563,-58.79793759780233,-71.54363624914899,-77.63123342240154,-71.65754614930523,-54.91617802042989,-33.71001315581065,-22.37886514148657,-28.999836372358715,-35.64786006171054,-19.34159312969842,5.2587572053210785,4.382253458507396,-9.96406549068023,-4.366773705689496,2.9608838412293075,-10.567743791545894,-13.880744766706117,2.9729132764017567,3.966089827147565,-8.485358445651762,-5.555617845107028,1.1115948330130703,-2.697119521306689,-1.9971439543006824,1.9923073058235232,-3.057090729404143,-3.942141006849802,5.256340697360766,4.70723824324468,-4.391962179638812,-2.81064809879744,0.06491456535258777,-10.445765634579505,-18.170285522736606,-13.550425262685138,-13.416713140660846,-18.47701030710619,-13.121556135326044,-5.874247430326701,-9.646880331010465,-9.859121446932594,-1.656249699818229,-3.044727310188307,-6.462547041112137,3.961206977559895,5.9097727954447254,-9.755942705653249,-12.888227650114075,-4.436564623312401,-6.105378817286256,-2.6088363603578344,8.786069035365983,0.4876294402805783,-15.9245136340562,-14.545064401790084,-10.282649462643347,-13.152899043361288,-11.267152121269309,-9.249858939979454,-14.028037014287378,-17.437506351704425,-12.973007767848797,-3.9859276208419807,-6.592753524125051,-20.661352861164225,-9.207517604091318,30.1028612631771,45.26045038210697,25.990985371422433,3.283016037782958,-17.057152654094438,-30.585072462911498,-34.779180750243555,-43.80546287279705,-45.30250781506179,-38.24302300542309,-43.974201188851666,-38.41610087140171,-34.30108660194375,-68.0532133071734,-64.46331804444445,24.24321767014183,261.3165736990936,754.9066938714681,961.0833132158992,117.30182085461288,-994.3594199596524,-959.2458222670601,-235.78096554956892,-33.15419561491322,-109.5404469840078,51.51011487601109,122.44581910769634,29.364367684942543,54.17348656997811,93.03675836745558,40.717347273549436,28.826102425009587,41.03162067089603,14.851366809325192,-0.585072115124138,-7.450591789207909,-23.578042288951075,-23.87878618861172,-24.324651545379133,-36.60224149970619,-35.56024288616335,-27.709406221533143,-25.287000812620615,-17.9037472843455,-14.971182075902412,-20.633568702661563,-7.318634530939537,27.23093169855982,54.047393461165825,71.44073579161046,96.22039035380465,119.64642350881378,126.32825835973469,126.04246755433229,125.47691100852487,100.05581219090855,37.551593245156624,-25.61157712337271,-58.48386389972623,-77.26015982199324,-95.90909510905405,-99.65385825490604,-85.55141603044459,-69.41034484324092,-56.442615951072185,-42.0487066553208,-26.859708595899384,-16.268751567568046,-11.910853694083421,-8.36850419035224,-3.7006656822499444,-4.2821329236129415,-9.444752029166981,-7.810503906248124,3.1205573193938125,10.360921124792757,5.518747120734284,-1.64742215765998,-1.0864749717761981,1.3558508388185189,1.0867522023745622,3.804630572769788,6.3884048030135965,0.9190670483742558,-5.188759947485566,-2.5762993686838405,3.8274719073987664,7.322465716571609,6.671301235517388,1.5848293297376186,-5.109524761394397,-8.594696842082914,-8.041230879956899,-6.672333959818081,-6.970030709949861,-6.34233881296916,-2.519833396958872,-0.7925641655138698,-4.959207521152449,-9.655569630472213,-8.789474931369554,-2.7435159691202244,0.0663799036126651,-7.730424944135056,-16.18422509114125,-11.376966657685468,0.5502077755319732,7.415350111744578,6.308527833787909,-2.558062747348602,-9.67068549352085,-3.8543811515615043,4.083809470790323,1.5464379872313607,-2.729292547940741,-3.213965311109858,-4.296014419704556,-3.2429417825532463,-0.7546809968822092,-2.3388974482771587,-6.594659346233879,-15.881263626179596,-23.640919378000778,-5.558763948630064,27.913767995506955,36.10105253746416,19.18909577314561,-1.247243901530883,-20.65003434670693,-29.869568001224984,-33.83725154008134,-43.73430571694047,-44.319396934368385,-47.245626348207,-60.445434373342835,-46.77488420728113,-40.64956587651871,-74.63675755483338,-65.11059052982526,51.34954090830027,393.1702262719306,914.1338304320539,840.6631778259801,-235.89416790773595,-1070.723725595055,-686.8226070158024,-72.74401942111955,-62.55812422159926,-84.79161138735815,89.73063824163796,74.77073186701175,-1.5936622612108895,62.27557896018741,77.55869365775413,30.748639502833985,41.13109368144325,40.533136989809705,8.077117408352906,7.4270838962638726,9.565207355929061,-9.166988346254783,-15.906338731134417,-15.230332922342832,-25.99068283562371,-35.14206145865803,-32.79624682582617,-28.497784686647954,-26.320720683477813,-18.81748431769918,-6.53673389741814,3.976319664620082,19.35666920949187,45.28112296665462,67.81591078515743,78.29662332747021,89.94148876375766,107.98961303786044,116.15389523687843,103.24873260153362,72.22541385935646,30.582099739258886,-7.306749178757925,-32.731353375180966,-53.850266763740585,-69.5706134153962,-69.34456852728592,-64.49556315749713,-65.30186570656315,-54.76060886994226,-29.97816732193772,-14.967533940089066,-13.90237530060176,-9.719196107862693,-1.0544630919383629,3.8183126618181404,7.287827276630334,9.301178636915802,2.37768007603292,-7.291063436650571,-6.639450693525172,-0.3502665132144802,3.565404799407472,7.063526146426296,2.9332964860949904,-13.109355566098152,-21.197997064194432,-12.316284771308602,-6.03005019684711,-10.116271080557853,-12.478378036758174,-10.002761411871095,-6.6171993858417295,-2.3609911665483096,-0.40180263838391994,-3.070123061463571,-5.064251972064843,-4.886502788467455,-6.625674147236339,-7.438660099367887,-4.3400711258833695,-3.7533613031578223,-6.950736500655061,-6.540473905600566,-2.600268950783285,0.41675014569040414,2.68470294794277,2.423004339002661,-1.7898710026253681,-5.699008080758713,-7.258389545719993,-6.958373995228175,-5.109082759259207,-5.774640713183849,-8.306905599459657,-5.068413027413573,1.4121035207998185,2.336577040877815,-1.3058115458908581,-6.383968576062021,-10.908017769274364,-8.99394766839283,-3.488836307052787,-2.780579913332865,-2.2208176637147794,1.7913143542048608,0.8020091262092608,-4.368555811990529,-5.611345040950977,-5.820791094185598,-6.820274897981798,-2.710381920781675,2.3319796755072995,-1.1747496835873532,-6.374522385901364,-1.8937901248792133,3.0224226578154667,-3.167204789248877,-8.014488131551175,-1.4209775703654848,2.9706755510305825,-1.929368597873848,-4.739424460092778,0.32046691245376024,6.777399148033891,7.542831308625984,6.518511912719255,10.892811657590183,9.641405036027235,-5.052335543664041,-14.0828275173524,-11.613749101065771,-13.551350718244866,-15.13936305067374,-8.761577230326134,-6.261351033069451,-6.563664844612294,-2.222187030126074,-1.2605310160487626,-3.523699058907341,-1.9343072619658868,-0.6465473343517045,-1.0965387500712556,-1.4192092070640774,-2.9024469353860605,-1.8788751795422112,0.7412889552060489,-0.05582765527113409,0.1388536500916251,0.3828103871172637,-4.392830114442072,-5.5922654680833235,-1.6000834586464059,-5.012042124941971,-14.409079393258692,-13.235950095046167,6.7599833651912125,29.68530895648357,32.0077689992141,17.94378811564694,4.0911084722612205,-9.734943148407046,-26.074122567567137,-43.765136712226806,-54.27428778257108,-51.41833446272038,-56.40507039522356,-64.01214427899534,-52.60075710103455,-67.51529605450222,-108.19775199287201,-90.12011061507144,63.0454337074257,494.52312752173503,990.6031918309038,691.5016258943397,-433.63642212340665,-966.7660894950014,-425.27584645680435,-2.925612865286503,-112.164410077397,-79.6768811852768,75.03579802606768,23.867558530882448,-4.702649835956809,64.07261046759054,42.065091182673314,8.737362631196643,35.10231982533901,27.286373036213917,5.442232876163489,9.166392479688135,-0.1838434240850093,-10.140290557460176,-5.531225300322243,-13.291548405962498,-23.836948715001036,-20.597398217919938,-18.67623459371639,-20.88852168794234,-18.849867642561406,-14.0149348416304,-4.057298764389525,11.041569385886485,18.68250246883003,18.904077382812602,30.154035132598807,53.30239828080926,68.71557642803765,71.46002981970082,71.82685667208516,73.08836251708519,68.81911733190773,49.08347496403188,16.01323927917308,-11.71617682635656,-29.181525236621628,-47.80714412363311,-60.200637960176586,-52.78419418328234,-40.96578173367395,-43.24301791798089,-46.826537594288205,-35.2648815543246,-18.04540480755834,-8.191470874924518,-4.075728112060233,-3.537151171715049,-4.794177753506222,-3.0001461962949474,-2.048984904618983,-4.146975100773281,-0.49842646224715814,4.497010253242822,-1.5349502078485493,-9.766892095060792,-7.237638973620793,1.1052155630495282,4.770991531544597,-2.1157311870508586,-11.967545654080888,-8.642436801736386,1.477136296028223,0.7153707971142822,-3.4010829150734168,-1.5877153033700147,-3.823983448749585,-8.909050536730545,-6.231290737798979,-0.7307259907956469,0.31906025582799913,-2.8346951525943993,-8.315378327131834,-8.440370192258857,-1.192849533787144,1.7327904658135171,-1.9427477954526875,-3.4220505930080822,-3.7573907065227647,-7.0770259750654105,-9.679493843370746,-7.787021443692812,-2.722658759770442,-1.7897487037610205,-8.585318846820783,-11.20496202628243,-2.8624067818724788,2.3553138254852435,-1.2454874261362336,-1.6716157730695897,0.9230682144348856,-1.8590559791058876,-3.7908560309303274,-0.009168432192594445,1.6242834938997808,0.6008805500733194,1.4492496174148979,0.19950999463988595,-0.9796239933379081,4.420755818560969,6.293673603297627,-3.1650866860704614,-10.305823437766623,-7.069864812162188,-2.1542923826991514,-0.3572746384777279,-1.0771194019712391,-5.398444466711256,-10.673556540262854,-10.898290980822335,-5.047784783556006,-0.08694047934475613,-2.2529842889193805,-8.162147371677758,-11.332459799002365,-8.39748968336595,0.011946168901181053,3.789671914336189,-2.671845236737263,-5.813591862987609,