ECG,-3.719362151800957,2.1141534831558086,3.4921357276359797,2.406822900418648,5.128642030753821,6.276410524440989,-4.341808920762901,-12.613895233935276,-0.8066603667341923,8.050775694519539,-11.636406322086035,-33.79841894427558,-29.167007372558427,-7.7258362247204575,22.063137800840728,50.21732843503684,46.63418760916752,16.856459478637706,-5.333386425372366,-19.725606894005338,-32.250635031295715,-42.28648119193985,-58.85389383082335,-67.16497584908214,-61.91178002832907,-59.17537994122903,-43.73041749735748,-41.866309987197006,-84.13493072269966,-88.70999880821867,9.640662004181479,327.64034798253863,909.2393412420156,1014.5116089077783,-31.282164476187802,-1102.4969529176085,-855.1881909543833,-118.56506859902132,-39.27652704620239,-117.73605119701472,71.80668242654582,100.29188658914214,2.153394397434326,51.64942415573985,75.77352865792957,27.494468476113198,44.62351542197033,48.23644019729125,8.513761860305713,13.586639767916218,21.318720415401362,-2.642550414496875,-7.2041796066812545,-4.656298292155343,-18.428683784795187,-24.342806568436878,-26.691414689952396,-37.19372461291343,-37.338478588021076,-25.629686094002334,-17.862967842385803,-14.171472743221933,-8.743465935117518,3.805770178403314,27.23204281666948,50.49729668795423,65.03460682971038,82.1312177856519,104.9680750798752,118.86365960295888,117.88231579004429,103.77549806255035,73.11636250769448,29.585160966992817,-11.720312849920894,-39.817946660855746,-56.72550348592813,-67.36472515142455,-67.14255470162833,-57.06334929618136,-52.27490790674597,-50.17664149923669,-35.91404986968698,-24.144121566621198,-27.78386472528395,-23.688314924299814,-7.586146413862224,-5.561699777137928,-13.213547013192098,-9.524629212567351,-2.6887072997389083,-2.4622148963022834,-0.7621015671158524,1.4833232443892008,-1.0674718201229574,-0.141883893569414,6.433858398472415,5.588548261862042,-3.087475531704545,-4.208712875348627,2.2920946807276903,3.8521472133807375,2.1967038799166554,2.221595237862137,-1.5494192649121352,-5.859869586202193,-3.83363667376395,-4.446226484012126,-10.77722370763148,-9.935991603355745,-3.087898538944275,-2.8194901254844282,-6.193760497284126,-6.1210601615166365,-6.6189563409471885,-8.011824668909233,-3.9540235714000875,2.6237699204403127,1.5602957744938664,-6.710409898336163,-8.974186477748823,-1.1570404374199414,1.3762989803787624,-7.368213946014459,-9.934946263653341,-2.127140819157474,-1.764106592181447,-7.853266789326357,-3.9263278073288315,4.16594263255913,2.0165091623179903,-3.7000677991231306,-1.2610253512143537,3.1499068164087234,-1.9122156006163644,-9.98772773763319,-7.4489758676731395,-0.6303093939098865,-2.1038033036038746,-4.98880252397533,-1.480200211980665,1.6063674013887317,1.595672797391945,2.5038781262855383,2.3647931724023397,-0.45450347071167174,-0.7813815067999381,3.2909931989370627,3.889328047896057,-3.548225204609162,-9.118997281145033,-6.326662018574686,-3.397162865719025,-1.3438924888047818,5.678126984056968,7.13646279210448,-5.030995662827575,-14.400640186608097,-9.461361324805619,-1.0517623381087482,1.0101150271053179,-2.096245135745928,-4.867379939694764,-3.2979147604808343,-2.4320400711565506,-4.967783604904263,-2.9125519300262557,-1.136095827691653,-8.71984637017832,-9.305468618050618,2.0292816296384,0.46673112724683286,-10.231929174962932,-6.810009172531821,-1.689575448019406,-7.759310944286328,-12.187466688376771,-14.643099233249679,-17.59672163086689,-11.891611196696777,-0.0919929412635021,17.503406066322775,39.1686543979336,38.87586960473171,15.836070412881933,-0.2646984485784243,-12.031371905509756,-29.035516067712685,-40.4840455680459,-45.8984587705816,-45.087303463459946,-49.24210821044664,-67.9955807471816,-63.953449525762935,-53.18180848899976,-91.21867499626626,-114.18863060117677,-38.74803992426959,251.85312204296375,833.8338252968765,1059.3182219678047,165.85664657813396,-948.0083865091269,-863.2725268619845,-156.73604293791269,-31.806364240451444,-137.98577531384728,35.263292020668786,96.85701641642143,-7.4051043142878115,29.55471486992164,78.8909189776452,32.099936285067656,34.31365940910046,51.49414540188191,10.699500541826458,-10.701128637489514,0.588338333048716,0.41084556344711975,-3.708134599456436,-9.550986572110059,-18.174931467034153,-19.349342513715335,-24.705837915295284,-30.995580541929783,-19.140333724292773,-10.41848433349528,-23.85302469838669,-29.978037985833907,-14.757640093197804,-1.255161472296841,8.785521286165547,28.6397158447313,47.49658202778001,57.96662332151283,75.482619753113,100.59208118447525,110.30696020336822,97.34917844385569,77.67439918232255,54.53635896498673,16.637975925408803,-23.53127962391204,-42.585773144514576,-50.86428793591026,-64.54921749133236,-69.01012817233905,-58.33418601483615,-48.900748847188645,-40.46383948735889,-27.67312352000137,-19.957513285153933,-14.71960176772209,-4.040445321594145,0.8443560363632798,-4.09313952116802,-5.151318014529393,-1.334615708554118,-1.950877447057426,-4.226081074074315,-0.6782081264261333,5.624390127982133,5.651481668417922,-0.10844598065661692,-2.8023348963087145,-3.5175000125593723,-8.140759181047518,-9.122626774533295,-0.9694397717564858,4.4641519879952805,0.3332807439068901,-3.821986013958597,-1.4595687588570083,2.8214902303285836,2.1367114448055045,-5.827399508261536,-14.01416506329318,-11.225374302922694,0.425141835233787,4.744776357870148,-4.784379559975635,-14.890780580863785,-13.565519165221055,-6.5315373199985025,-3.6497384631075196,-4.065522244550012,-4.931347614286166,-7.779774587632579,-9.460830070642285,-5.232618442271168,0.47735859394541436,1.1898616087298528,-2.195653020360096,-4.48526624308222,-2.291056327851284,0.6084472535983831,-0.397721948335616,0.15775909187318415,5.0354617837026785,5.899724669423468,3.4919296607242556,5.196133977770649,3.8275103178766416,-6.028256349711908,-12.941039935554958,-11.992839761347689,-9.245243498917043,-4.41525145380769,0.6736496935103018,-1.3658386806334857,-5.711154010493127,-4.65037522862837,-3.7614720183699983,-5.311624288180718,-4.547204692585867,-5.9362075498327025,-10.7070715045672,-8.112586005302559,0.930389300184455,3.950861019722838,0.7488131756722121,-1.4942435834723948,-3.0969900944018702,-5.078841399962082,-3.411335890599548,0.34987080410996807,-2.1818167254706387,-6.912241445813317,-0.38555240375201416,9.288444965340151,4.230343867665083,-5.120364703134136,-1.3109215967397323,6.367427525539412,5.974710409947948,1.638739341803193,-3.962305997999417,-10.110388404089559,-10.319971029374697,-5.460637686920888,-6.025460983583779,-13.029465120516301,-16.930302183274883,-13.880427134062105,-2.2792395751626486,18.845850729762404,33.09542920730038,26.25612221965511,10.374718895430727,-7.362854745214019,-26.72934453376365,-35.583780605542024,-41.714807338740286,-50.97646986941817,-46.78398364965949,-52.465936109254514,-71.50189266701642,-56.50829594873187,-51.265445669544825,-92.28473665128679,-91.0856039173088,30.549937108607395,428.0205452687816,1011.6677886272477,884.3499397349949,-306.6766827872253,-1122.9673501237419,-635.8859593001632,-22.58416289863129,-72.49201681307659,-93.96546660383491,95.96284548050428,70.22542636021345,-7.0717536696335745,55.992864209757,58.288519932155396,9.735217675799852,25.454970388583448,29.5720309344032,6.177922054445049,4.282747472851673,-1.467160952435239,-12.517925203366394,-9.45843890164776,-10.700358303878907,-18.784633671350047,-21.67697246813797,-23.433994235412623,-25.18409490672034,-23.04304664205195,-17.91870840889505,-15.179320102064239,-16.651946188294,-10.73381309007033,7.550015787624851,25.876623577706063,42.812040781510376,64.3729656464939,82.49665340623278,93.5918928996258,103.07585984305382,104.7288239028931,92.74885288005814,71.65663750052214,38.69863673678627,-5.00503612501905,-37.761770498341114,-50.27863589894913,-60.48576590234152,-71.2068458545618,-67.18185605581886,-55.51210843767569,-48.789426068941985,-38.275784149686274,-26.47092480803826,-26.413176611135434,-24.45867444632149,-8.930479170420895,1.364984614639802,-2.5651817308930003,-5.567544251236843,0.273451485708879,7.028265142547083,3.264745541134591,-8.989503299353208,-12.090972785970022,-3.40485678270516,-0.33322108927631255,-3.516748854225302,1.7929434369584385,11.194168634019347,8.75604669500716,-3.0336973360594435,-9.850138648947901,-7.175248493289239,2.0259491750240706,10.903469601166183,6.318377699711319,-8.61947341192074,-9.739071636100537,2.3764904016824637,1.2671336792703336,-10.968710840944118,-13.930065144442677,-12.786415106989582,-16.472287644562773,-16.118181489941456,-10.159784802809845,-7.266554661255443,-9.060258672716559,-12.369043491901182,-12.025499141784167,-3.7296780104232763,4.780467778534678,1.4344301825550598,-9.525045988190218,-12.307986940948613,-3.5780743205751255,4.2911899094076205,3.2985877234350323,-2.3052303324340375,-5.89336756945349,-5.096987595926592,-3.7617279118791016,-5.0122870414557985,-2.0900771072639133,5.561139464843792,3.9889567879949688,-6.044855985633625,-7.846059837283075,-0.6017645973953591,5.731150590920459,5.331035919236556,-5.299630432622719,-13.28971551668888,-4.043254759629761,3.175530035576676,-7.518975556109254,-14.13881387976652,-8.105108474801535,-6.235242214901451,-4.51673430156275,5.376248781871652,8.55163353263991,-1.2423412451535665,-10.293929207008453,-9.584016682076875,-1.5240437835080733,4.312062477034726,0.9522361427164032,-5.915321227122984,-9.391940266561386,-9.174031169753462,-4.4935176567784545,-0.07063290945758283,-4.764560792011007,-12.572569524543665,-12.36340373548554,-11.188286759815059,-16.65305837191806,-18.531792910326175,-12.961830354247688,-5.2720923457625375,13.837927004312137,40.25388708033249,42.23992706449474,19.798126426966697,1.178737764833519,-14.080621990127044,-31.356139151200736,-43.45878402668765,-50.502002053875444,-47.31628795410069,-47.5690781486245,-63.02322342123054,-52.772370974943605,-38.306030750221254,-77.23866969256946,-93.42994315302491,-14.796587983858018,250.94692644143092,808.8179394067821,1044.928993021052,152.78190893764594,-997.5584677933364,-922.9726622395132,-173.70926461391133,-18.617560423672728,-132.21309514952264,36.23624128066481,105.70467164071974,4.27816280757175,38.035627559201615,81.66506658804587,28.673034917192606,28.64949822876471,48.20355211461143,17.913221777909072,10.934412652295604,18.70176759275565,-0.6362775800037896,-9.030155477057171,-8.515317178397385,-26.064777718034424,-35.33171925172954,-28.11958061585277,-28.047088326465392,-30.141642609820295,-25.014272876579675,-23.102593835471332,-22.26270655788157,-11.738997029439615,4.508883084777462,21.735768077346382,41.83320747119147,61.040390319862,74.35395764507138,84.03804514559566,94.27307086415368,103.48666271564771,102.1511301438899,81.84539716764021,47.12735735997519,11.053114128501461,-18.85410323580691,-44.47010922647458,-65.04477330362654,-70.90075301476968,-63.49228965178387,-58.790332454232995,-54.62425994356488,-38.46041345278283,-23.757267850118605,-22.411351888678368,-17.299293073633805,-4.64745734090746,-2.0146962348046813,-5.83673666104611,-2.9399712816557955,0.1054078051528009,-2.185162701724094,-1.7620288593262519,2.275373865765218,2.491781558817797,0.6675096093815727,2.5636435409974405,3.2366317245790888,1.280055029023302,6.333914762088786,11.348137844801517,1.8823864556840775,-7.9741707150077445,-5.8671657871930325,-6.042230861899302,-8.845948307792634,-5.61476672252613,-6.41341785821243,-8.024249988467151,-0.6214261868694422,-2.1032015579526924,-14.588897949901446,-13.43637484007105,-4.450321391455324,-5.677873927861105,-7.682009923892581,-3.9116442923187282,-0.672130261602712,-0.416757729438368,-6.837828066321565,-12.930967336596694,-4.800899183911664,3.8170040619397785,-4.355044001216587,-11.780108828031945,-3.7945933013313287,2.954161811819219,-2.5769392649843805,-8.683729943480339,-7.944009653385951,-5.6616822456485805,-2.201481185959545,3.844516456751042,3.3366192356934,-3.198473310813407,-0.47970958020384646,5.646565020196092,-1.6504293016614602,-9.718515120562913,-4.196789934694604,1.8027646967479978,1.9116223995151755,2.6361887735009084,0.010621110311426207,-4.9656407271918805,-4.245917124828427,-4.052570215038047,-7.436848433854381,-5.830331029609189,-4.310741524805463,-7.513813691637436,-2.1410227153161703,8.27484094090943,3.8239682697729287,-6.8800450426537,-4.151409111704003,3.465479030206839,4.999259756100158,6.115529722028392,4.192613215029475,-4.324153935542613,-5.702877961121633,2.793322422686863,4.325154073301917,-1.5767131339961877,-1.5211319299596164,1.6134684600881988,1.7860486433246736,4.674942177163293,5.273347937747534,-8.850030041708557,-27.62891069318229,-33.31096696549557,-26.584075324681592,-8.222444507633051,21.043898189701537,37.54982531477195,28.137634386503244,11.19437019690876,-7.061071318014578,-25.743706491366538,-30.64537558543028,-34.05898703709309,-46.25730737698829,-50.68051878704063,-59.06089197356236,-66.08560644399358,-49.36992796485181,-62.133597731874744,-103.85541526900738,-82.82239943997708,68.02085954807308,506.30399966954127,1042.5213909013232,745.9106061985448,-483.4128290224837,-1108.416271574346,-516.3316373883237,2.42842914570247,-88.95533279701337,-69.15091223636608,92.39125489996789,35.07233706986884,-3.280667213917358,77.44331373900171,60.42742749371175,16.549642704222737,42.119845582876906,37.639076749551265,11.481577850210574,14.655516258642722,6.406466779297479,-12.419953112178726,-14.880885574588678,-15.430102158200526,-18.347172175731465,-18.954638090547025,-21.987878951092203,-25.236800556984527,-27.44799567431904,-27.95966708577857,-23.216898183871173,-13.714839526559567,3.740564543130784,23.108814466570983,27.125562002962162,30.72534408208548,60.34573994228186,92.72867588305682,97.4867475319268,92.6752039260867,96.36341470613445,92.6927676328313,69.65245497974112,34.664147983566636,-1.7243451108643963,-32.94927145227753,-56.95883751734073,-70.26479162423834,-67.90766637138387,-56.47089722976199,-49.38411938596492,-48.721303575882914,-44.72010281905042,-28.582070772584977,-6.396269985043968,3.4043935155983327,-1.488897570181809,-1.4682613032772256,8.984687059277066,11.939627248534057,0.5763338396902036,-10.760920291978554,-12.243288640876717,-8.331758702242212,-7.388197510302577,-12.687492538874729,-13.930728999213432,-0.510680117457996,10.39984427667292,-0.03164139771612895,-11.099535355658695,-3.856597269937059,2.621039370509134,-1.2643454799675382,-4.21125704474407,-9.236061912157908,-13.730096770872088,-3.892337797448243,6.34927667391325,0.4176659028581433,-7.422679392644497,-9.536522578070883,-12.916827194924688,-12.255122200471309,-6.821100372469289,-5.28197425690243,-4.864206354353422,-4.489786202350636,-7.6750002715873205,-5.965087928626877,0.11687201330129682,-4.464646762815679,-13.065362967513341,-7.29588643885606,3.1689544860807537,0.5153477616960771,-5.748811369120013,-3.673296847758138,-4.655184323221373,-11.43277807719801,-7.033615632229436,3.457635268332842,1.1391424792232971,-2.96328329874639,1.9833185701164648,-3.017692470234021,-16.364370829022125,-10.65591069194808,5.626413133422318,5.0478464889236445,-2.306006646143091,-0.7686394756432531,-3.7831334927579725,-11.194620626166959,-4.736858846183543,2.867539845625446,-7.856929349375397,-16.137509534435562,-4.480624732230577,5.840032674866512,1.8035271338163072,-3.433486869991821,-5.068504574976286,-6.027397216731865,-3.3620731504061023,-2.755038127772348,-11.767399946293525,-20.22315122277824,-16.26736941760236,2.5368301052898463,33.14014031582285,52.291410016246004,37.67846258035463,6.187835473846853,-18.666499873640642,-33.176224613386495,-39.05718385055374,-49.25951259400057,-59.83069879337473,-53.09108974631786,-55.552203260505536,-67.6099932564291,-52.38871147590997,-52.45761869309716,-77.9478601192834,-47.17473388969958,115.6336814320598,560.1129174726822,1049.0974325892907,655.1881907921413,-615.2752467494178,-1181.9401924614249,-538.1125619463613,-25.63957394796492,-104.3630864643779,-38.38447749206042,137.3681810894897,60.408785706405055,8.366935060050146,86.39039275240233,67.79958180334715,17.33498496028867,32.891754577523315,26.692905253927382,4.54188949767376,6.804212888868741,0.8109084195804082,-7.259088783599098,-4.048679681557243,-9.728764877154983,-20.759556035828478,-27.980400332342384,-32.247849415210865,-28.406078210691053,-23.746150075476695,-24.115701608608255,-19.78353776715596,-12.972603514094612,-5.23023949275661,16.77214979522968,46.9789153726059,66.30493920886154,79.09091302542542,97.96290150961586,117.94449616894151,126.1805695535024,117.62598573403933,93.39948989627129,53.23925110355277,4.082907609145964,-37.1215304210265,-66.05017651685696,-86.05525476198879,-86.97213141587468,-71.87875291436882,-64.74143259315385,-65.56318232669136,-56.59043103616649,-40.29085855810311,-25.45475518600734,-12.42380226730356,-3.120594111643886,-0.6602674330778306,-8.297356749397416,-18.222635335865547,-11.146259041380004,2.2884972531199885,-3.4713822323890433,-8.793310348152243,3.869636496954188,3.478499322357905,-10.568679939881784,-2.943690070677242,10.651660367630098,2.49524085024143,-4.044000902125302,3.60031843745728,5.491672077690101,2.463575045040889,1.4286093065893226,-7.426410565094027,-16.67192011841442,-10.284227179238199,-0.7815543473942128,-3.337347999554824,-7.048937389361718,-5.502483581464125,-9.963265834367562,-16.926493637152106,-11.801049486765894,-2.4846177721328235,-2.8941216472034252,-5.117647766472589,-2.1663720339672725,-1.4734168922144573,-2.263990769095358,2.3246007570071168,6.297382705674502,0.2207170377218759,-11.969113835021748,-17.124917195166322,-10.01902854254265,-1.3158937810122397,-2.452737009405004,-9.647643938764293,-11.44705997271645,-4.677137134106592,0.9103188531157826,-6.513281974968731,-23.052770464222192,-26.22042684157259,2.1475283467099535,43.122749190724704,52.85577109917323,29.13217887057853,9.01676888742249,-5.548441128197913,-25.01259813249311,-31.640055601049376,-35.884641560941354,-52.26836179593353,-57.075363494315255,-60.68380473609405,-67.13207673610997,-44.78785217948308,-42.19464423030499,-73.88776256206786,-45.44467975025038,94.52373013578651,481.3100198732402,1011.3030295236346,798.1616819615488,-435.75787139619644,-1214.038362187191,-679.3152695581426,-49.18859434192474,-72.37594116154607,-59.5181072027315,135.34647558384958,98.43223161213658,16.14974790051658,73.0704296958387,69.78686461331887,27.166244004854263,47.896929205658964,40.08453677093682,5.206365484321834,10.959101463636355,11.024725821187197,-10.30631180003784,-12.66373691355836,-11.572170935745467,-24.036817412673216,-29.337997533805417,-26.593340467931554,-28.38297783260176,-29.348483037735832,-25.128104569328734,-20.187052816960556,-11.502199603106165,5.522250011251753,25.844486514682345,45.09677687604514,66.45104716324128,90.69581468033604,109.68067893386154,116.82606085531887,117.75603821792632,113.9205378587471,88.58706160275938,36.32271930863263,-17.578223674842086,-52.35316313498492,-73.65207339182813,-86.96592205215993,-85.87206847377446,-72.75284921252549,-59.01153453671143,-45.15196594907361,-29.103473915756794,-20.8725954972028,-20.583619464821506,-13.20157611719344,-3.7824770714842195,-8.022055384112171,-12.962354229539539,-5.390229864911511,-2.9991462650531737,-9.941034237534875,-4.561774802337519,7.215352173840649,1.244784498591386,-10.459151497671076,-3.4089507566744057,11.465783514518378,13.645638399747625,8.10316190586829,5.4636813457651705,2.2358282509674208,-4.026554843403202,-5.751195973307094,-1.5869639994840767,-1.7132040609358246,-7.4367059278105465,-8.137585991637929,-5.087550413495819,-6.618759297503377,-5.00072273226049,2.796493782845328,-0.9624643713953276,-14.82756137000796,-15.51948164286646,-8.818859273257107,-13.449409628755795,-15.854104007567804,-5.19643565621789,0.5583671478711327,-2.597657422647961,-1.398482184256686,0.8761092837933955,-2.692000150498103,-5.702480101475851,-4.395297701780574,-2.8618639822935474,-3.6914455100238737,-3.780716697378087,1.5996041613395224,7.958754132472357,5.77407460233267,-2.8393662710599363,-7.613375817926231,-5.600850751838017,-3.7751024693434356,-7.066230173878839,-8.096311121474264,-2.9669433831197214,-2.9050768262769724,-7.262233337607098,-1.5985921381146984,7.0597437923409165,3.7692126620523307,-3.0809126648681993,-3.1975351641542105,-0.9489959502958003,-0.8891262076875295,-3.0179894352278405,-1.87570303733832,5.141162424469775,6.248574148011254,-2.0268865092457977,-6.068810644519007,-3.8969531925292182,-1.4264712824921606,0.5221702230320142,-5.157867025280391,-13.727464663897187,-6.885540647293229,3.8553667254421495,-0.7095537393110614,-3.308517234902732,5.958214411097589,7.116496071814503,-3.9475533213626353,-16.110661324033433,-24.644746235390823,-24.14251041306335,-17.186122985733316,-4.784232060142799,25.525861489750273,53.25781088836541,40.68112965580529,9.253841214386114,-4.489869020674094,-13.30074257225119,-30.650227161518195,-44.66107282525389,-44.96784821663873,-40.711104300194975,-50.529015429642804,-53.27122764961753,-43.42081630938554,-79.8079820899316,-127.55421642933341,-91.76690859466171,81.81235047946416,554.6167168654385,1080.5683281686697,698.5953067599121,-555.1785272355601,-1079.124721501938,-433.79348306268236,14.761471259342834,-120.32859848839227,-70.257635129709,98.45068616762468,19.68161800727721,-17.082580188197134,73.19897924570677,52.998610244541865,9.332382190462017,41.669143936217836,35.88382102057703,2.8766163964126603,7.754870216169397,6.798405414991343,-8.586429825533065,-7.596695075711271,-5.1922049925607325,-12.503987825080806,-17.89011090747264,-18.94514303134771,-19.00050417152975,-20.0688777310434,-20.10072772047156,-16.68589212006632,-15.304982673465414,-13.205688137059003,3.2851330942948103,29.10665511093627,46.29699525309562,57.364675109581526,73.89976954378153,89.18309983684814,93.48231577350751,92.86878191796359,88.15765642398331,62.8602976980615,15.957241904079664,-25.646219211236335,-46.40685447508101,-56.06890325870721,-62.57097038674132,-67.97776824953407,-72.1869744936436,-64.6786269243263,-43.113143322960795,-23.309231766624606,-12.079631621157858,-6.558411293823852,-7.501990578843026,-6.714550162070649,1.5654446339368597,4.216849629056814,-2.7075805632590964,-6.92351857743677,-6.677762847514622,-5.002598778401225,0.9335216891552047,5.5366524291155885,0.7899798131071485,-5.389294146676017,-2.0804952147751443,4.434684079158626,4.359041403313347,4.020527719264166,8.226279472059808,5.141408281628442,-8.168569830909195,-17.62423086977379,-17.885592848804116,-13.554501663429761,-9.229511651044042,-12.082097100902978,-17.62232789837693,-11.101492565538035,0.9245311313935947,2.2033762868753133,-3.297024164485938,-9.91022808162373,-16.74576321278299,-12.262640474686892,-0.015323609170048158,-1.3811220756419438,-9.434813282260624,-3.202266447481497,6.625618028574598,4.123436273661303,-0.5632482794233526,0.42159833207599107,-1.6048411584994824,-6.813851719456233,-5.411286331358986,-1.054046888006675,-2.99565191340377,-4.307196952063878,-0.23652153768133655,-2.26049354928551,-8.584006349381019,-4.841060012460091,1.502135709960636,-3.127965680938132,-9.679654091529148,-8.328849571111125,-4.104012139439412,-0.8563393196980655,0.880435050228412,-0.7747719192559703,-3.5683514114311965,-4.645609916207132,-5.827227661517892,-6.8684482336820825,-3.3862375601471975,4.288392720593727,7.3475561052279215,0.30085437324388664,-7.343840593417062,-5.191711742818091,-0.18151202336322836,-1.8048104667848346,-5.85089990450165,-7.744823342198417,-8.391146959807337,-3.9957550026448194,5.582491356515453,7.659114917362627,-2.330698127705574,-7.677489077821192,0.4924192586009284,6.377512452471976,3.0578762592340962,2.5755919863233294,1.1711064712943102,-9.944864241206975,-13.689086456816433,-2.559206279125567,1.708627982578383,-3.6929600051515634,-0.5468861786399208,6.133142865939425,3.1438557048771294,1.1865166638975533,7.739188615159503,4.4535648616769885,-14.58611285040692,-21.39749598510514,-5.119881622353226,4.775718975595732,-4.2962393273272586,-14.595792215582692,-21.856319628440552,-18.558471763163077,11.411138741065486,37.291862866632584,27.025353721335257,13.3367836199028,8.768114885396805,-15.397411610848271,-39.37272192009948,-41.26245903261762,-42.87270086787739,-48.29364957311793,-59.54764759794742,-68.95579647613611,-53.13338269791292,-64.62586445883244,-115.39474792288986,-99.95661983540053,47.23667827454773,460.52139312097904,1034.2061223730125,874.7303345566605,-323.83806715107374,-1098.9205886364573,-591.8678206673474,-24.181754425542834,-110.30681278712939,-117.25586573079293,77.8223113639383,37.832752723466925,-24.24917152484883,68.31631797141603,75.0687679906402,20.87401345163181,35.24184311367427,29.017883562589738,-4.375517814315659,0.7792001198107759,2.6210191903508724,-12.161236983029102,-9.395290443390955,-8.057139057832995,-19.4692680933964,-19.607819076986566,-14.623327028346067,-23.850277423397436,-32.37794116472055,-25.058476306248274,-17.99853303081968,-18.302078696771602,-9.708420010951603,7.3448379434809254,21.11248100342697,37.820104156175404,59.98142893483421,74.87724071804193,83.25441070156938,96.5662955673597,110.89729038623179,111.56998108035545,88.16639199493483,42.30951056452207,-6.627284983456869,-40.989316553081,-64.51622637382405,-79.61037400049466,-78.59620186237163,-69.44649781815292,-61.94375302113855,-47.03909763160376,-28.654404094315996,-24.272524214552664,-24.79086631175015,-15.304887479968563,-7.213071514910602,-6.1037172399912905,-2.439486880195659,-3.0083490671041915,-12.917650721012457,-13.821672508039363,-3.220732015957328,-0.909880738503448,-3.3871297529724274,0.766612758956402,-3.0326287614894856,-14.28183744508327,-8.756645747604884,3.5054422976947723,-1.0194031810523487,-6.140743505479691,2.5662753209797025,7.229713119505309,-1.6630167749688667,-14.930683164204908,-19.557995682454756,-7.187158754075525,6.040019225735975,0.5863916669139186,-10.012963653820439,-10.501583643348102,-8.33103071055418,-8.718414642691787,-12.273119356805124,-14.833634785577585,-5.045509437724011,4.443100935001251,-5.39449240708551,-12.391449503542525,0.3866664899563741,6.276793526553176,-3.876616886817848,-8.293291672172757,-4.295180850629475,-2.5182212001901583,-5.29910109773242,-10.563332203871166,-9.231325618401286,-3.2296912262897575,-10.509553837486706,-20.35248242129788,-8.010771103966103,7.193130637739479,2.148634059299863,-2.4075482890207827,3.3643593671827494,0.8505780656587483,-5.680622201128239,-3.6700248362005237,-3.551759279884047,-6.075082496431225,-0.7962757168156473,2.1710126497438083,-2.713953061231484,-2.589425319583974,-3.195464194297232,-14.550086900828013,-20.881262308329998,-17.66177465932173,-13.346313762680058,9.212041327842938,45.07128923804137,46.27469639125654,14.031198405242707,-6.20641625679815,-14.857911865992596,-29.532540067425316,-45.25300985962142,-58.26548068391987,-59.27501873007066,-57.94159937698257,-70.71053054936795,-60.02295806602541,-38.121866752256395,-65.85915664488388,-81.1821281510064,-4.413615031338026,264.1732659327843,822.9739420921126,1064.7155601299519,167.63167872367015,-1032.618798865837,-1008.1240640836795,-238.57363685756067,-31.759035327933915,-125.63274469212794,49.57109795023844,129.7504548273398,25.065268440546077,51.14614605642983,92.93747739399915,30.758006778811648,22.469871329868212,48.826180208504105,23.586353905492057,8.98261227498839,12.368595069980152,-2.3061891989579175,-7.531167316248709,-6.838244871163225,-24.345094119094473,-36.47305778297525,-32.97798963938901,-34.211992957926114,-37.45629743497524,-29.89569865217026,-20.603965326693412,-18.598288330413936,-11.093037262194821,13.296941533640993,40.975972157830945,58.12325408781596,76.78802311523336,104.51389099890862,123.69941665617507,129.8591580717713,135.12563263766924,124.65727208635738,78.92611483366888,20.45614619884697,-22.342625383861026,-51.877158464235144,-71.090885618256,-76.68488379521688,-79.5505115212051,-82.47696428944113,-70.92490967817636,-50.539423983218555,-42.843417815905205,-43.711247013654386,-35.02476736979881,-20.09356288657677,-13.016114431215929,-13.564935356717015,-11.656392925138086,-5.285502270450298,-1.4908899726086506,-0.9932901138019901,1.860060373612777,5.481933220415072,5.992052302440103,4.019426903221891,-0.9626862336043072,-4.537644614611576,0.18770784505302895,5.601906425512045,4.402603528567141,5.018002255283408,8.49927627419548,5.631919169760992,-1.11387979062589,-4.25939150918735,-3.362834366763531,-1.7821964081888622,-5.270093911365812,-12.826631663391108,-15.161097062172384,-12.205114804257954,-9.44029584834644,-5.180672213132735,-1.6183827092934422,-4.084749224280937,-7.051567219262551,-4.378013158559774,-0.028140685043984703,0.3874984789589231,-5.285901147958835,-13.215088518953872,-13.158011514328463,-2.7907312264424817,4.721579150460903,-0.3097035715425527,-8.47079336464472,-7.698326296480126,-2.0056147875582453,2.05216719608798,6.857893124211512,8.670390779063384,1.0041243994281857,-7.7808485332018185,-9.261767797382635,-6.866424071065892,-1.662543222157903,2.9893461542495823,-2.198149055624132,-11.055320078767851,-10.298504205293035,-4.470091077575772,-3.8321154221878464,-9.746832882815912,-12.980497373179478,4.52988413016543,35.065623899094774,41.48429534377132,20.75299981498121,0.02293563922220443,-15.873320975120452,-24.68461792758845,-27.624569236384534,-41.72898981935559,-50.564945898236715,-47.11086970158683,-62.63476933720549,-67.9233325868486,-50.32892422293279,-72.38521699545147,-95.1062916502716,-36.26454303242947,198.9148250231927,746.2689747581113,1095.9651237202136,339.84005366360054,-908.9055597064621,-1038.4157539109656,-274.37252143798133,3.881292743557971,-115.3261294908514,20.070076326015382,116.82560908131131,12.813590423274142,31.895707781549195,97.96899433011941,47.71018750073725,26.716377071285727,46.22659241264023,17.3247907892593,-0.35313882726565726,7.723753087610713,-4.974343394022618,-14.652558228846743,-13.21522875983028,-20.779405174196857,-24.66345152614948,-26.720821617955377,-37.59391238594838,-38.611417280824135,-27.774129159169604,-23.872446898663554,-22.778703595887514,-14.317295482045314,1.0749941679883968,25.74066868519221,51.92103152973767,67.30661467050327,83.22952610909985,107.4082242715584,119.19707975001194,111.39312656663242,99.80515240466953,79.95134875746538,37.138391704878,-13.594692981045785,-46.858341963909375,-60.67231605003034,-65.27547455024744,-67.33531376845009,-70.33605173006885,-68.34248745681401,-53.49760601232887,-36.87086414640886,-31.300045332300904,-26.66470361011726,-14.963099693198465,-5.8313815437736025,-2.057434698804059,-0.9598593367647581,-4.734012744814464,-5.71179131957866,1.5741300794128055,4.953536252837445,1.5706133933318593,0.751485057970882,0.3305617777945571,-1.3988605598829968,2.386687422365408,10.4954194623767,14.520589671081124,7.466748150123941,-6.679071532304228,-11.386041725067043,-6.681412588144968,-8.307622354307407,-10.749880605615484,-5.26788749610097,-4.5340626038663405,-9.579395228193702,-8.66235836919512,-6.859135537454943,-9.278163841404918,-9.760598283262873,-9.207272842521302,-10.57201044785194,-10.355064442396442,-6.544284312848266,-0.9650878032179495,0.5277110947295078,-4.546237617539594,-7.458965945733787,-5.175235486884905,-4.997178218457641,-3.8582012136006467,2.098811922772925,1.8780731567345477,-3.9350172603020726,0.5757087176833986,7.5200962410383765,-2.861193630042427,-15.67276942940811,-8.35229291129365,2.9291212156744892,-0.001760947475071717,-2.9083102757840966,2.165252251140809,3.2489034227384472,-0.6297243266778718,-3.0335331465367092,-3.5273755400816142,-0.7094588845383449,2.1100672025751424,0.7431038093293063,2.887246834103899,6.4696698320771135,-3.036655104313633,-15.631450614361064,-12.427250678798885,-6.7550901408285515,-11.93657096291893,-9.618109829368612,3.9649487167926214,3.573761434085501,-7.718269988358669,-4.993689949177316,0.48085978429515297,-6.9726856025531925,-6.226157762339552,4.528693371411896,-0.6021320818183833,-9.883025878509503,-1.9333794792080559,4.384127751058477,0.2121617858072251,2.6344481278909004,5.544129113252448,-1.9160856218735707,-3.3545521883952523,7.7326305410514085,11.721740401018867,-0.24665285147815297,-12.074711192591971,-8.860651170669541,0.2771481669973701,-0.753201580305852,-6.733536767472872,-8.144504536768599,-12.59240389657092,-22.8338030493156,-28.477462622082903,-21.156921291731468,4.049668956881989,33.3611367250833,38.52261772421778,24.119465622021636,11.604466474521175,-1.6672712374651892,-13.966540660457795,-26.849679455878807,-52.875236296910465,-62.13288005805138,-47.2927666513062,-56.34430070199387,-63.36581250121941,-48.22948415771175,-80.53114645952043,-121.14889490632447,-66.75983813720197,176.56510117626797,729.0320306730999,1103.9869991493351,407.4870583153415,-803.9626502386133,-961.0253075251169,-249.8263542952314,-6.6758822799485955,-142.54634527471234,-9.086924233179445,94.94363584470437,-3.290475730275894,19.294140527698318,82.0735563205439,22.11771818617994,8.448820379328172,50.64040108765523,23.83420235368406,-6.960323022258804,8.23234360351984,8.656073090003185,-9.561497074040465,-15.797994930414927,-13.192013519553848,-12.516295523312042,-19.366668094847906,-28.202590136839532,-30.666794988812697,-30.093499499055902,-25.06861884261138,-15.207348300024963,-12.814482119827085,-11.990228045281706,5.3642669051091545,28.099725092530313,40.45419508310694,55.756480015262966,81.81316195797893,103.09100187470523,109.95693952797124,104.05725627217652,87.91022148669524,62.59109985950175,22.760262125820667,-25.495295977441373,-53.34167639784059,-53.28650177745622,-53.26853489295245,-62.31492455900836,-62.044874611388686,-50.92687006335374,-42.874245989982,-39.24468287405831,-32.300416078066114,-20.72004026089219,-11.31150426340023,-7.8025860432807335,-5.217828910721366,-0.8977431844118655,2.8683430520984423,4.723693389779784,0.4567668621114933,-7.758469036753695,-6.695013846167885,0.15184064004965414,-1.670245722158219,-3.0497473016803216,3.463459322248837,1.7276740253530978,-6.4437382309317215,-2.6446328530890035,6.617114852336357,7.431480568480166,2.223272894458561,-5.22717888080798,-10.640276945991536,-8.930285177387912,-4.686771977203309,-4.216225107265817,-11.081060662006692,-22.930888449846435,-21.739694843724717,-2.694852389979003,6.492828456476859,-4.285235973127483,-9.754092548245126,-3.4504285139172524,-5.670241330007471,-14.916560148751756,-9.886711107001645,3.4928799532388375,1.020382334390252,-9.39712071112723,-6.13586440776974,-0.8969490558106372,-5.489579369369195,-3.490463385049466,4.041421658879935,-0.27948563436477425,-5.268928656498891,1.1558979940012293,2.9829276192135428,-4.1658882900571665,-6.036000070832754,-4.493558205341413,-5.901062044131521,-2.4247518422676047,4.269883336140358,0.8323715868467705,-9.269683567889693,-11.123948131067419,-3.4167881979553405,2.275695801927861,-1.850092088397032,-7.552568915433581,-3.1230163072425166,2.998681048344303,1.6860931195494047,3.5640203134192134,4.837671228595499,-10.106169498927562,-22.8356254639791,-13.12286819951196,-1.177491267779569,-1.7526921873438148,-4.687547996382749,-9.285404985165096,-13.836449016754035,-6.93345061943335,2.716436885097181,0.21369287294092487,-2.5007896709975452,6.989464641616628,10.777007826459002,-5.159376297285224,-15.761165718057104,-1.1432430950819552,10.061330441962799,-3.5013283008749454,-14.655880545213819,-9.220735297217526,-8.770709053965481,-16.73628180865565,-17.274503725009485,-4.9618051352189205,18.669043355033498,38.84270725294988,35.65944521484443,15.577744083602319,-3.2486538838607766,-15.751533600629969,-28.94916890176821,-50.56935635605499,-57.9787834117867,-40.643105219884994,-46.924042956218884,-67.88982448486594,-52.98069835332511,-58.77438850171335,-96.32580875728786,-65.09410650651591,101.00425063608986,542.9374061403238,1063.941349816917,735.9939625581226,-526.0683800968828,-1162.0161003271642,-559.2349583858468,-25.765836753265447,-99.77145725247617,-60.98991722420817,107.4377919807017,47.00688424737693,7.174283652971191,84.31643660049893,59.34297472383445,11.697343069492783,36.935803249309295,28.315727326678445,-1.7804944178409858,5.060067772382408,5.101633374899525,-6.164705192088266,-4.349849985313666,-10.475780282675228,-25.945543931354102,-27.55102948347942,-19.720774322571707,-19.93519767505024,-25.619051074261236,-22.143296254094032,-11.247158742856922,-4.827268032738969,2.368000501629531,19.54371132420607,36.26019933626833,41.541484258837656,49.10928907684626,75.81019679329893,105.40877916745724,114.57014395921617,113.80391932059143,107.38027075003484,70.23627939196919,12.934893312947644,-23.090179154786163,-41.3840809121826,-63.896250603389475,-78.24497279214266,-77.59457421607678,-74.42691041969447,-65.42502533707449,-48.49164008618769,-35.44795419151144,-25.93479617646444,-17.292713629839795,-14.444491262454942,-11.120332316881736,-4.300026672379417,-2.5806708576491815,-2.7504291445797833,-2.551959486279694,-7.445299001363088,-5.772145373889144,5.36226019826359,5.162751744015184,-0.5246472358249505,8.036747070205225,14.911206286917434,6.966235108272443,1.2993883093909355,2.8625759914695252,3.343523678222053,4.0251505636187215,1.9006812729533102,-6.252610350913742,-9.765180396767036,-6.169756987569421,-7.770015558240848,-13.569219621826587,-10.540271659781297,-3.3582373294722245,-6.574072237825037,-12.780467937245094,-8.852872171666208,-5.441243784332624,-8.642941598220354,-3.5626314528793,5.9050336571387865,0.8237986082667597,-10.29908697706595,-9.300684836191428,-0.3873504914025414,5.111109981699851,2.382975745961689,-5.982545452730706,-8.448410885873578,-0.4644128670291203,8.357848652331988,9.143418854065386,-0.5837473991330757,-13.122319425192124,-13.814489818646532,-5.192412463492071,-2.41655602453619,-5.063505433474333,-5.8768907575458735,-5.97146415647051,-5.949672738390675,-4.742633351161601,-0.9262901097840999,5.1125738062578545,4.694699621413772,-0.8365764441863117,0.9936666466055346,1.0233778800880318,-9.170346510668823,-9.61601655528672,-2.041892968007536,-9.08458193819162,-14.587822938269655,-1.3307204561425858,6.801672801687925,1.7372819284090752,-1.3889829951489379,-7.36107949522998,-17.08765217713766,-18.183020747477926,-11.22409280479933,8.394861117934054,38.39629557131655,43.0324037334623,17.70403717823058,1.853467919184106,-4.248211184124292,-22.325301212662247,-42.78039653400527,-52.56635315983539,-46.48870448183711,-41.92703860309315,-62.305620277714695,-67.17642799837698,-49.924146962450195,-75.94185456665072,-98.9228149134446,-36.335281722826025,188.73954987870633,715.1853505260888,1078.9233798840874,371.65269635133006,-865.4143681429892,-1031.4928144759606,-286.89780003407316,-1.4094075954450673,-123.12571335012693,6.359595810117838,109.57884989459933,11.968232902433456,31.348146492001835,95.9563485422307,41.086745617606226,17.19645787448884,44.223212174025946,26.207009197360247,9.537459685792266,12.292480283803012,-1.1528320649521224,-8.54017985240403,-7.043706980962183,-15.260248228534092,-17.799933138894396,-16.196711665107557,-27.375613806251167,-37.411957068395324,-31.475062511930304,-20.684215032266362,-15.486427526065363,-9.235252570726125,6.324815375904983,29.129465690286978,52.51647630526088,67.21791138258673,69.35645285317898,74.21789308198109,91.05604807446215,101.35565211216272,94.20539638768092,77.67685016810888,49.35004743151562,7.653883366991728,-32.52421285984843,-60.66297092159194,-74.21542456128029,-73.54924850704904,-67.12249718676519,-60.23457476787114,-51.52965225253073,-41.03608147286511,-25.781142650795072,-10.241779439963238,-8.042058833221287,-11.578517507870663,-4.886056143055756,1.4604923000919143,-2.022296016538892,-4.005548938378077,-3.8688229400910146,-8.436229164442176,-9.281559968674756,-1.747458505584417,4.773147292907057,5.074576788871362,0.5739481627058645,-4.397128609839592,-2.581578391903177,4.368923936766892,6.4768232609576435,2.75840321320553,-0.7056404102125757,-2.0212654750807584,-1.2240589885449467,-0.7545329466692543,-6.440452853761295,-15.612624138556024,-17.121278176513755,-10.612527052750925,-6.660704348235628,-6.074749043620233,-2.186382941781039,0.9947177228453778,-2.4691565422142467,-5.675669767304507,-3.0491496252555716,-0.9808133316859964,-3.6120337471547446,-6.4145136870919215,-5.9982056104372,-3.9795483235902527,-1.8607552539573984,0.7403955320952296,1.584279034111204,-1.8756700973042157,-4.490563402473962,-0.9032368493290139,3.90191338939177,3.9907030651162856,0.3878820321547787,-3.339758177234901,-3.358907480590883,-1.2789840625493891,-2.784743449501308,-3.4794393309916707,0.13028636528000703,-3.3678192516669316,-12.335965557188263,-9.202427769179616,-1.7104118078055093,-7.0187309515804985,-11.07411617818639,-3.6223674621216686,-2.075487477406159,-5.4406227160862235,1.8337005296372717,5.5562207786450815,-5.1953276408196984,-7.487134551861715,3.4418831160155077,4.615923202749462,-2.5869225083909724,-3.620595490443921,-4.219602057792149,-7.94775155399476,-7.466961164755318,-2.462108762089457,3.7661219079928143,4.485569155929591,-4.317338845015726,-7.002895377372248,2.670207941234014,2.8379116848113473,-8.786646938126829,-9.615759965606104,-2.0786935267667204,-4.956728110852948,-15.565943717270743,-20.40410328944805,-14.953654211061993,2.0347938349880366,27.566243667897517,44.38914878949815,39.2473227515414,20.36730708310452,-3.0046487924008063,-22.89502465399606,-29.51567257144054,-34.884443452452714,-42.02023391189129,-37.668643882869,-47.290283607385135,-70.29201802121413,-66.87339505118202,-74.74538433639512,-108.03618509039823,-88.75224612449851,67.52926475859908,522.2067990516626,1053.3993216205158,730.1023550350592,-496.1513546317036,-1082.78933983416,-482.547775273788,-2.455612110821477,-116.46129919930493,-79.8558617258688,97.35336772937666,38.05552651077542,-6.974738498290023,65.46071479287914,46.96249374083419,16.73306615335553,52.90527051999628,41.36082256499228,4.5623263606515305,4.305437453559878,-4.451053633907891,-17.464967644442822,-6.726019459561167,-3.8909565731279256,-18.560775768878585,-25.824746601975484,-23.480107470413884,-25.591962740056474,-34.306014419300055,-35.0225289062175,-23.09200792225046,-14.914389227332835,-10.08276087936656,8.180419458702914,31.250138828774187,43.54456966807322,55.75289277723827,76.13666097437059,91.87880456444604,96.54333224114048,95.92048207671418,88.01951572765499,66.16074330285566,34.65454743055908,3.1698019731072904,-25.456405718560653,-49.18393830613677,-62.968953519914635,-68.45687016134569,-67.97227255002093,-56.871327907323305,-40.56166511337433,-30.942971380098825,-22.269775879785378,-8.737533101638096,-3.067042158893642,-6.666982796592981,-2.982313091639746,8.137711625743746,9.10339669871318,-4.707415660764701,-15.90552326921112,-10.056678433701432,1.2471005402914805,2.2278662088114256,-0.36363421857799594,-0.21215810282233427,-3.2441142860539243,-3.2104320444060663,5.430831732795987,8.59217894590975,3.908201049412281,4.4462023269196305,4.613750112343046,-4.475105608982311,-10.73659319385794,-7.815784786325988,-6.541758051716023,-11.343597398841077,-16.312516041702754,-15.948293436949315,-10.020862609799781,-5.0515494645678825,-4.76140554681608,-4.659794598915266,-2.2773688862896453,0.6479489018088813,2.298238778560851,2.0152262065776325,4.135056861372313,7.191996738682372,-0.15177000334133872,-9.612629620672644,-2.9470087913287752,2.694448710425683,-10.309412266933867,-15.850375357019773,-5.612551939807199,-9.770663287101979,-19.71414056079584,-6.14407150560587,4.6633669298362594,-12.28559858587219,-19.447139833254493,2.090308325970049,13.16713618517768,1.0149974145502405,-4.543217571887306,-0.2547600905799756,-3.2929138136707437,-6.8010930196905095,-1.9630248304253435,2.149557945489403,1.1979495460525982,-3.412302098628091,-10.088519773185606,-8.832315223645752,0.4647187443112175,2.9139904849433518,0.3668744136694846,2.4518963061782313,0.5003427751813261,-7.429149740874537,-9.352232619951621,-9.107010862862053,-12.328707057001267,-9.908721328961295,-8.908073141100493,-20.457549014676143,-16.281767741567293,21.93739818948355,48.74237665603437,33.687694071517285,10.575505838637397,-2.6057807637378816,-17.6802616341508,-30.366654551404515,-44.02641997666122,-53.25964885722206,-39.814302921470805,-40.77347575386975,-64.66234502067067,-57.13825824055681,-57.80078789929017,-94.28132185263343,-71.26364570593128,80.97409160166796,495.410200168698,1038.6170827097492,812.5140190059469,-426.2145383957577,-1177.4114356424056,-626.5909551468787,-27.289066928990593,-86.49601657021837,-81.74897315440234,107.34465190777773,66.31019167280756,1.7336743772804653,73.55013334529771,64.86237717879368,20.201064005805687,48.28645034158864,46.16590244162144,12.59709969568988,7.234566571391661,-6.658750448676226,-22.47402632146983,-17.48988791239467,-24.48099513331681,-34.37488432272107,-24.910827239940737,-23.04093186722839,-31.08726485092932,-26.53222915136252,-20.5268407460718,-22.519821271671944,-17.335779211036606,-0.7171483391298317,19.22391820294161,37.964274760959114,54.1011211209627,71.84914441061508,94.31706759839312,113.77387058294649,122.39684428857339,118.41914910020918,97.84716387695335,58.9703712853938,12.728969786289285,-25.857944871193972,-52.86295110181662,-71.75250646119626,-81.72544621684426,-80.83665075288238,-71.0307271163748,-55.74620046236761,-42.559763483008524,-36.7810757959164,-29.250564010451583,-14.055175042337478,-3.296961015049394,-1.5068132603873305,0.3370708086671641,0.16981392769029213,-4.103819294136013,-1.0881848377953567,5.639442185001476,0.3268170689942238,-8.740743859889319,-7.077895463031279,-3.4298574712919603,-3.5823691325626283,1.1634482124314687,7.53409040594845,6.942663673609006,5.398426492794883,7.31436016422883,5.642228663075516,-0.5924421566708142,-4.519790484127588,-6.669835468428786,-11.903098811874782,-16.095960233292065,-13.36905187615111,-9.157273321939492,-9.350477599764309,-8.857579475349034,-5.019797113507202,-4.394459483021937,-6.8381986272101205,-3.2471461010366722,5.3141859298242515,6.96463333961465,0.6869763595818874,-3.481426076004418,-4.62207030943209,-7.28352287490986,-7.172519659842818,-1.478517927185588,2.3832132833381436,-1.2238532814644092,-9.009753910776565,-13.434924619439283,-11.795757613801834,-9.679354618092082,-7.783371641618649,-1.3651762184087577,1.881073047138262,-3.6754102719095076,-4.191886029630243,1.3619954800857634,-3.638209321324993,-10.58482033251127,-4.029177472185035,-1.7143783295799473,-11.937169013950754,-10.389195351274,2.211595510326455,0.6922330110166781,-7.425950282191102,-2.7506951273467073,3.3457823298673888,-1.0073825746692249,-4.613419172987802,-0.4221946143363673,3.877109273305474,2.491972499110406,-0.5167110360869338,1.4809391803099143,5.810538751494792,4.184638353732104,-3.2940296279811605,-9.923571434463991,-10.22746918272557,-4.265912267646031,-1.5020281083388243,-6.676842512847553,-9.20955485166231,-4.209022429920645,-0.2199667616896761,-1.7968374171419565,-7.767985471449782,-15.95781147046061,-22.151588976217106,-18.33798971883953,6.830294822102508,40.69298943157957,46.043507017971294,24.02921364202356,6.287006922795609,-7.3502469625778515,-20.37202511441339,-27.256465988118716,-41.428411761262765,-52.05785270489248,-48.25894246904613,-54.06447419753072,-49.220290339595586,-36.391051927814324,-79.8556032008432,-124.73298762664747,-65.92173918048911,193.03903985649666,752.131220219984,1080.1670590938832,318.41931935994074,-878.4702863521358,-963.4462123954154,-228.70972812901044,-1.8773239343246502,-133.9544511359435,4.926903414760375,103.20839440856733,6.304383819541648,24.90049838120661,85.1445882383843,38.62476390140118,15.933300995191274,28.900207245019736,10.882900358978224,5.793684640197592,8.374275339533003,-10.971756260059882,-18.126923468210684,-11.209087931354789,-14.24584517644048,-20.368954377085586,-23.759078766659623,-23.274220192313372,-18.000066107297577,-18.85186371030583,-23.95504957927438,-19.427313867043395,-8.109372337372521,3.298928172769532,17.23218436592275,30.388900898201673,40.417014179032925,56.670279971011034,77.94395649252613,88.65085254921627,90.89861474710452,95.55801286582775,87.5348376414328,54.78577168324127,17.759590597701617,-13.303923275073846,-46.478335810562996,-67.05684896935966,-63.38153476289376,-55.87822153607995,-52.6094591810873,-44.17498605460473,-37.988412239221056,-34.49353148816782,-20.49526742600883,-7.318291173739787,-8.551322436571786,-9.201096093797648,-2.7902489650179234,-0.5891542100712055,1.1822708136394446,7.4494518094491,5.725756013813221,-5.634373748513083,-9.58895556354193,-1.9479242297013117,1.692662982932915,-4.750708316755332,-6.014970899627703,4.131472976885027,6.82032319508323,-3.8954849791414574,-5.249212537838506,6.823309048421207,7.534521881049534,-5.170464235760042,-9.077445699654461,-3.812657520960302,-3.9679348403433687,-7.02467079554731,-6.3499192378752625,-6.424733358354777,-6.589628408893075,-0.08472734931099879,6.40701196193619,-0.15192417776597544,-13.688469348712065,-17.329396939228584,-13.348681613424219,-13.76119199222327,-12.598324470796125,-3.4911118791643343,0.5953133810422742,-4.186707912024662,-3.3491358216167972,4.266907082167103,6.549372882271923,1.8317198546777131,-3.254532586130529,-2.207192194611436,6.162152654103279,9.080610634481463,-4.000310326487165,-17.8564817743261,-14.093380626818838,-3.35495166356874,-2.070374713517939,-2.9274835075780263,0.8987749530227047,0.671055303516817,-2.77298826923574,-4.144821051126745,-8.883535874043588,-10.469545812407159,-0.3431519140542534,3.6175801488267156,-5.67805147836204,-7.307622740990729,-0.1475359460891683,1.9011732684510987,3.4270574208092857,4.262142296568071,-4.299452896535744,-10.989608004620445,-5.817283881016515,-0.5757866472071629,-1.184895012047261,-1.6303884392419445,-1.0553292554393423,1.9421422043895278,8.22820205968492,7.0573459997776045,-5.890064139319937,-14.943070073526263,-9.864484914347985,-0.2563623161779187,3.750995601687473,2.2352533699874106,1.1222424033783902,5.937741834916515,9.179335025733529,0.8399309321374453,-6.528429917039972,-4.305313477422439,-9.389689345683111,-17.69079321987921,-8.712082043718386,-2.1250582262917117,-16.56731114925486,-21.444921986515325,2.2528645063835437,31.72273813130392,46.58578356496921,44.3929504770409,28.642599252335682,3.55659859059157,-19.34879301973258,-30.857945055098764,-46.55169807652036,-64.9772795991528,-62.90193966399289,-63.960382131085794,-71.49729186006013,-51.963548171922056,-60.18790362513885,-109.33649830118003,-91.30807510906632,71.23183204043616,515.2694649970767,1058.898694544055,777.2399183771743,-467.39770111593344,-1125.07710097676,-531.727346063945,-7.143027082414015,-119.6370659782745,-96.14097746406601,101.55808556981322,50.76917991821603,-8.720590979665971,69.52681864603235,61.880402201663514,17.426060466535528,41.75096770965333,39.61086598113748,9.611164698914454,3.5486403808578304,-8.30284051414019,-16.984760840950496,-4.510166033966254,-4.7003291937431495,-18.63110023044096,-23.117661442281445,-22.47624582930777,-19.361040297073682,-14.43205464690898,-20.827003218433145,-34.065321446627586,-31.856132927335462,-8.823866034454932,19.24173340556308,36.782802886984896,45.06281765582421,56.69670179993913,74.44679831210708,91.02187215803804,101.86743557461011,102.03493183582138,88.94969548535292,66.91391029175091,35.241595827399316,-4.569130743194467,-37.73877746487989,-58.20165887504689,-71.35237252973366,-72.72681616819814,-61.357861332477725,-50.489692682399074,-43.981868899243366,-35.12306460665448,-25.45976465387955,-19.278575636985654,-13.864828107069524,-6.229615640014487,1.7788927834412842,5.6140492479473,1.5687672947486444,-7.235853716118751,-11.325713422755527,-8.107597988006397,-4.009102159364829,-0.2062905662941219,3.8532281897031773,0.6989600384721371,-8.58573992229691,-9.045911375825385,2.3392471520623257,9.687914859849592,1.296159325796836,-13.826855021333854,-17.797655999571436,-11.010475918934219,-8.565435341309101,-11.027084085464775,-8.53759193438484,-2.213411826455273,1.2769361188567032,-0.5755355342561437,-5.106770666688581,-6.544060188870107,-6.787796976228078,-12.005741977403922,-16.840638150665022,-12.466373148206475,-1.5346797704532005,5.796858726551916,2.4318652311780884,-7.460104473445501,-13.17845628761766,-9.823970444653249,0.6051137866385785,7.519897675477111,0.39964907299965446,-7.8615697272886536,-2.0568999160507335,3.462120219271095,0.31535509689205643,2.0661042469456996,2.0214717923777137,-9.452607707049694,-10.936358460134986,1.397080116735129,0.7018128375704435,-9.487724960872152,-6.91944058016305,-1.1855195646784837,-3.113672502452923,-0.7765918151277997,1.818612339659623,-7.795431184734051,-15.22383399440191,-10.637332408326044,-9.206660769133574,-13.656944503381037,-16.671462522101525,-17.70065536407779,0.6288031810587391,40.04297260132276,52.51533300350501,24.788744045695815,1.1925538858286688,-9.632317975947295,-21.42294480919502,-27.449981440579982,-35.58079774915289,-39.644420426212235,-30.16115972465599,-43.13188452595698,-59.3322376593641,-39.50986331395096,-46.68689944521983,-77.8531629761578,-40.87169318591343,147.1893764649483,631.7430602231021,1060.0895876540242,494.18542958257876,-784.584753668895,-1143.7536341317266,-418.54551018244126,-9.670599884510139,-116.07603050907422,-13.81251087593148,133.84659195662923,45.67912936467133,23.15081598582472,89.34269600415804,53.64789984478401,22.30186975941681,45.16201295826395,29.972025069860372,10.827957974365537,13.49713545840223,-3.5847809593164497,-15.172688783976698,-4.683317468164214,-8.886397561624406,-24.807324852040956,-29.399942295084273,-30.751517730763837,-32.69114865876416,-26.339645008670683,-18.211074632219127,-15.100748578603351,-9.139224570138564,0.8608293680936789,13.753227383305958,38.35890049517361,65.79947133056551,77.2786801455771,85.14552577989141,105.0908340257752,120.30004984979425,113.66534225076892,86.69829533490083,45.82608995836879,3.213734879113506,-30.49570967304352,-55.61318936434532,-72.51091240500449,-79.7178125977365,-77.37093251201547,-64.7819727884516,-47.79310180563533,-34.65425198548447,-23.681057639267106,-14.82950886066677,-12.07362204472075,-8.55626836220738,-0.7112047884719566,1.053767953032537,-2.368973205000792,0.5193182800221976,4.140167254751808,0.07103111807627727,-0.5018951939769423,6.619023859313641,5.584767294554253,-4.12384835429172,-4.847414947161191,2.1418192476864935,3.0277791594925825,0.29104536376214973,-1.6260814974190296,-7.947229311328979,-13.071582153442172,-8.649265593433178,-5.296474622176213,-9.884140676735559,-10.817814881591612,-6.605953315493169,-7.912325204686631,-11.950826803005643,-11.12295003784772,-8.64507317731291,-6.108261177774171,-1.0442946723419233,1.964537869734725,-0.46137493155847764,-2.9651196285832295,-3.804064129503237,-6.136386334672481,-7.3598759207548925,-4.790052725539281,-1.007611244323881,2.1892743115614577,1.6064351123360012,-2.9541453715376074,-2.5454344901813,0.8822838092079426,-3.709446355945997,-7.564321161790236,-2.932369193155658,-4.4534337480535555,-11.786972932670073,-9.567875263893251,-3.9657926649519073,-2.250609556566557,2.390883496062135,4.048093118702328,-2.705078501545067,-4.60440802793175,1.1353049458404851,2.6195026836354995,-1.5566705876952351,-5.695872473817118,-6.083724004259508,-0.5647946688624099,4.5607455238612635,-0.19835336413412286,-10.847925201405998,-11.846888682171,2.194563803836361,13.659153773795195,7.100995880016761,-3.2974635836165893,-1.525154933856384,2.7985164394314457,2.152595456413418,2.633711773612041,1.3445455194207163,-5.3952257437710776,-8.602774537832431,-5.4681308698623265,-3.8350471123154457,-4.867881740253766,-4.775957744250695,-4.435409866768758,-4.487018186534284,-4.993990536459394,-8.89425922696542,-11.992554991023438,-9.486217341327302,-9.748940818884165,-5.407746719256721,23.553422037672476,52.514032122017014,47.80761731623912,26.980098941846087,3.1657180199122767,-27.049882395599802,-43.30688432675306,-48.30282652328714,-57.115439203481095,-54.80011855510374,-51.70159160613912,-55.71001481095582,-51.11246778440035,-69.32849092610036,-102.93465646115831,-80.28336258453385,98.29584556550992,599.4218596722413,1084.2675561676579,603.2094554411512,-645.2232207874713,-1062.3201294117182,-392.90119214238064,0.012764781922072643,-131.512082048382,-49.85328925399949,107.92180575808408,23.503630125246616,-7.735529238344846,65.01487257697528,43.62367559683703,23.673983268506355,53.33942544887013,29.788280461451365,-0.32680519230683025,9.566250234669074,3.9198984765611513,-9.661083689480074,-4.911903908211076,-6.885105191617947,-17.043416765297412,-20.36382389236516,-24.17827289206496,-28.255096433734046,-22.856554205282738,-16.072513862497956,-19.491381776164175,-19.475127368195157,0.5073951819749709,24.051590378275908,32.49514169940275,37.9946675410631,50.46949525946546,64.7282998425539,81.9102214212983,95.53044913027946,91.7114337382606,77.49874482925988,61.53694813960698,33.42477955106438,-5.270697496447206,-34.97383428926064,-50.46686354001403,-61.08308457564321,-67.69265947894283,-64.3823814775931,-52.45763540136316,-37.685534585842326,-24.161784103382843,-16.905823862404183,-14.827798703761617,-8.645348257913277,0.1502949885991498,2.6387213567618897,2.8914330668506665,4.57240949361433,0.9211256259274521,-3.698721078825514,2.7922720823483314,14.982473285588913,15.238289216108884,-0.7906717797866865,-16.070636415092505,-15.527819949418014,-7.893309158041874,-6.227545486572902,-8.839127320453223,-12.251405286717254,-11.41664143314097,-0.5073036911386755,6.660779203429821,-1.3116012710024574,-5.590997318318127,0.5176035942772153,-4.249367899124014,-15.703527125108343,-10.909604794337051,-0.09873310853830297,-3.3224785133465833,-11.478064426154965,-11.064593949676146,-4.314986848024711,3.408567651289448,5.2927790280195826,-2.746729669964439,-9.818704819806424,-5.696725511880183,0.5429659320338596,-0.6804922566339888,-2.1915148380927976,1.6881116728625285,4.140334943716613,4.353827082899363,7.815446963881346,6.574348475905394,-4.085759155130397,-7.837267205688507,-3.4031296028208056,-9.780175888281507,-17.369006682274343,-7.145659786469881,1.9442377373954631,-4.584519426321389,-6.693334530096054,0.6736175810245744,1.3057353572573804,-3.859527193497392,-4.544049497373148,-1.6072071176541511,-1.357193464243169,-4.716042460894013,-4.212429847484184,0.07689853293728799,-2.7449754437691407,-6.229334969171643,2.5555832311777156,8.55936356249609,-0.7641110143107381,-7.359461903322851,-2.817570628659072,-0.7560869133289438,-3.402103326027711,-3.6962837428518887,-1.183886947951816,3.594091865179145,6.753129982305548,2.629453825624262,-2.4136589531924635,0.10563820222512077,5.94721360228811,8.516290828779855,4.53274430418276,-7.989691439910678,-19.768564696115323,-17.763067243747955,-8.82348561065712,-7.712231436077799,-11.77597621081999,-15.969297133825961,-21.920993372747574,-12.36594551461808,24.40772958446355,49.28451862726775,32.972020875991944,9.610590655213905,0.8380136601157633,-10.632280767861442,-25.398487467384328,-40.182767117651714,-49.60438359893648,-43.02506756501393,-49.68454558559054,-65.17670832891083,-43.891833095021596,-43.297466807491126,-94.8622674194812,-90.8403825344345,63.8826524285696,504.67973940879807,1051.344678412237,797.2760693380427,-429.3047687822426,-1125.3487774096607,-572.2814312187709,-28.065863542963136,-112.2298529416102,-96.92142199230688,93.19843084687561,50.721729796552076,-6.904604392219351,67.98556470696819,58.710732004539054,12.87603853679643,38.42716688247819,34.68552541901687,2.0769072368113637,8.049044081330363,10.537546417222424,-7.182714739346779,-13.191363844533008,-15.899499236060688,-20.95667675390417,-17.15300341699628,-16.29067634602908,-26.65386314317564,-31.866661115215113,-24.493744188203202,-17.07257371114622,-14.186064093942038,-6.727853384240628,7.569997366521477,22.94618014223098,38.17218621967402,55.937371289274104,75.49985722085782,91.71032027946717,103.35906104612515,111.19488455484793,103.05807014710338,70.56407406175025,31.031477482367293,-3.8405441876457345,-40.077247048774126,-66.08918783532174,-70.64073227977227,-71.1981607023604,-72.45771945671856,-60.86078839248628,-46.187280078560775,-38.72105577098875,-27.172927223495392,-14.724243126539243,-15.050968628427057,-19.381849266380957,-12.023141370059415,4.226874855249482,11.764638761971483,0.9375255844492401,-11.708555779812563,-7.271307868736933,5.528516013421555,9.922951901759436,4.505284293691885,-2.8898248481646895,-4.695427549027066,-2.994754486278035,-4.506583576844209,-4.044704891042153,1.4541051128545277,0.2408277016699305,-8.961537756725225,-12.620919955364586,-9.445484857843638,-9.075722135953447,-11.23985072500219,-9.42714955932544,-7.952334287365241,-13.952871416377278,-16.869061848747805,-6.090076332681669,4.105854566162902,1.875880387811696,-2.493946142837096,-5.321550377461854,-11.384138122326561,-12.098889885132122,-3.5632969487584933,-0.15258071113387395,-7.045058539596457,-10.714102814042596,-4.822073299770096,0.1623427187882296,-1.5691146833912697,-2.6221486205458646,-2.617097197686695,-8.447396903016754,-12.18653456021233,-4.778122278454867,1.4958565158621804,-2.5004939486413313,-6.318907608192391,-5.460435477691359,-5.4650280642291085,-3.806392051173333,1.2115728646093853,1.9298985635427375,-3.134466585806873,-6.039092179644244,-0.7224050519335732,11.052007999063594,15.286797147324982,-0.05240973682384009,-20.264527381847888,-23.44868424106726,-14.360923818626642,-7.970609273635943,-8.594472462939768,-16.247796727926982,-22.329732162395217,-17.39215771165155,-7.740185420738275,8.000839082858558,35.40757271770069,47.24364561642635,28.66289163702541,11.610228792364843,2.7018750806100265,-16.888904707901638,-32.70353488812904,-37.97992308714515,-42.92044382267085,-42.79043036435636,-51.15283972884224,-60.36146535834739,-45.37784896432015,-59.14371999709545,-98.77358256526976,-66.91592587680705,73.69175536420715,465.0545701952776,1014.3830989338193,818.3035459049353,-415.6989087302667,-1198.0299653932184,-662.2273077960476,-39.03244972171341,-81.65323896986172,-84.17389716958718,109.72300443128023,81.96617956332227,15.616366066712438,87.5956865565534,81.52945776556118,20.13283611343399,33.541598693536834,39.175647379047135,14.871052304530906,13.62858215720382,1.4008857927682485,-22.89958889679349,-16.17507818716083,-3.223754698334719,-13.745261931571404,-24.19679072030356,-24.31459044063705,-30.934681532807456,-37.73819894991585,-29.05427026856317,-17.43503753528544,-13.74800993318489,-3.7957049868269124,17.67389795423334,39.56520837862536,58.14627763659655,75.36137901433881,92.1152132777083,108.5139766755291,119.0555274051041,115.79822911882727,95.56009822243486,62.3195862480987,23.607053329349164,-17.68084076431161,-54.90361792961819,-71.66649467786803,-66.68514819697974,-58.50510748755819,-57.35244282823792,-60.35490751857728,-59.512136440732405,-45.91005674157298,-27.1072581645525,-19.391030671715633,-17.778657220502808,-9.83772170035915,-0.8914294658265902,3.078143819792313,5.878756408310103,5.193768893525922,-3.3047788436331693,-12.176481456194773,-12.81958808352962,-7.304674184161781,-1.4365065700579134,2.3873021496000355,5.165343616388128,7.717722376884328,6.670445344262466,1.7602185744708772,0.07075550525013874,1.6981416307661013,0.6124794355220002,-0.05952590062796048,0.9918256907096961,-3.6524870806376555,-10.834271157927667,-11.418504711046022,-8.184613245928517,-6.752650253557032,-8.8010490073836,-12.912863828224953,-9.982259043836779,0.07486383042449862,1.4047753007670725,-5.595476132655909,-5.505968862182993,-2.331886336063844,-5.206283880828082,-5.453366298376055,-0.91136563630696,-2.5459905092508777,-7.359229135257457,-4.063136045301979,2.3429691209099968,1.8098835701109106,-1.4022397789708485,-1.7277537008093011,-2.956205791300647,-4.723896919099169,-4.359370804616237,-6.1648003179182425,-6.784686029310961,0.6636257129740502,4.960791949905441,-1.1456599022356864,-2.9998380588188454,2.948014107356344,2.7639369450270177,-4.8506336374419945,-9.578446655659192,-5.864118091102133,2.130088858414477,2.871612651071115,-2.9890513273560195,-1.8489061375051143,3.0618811508620705,-0.25783094990381716,-5.975919108830174,-7.329346476548619,-6.504962745314388,-0.9762011665535781,5.371438111372807,3.7656047059433426,1.8605319062748418,4.431861026805061,1.2543300187890498,-3.569911001702194,-0.3636138305025871,1.977310958615099,-0.13841759011257349,-1.801699241865009,-10.363752778156677,-20.920588538183473,-15.315221626467638,-5.831215917679195,-13.561802487007403,-25.56463393573779,-22.757477765995148,-1.192464619589543,32.47869317987792,49.32564872287238,33.25241314988557,12.285156538391881,1.551768467580311,-11.267241288098202,-23.798318832516717,-34.69343734101997,-46.31161479910582,-55.71065149424084,-69.56854992958453,-68.34998689680806,-47.389096270754244,-63.327374250153596,-95.5973595104966,-63.096134103153396,123.83670430197296,628.6582939134289,1093.4840604813066,562.2190044910825,-708.8259239784754,-1089.917360946174,-386.2237964412478,4.610987935094407,-127.80625084230955,-37.20723671705372,116.8982105538921,29.222188008382446,5.786963089207195,76.15680062733887,42.46001512453421,19.65426351736481,49.29684574008567,20.64208620862845,-4.62409411543122,20.125238112228843,18.47141710750323,-3.959937058550115,-7.082980698589971,-12.9765169185912,-23.57395493671092,-23.307537773518334,-26.791624654686274,-34.89297078672936,-28.67174673988948,-16.273320403278824,-14.423695306012355,-11.092939508192991,3.320136112477165,14.759096191766552,24.756975895738655,47.20336544832462,67.77311793162848,74.28684481720988,85.2317376160473,99.88509500095773,94.06029166336198,73.92975754784057,55.03086703630105,24.49706621734321,-17.365624723370942,-43.96606253564178,-53.674167197995786,-64.10692994552227,-69.63334451783498,-60.583735197421746,-47.13557457898035,-35.71591506109867,-25.19259227184084,-20.004580990231766,-14.794322579867547,-2.4075888429726042,1.0204683136507207,-10.732108371617073,-13.360899500613538,-2.530084220484527,0.9753572354475288,-1.4986606096442845,-0.3062920383995724,-2.0813992141628574,-4.648813824972704,-0.8271681905659367,0.18201529463601318,-4.111682248111755,-2.4526435812664493,3.088806617685977,3.1579611057121486,1.2543257365328913,3.2427545673964993,4.507518188409335,-1.2734955926467286,-9.516889706110243,-10.929248780860384,-6.583390544384229,-2.838859296940436,-1.5852617388176,-5.372634454704658,-12.967217373632902,-14.42417842048474,-6.915315801246488,1.255413176490248,3.5083095532918964,-1.500696568558654,-7.589614703765326,-5.767288936069956,-0.1718230779566401,-0.5733739690455426,-4.206142941668796,-5.226578824583539,-5.845713910460725,-6.988983441879588,-4.213512167440495,2.7408915759669537,6.472319023292735,3.645685453478515,0.7589890581746337,-0.37877732221317295,-5.155175390743068,-9.544391916626463,-6.29108455680551,-1.797854345962281,-4.579235368325495,-9.303059941213363,-5.642261371877763,2.477596385381811,-0.024970389744746413,-8.318186489899741,-1.639071745762553,10.899502507179186,7.0700950370217015,1.2097039860439183,6.642804002257391,0.9939167351599618,-17.311803689372763,-18.50609292063792,-3.3720354600892355,2.12608223885937,-4.568512591043334,-9.879743851166282,-9.175642464705046,-4.461580624313879,0.3102946020835988,-0.4733095104564162,-6.215167695129283,-7.158812510537457,-0.7689161847096369,1.0770975625692296,-3.2308133524204754,-0.7812443317746585,4.564333001089383,0.2995880048512465,-4.89387450347971,-4.098529399633643,-6.496525571711464,-6.522380702608755,2.966602286262524,2.257326012103107,-15.537893808282298,-25.640297025687268,-17.67429078630206,0.7219183433151595,25.687529398422235,39.182593312790175,28.024821870390827,15.584349589882548,13.065922582926536,1.5254559019221978,-20.102930939180993,-41.519047430984585,-53.22016872511793,-50.619743989052296,-59.476185341574485,-70.66790066392103,-48.874045732310634,-51.72729979589143,-98.09970472429363,-89.97687347928296,42.74093778327395,452.4012346435043,1023.726133960938,848.2143083734967,-357.49221778283254,-1120.48676979194,-600.9564128437447,-19.84467848200992,-92.21365705051352,-103.08428785722646,81.34067239467231,44.48836443960448,-14.87515720607683,68.53940289679397,68.82277923144309,15.796866780133003,33.06239712190724,34.809744513348164,10.611348398500999,14.170152903883217,10.786129553800073,-3.258290728200922,-3.033725323324977,-5.066095162715671,-14.237847931829974,-25.410984409076683,-38.18761279530855,-36.81809761498151,-27.069741233106022,-30.472929454569222,-31.978132313807702,-17.249147979080448,-6.105756684498619,-1.1657155090123883,17.350601214884556,43.63580219956545,59.31418092516305,69.11770023900083,83.79849113131107,98.62622738390549,104.10851427151186,94.34304099510092,68.92187232486592,37.091379718845914,5.186483862564966,-30.165541107623582,-59.995108641209704,-67.71500753433571,-63.66618041830363,-67.15874853810259,-67.20644247134202,-50.161526299599316,-31.951989435895143,-25.339247805033875,-19.08134510387364,-8.773960164954154,-5.71398782145123,-9.553695956174314,-8.402111949585304,-3.9322175423318733,-5.617595286567916,-9.212227537310696,-6.1053200350602665,1.1413007820348664,5.1821069090489775,2.083145105487377,-2.896591396186743,0.33395326419294413,6.091617963181594,2.319550233152979,-3.1162789366527974,-3.7263579104874065,-10.245612414968797,-18.600944673444374,-13.065081003719715,-0.96620730300201,0.5301714298322189,-7.070228622173829,-10.393096419197812,-5.787860519918846,-5.077474427047196,-11.251411173229318,-9.073465306749053,-0.4505569180303155,-3.133952127664406,-9.681604579291182,-7.093782412901017,-6.971453453758313,-11.159275950606686,-4.549525011282179,6.443973428778322,4.973036543065961,-4.424043931669944,-8.21448874796841,-3.8087322158890853,-0.14868087482413905,-6.39446795792848,-15.35372184369609,-13.900873888615754,-7.962461314943056,-8.267406660176064,-11.208923669110263,-15.61429770226119,-20.835606683885953,-12.765808118773055,4.428347872538453,1.0239253496105647,-21.405342101988158,-24.565938204185386,5.808609681673258,41.26793377028155,46.0393653458239,19.055553296904655,-5.806205669072009,-13.404150764082207,-18.910091234631153,-30.032600840803354,-45.152042529129616,-50.75117262886682,-40.533696199190096,-48.3529991155102,-64.79715591281317,-46.67547926057625,-47.04392036233273,-80.16961218431915,-52.76575489476043,87.24092167482186,483.52314905077594,1025.112323671303,809.8886155408305,-433.32385446628507,-1218.0587265443542,-691.8565666950783,-65.72750157045168,-76.37214534690916,-51.93980289391247,133.78271296489515,85.73434681706127,12.971438920954164,88.64953277123699,90.91096517096321,33.18186409634926,32.054283715748724,21.28698405991323,1.5204735276859456,13.300445353403997,8.048857114855744,-13.613085031281924,-14.76518949309171,-15.863482375229399,-28.37653273925372,-33.353667573828204,-31.3207472634488,-34.2979346707063,-39.91617078724028,-34.89695854422607,-17.937018158998324,-2.8419262618033834,8.565963546298985,25.738970299708164,48.315156555425176,72.23111419727175,95.920144481481,116.49201908514146,133.08782543754705,139.4315268402743,122.02706628445765,81.96772263784428,35.212013133682966,-9.288314612266996,-48.041034053820965,-75.66880358745136,-90.92391745945235,-92.27268541448824,-79.13318515509785,-65.36910741280506,-60.89725918469743,-52.60568925803787,-34.56065876462577,-19.444111785146333,-9.18903196689087,-1.7000510163295353,-3.7240129658261374,-7.108445992010839,-1.6810329134063444,-1.992869043996727,-11.423387047297702,-8.978345281401207,3.769067575144719,6.864542729715113,2.634720891713213,2.141389202400129,3.578341832401952,5.501102265224688,8.99561891703603,9.122882790676776,3.7148526702762514,0.4516611775514834,5.986871936198733,12.628570834106077,6.692777793637148,-7.834502479053609,-15.525497696032414,-16.46381321028207,-16.716822702639774,-12.696482593196782,-8.977067614726675,-12.399978223724634,-11.739870435836705,-4.368556650112052,-3.0774220628227713,-1.5661818597805892,4.964632790380597,-1.4519844472130252,-13.290962366957565,-5.99648573461775,3.4204772897451026,-5.134463791901574,-11.264973769051318,-5.346081265809784,-1.7342402475514298,-0.629899638736882,-0.4261720916842817,-3.9568521554519753,-1.3924200273943006,3.3589872427197154,-7.005073966873279,-18.231063583923145,-8.7959109395619,5.485998164206109,5.5952150531245435,-0.8737310141844867,-2.3028416423435125,3.3586593793077233,6.968166589174746,-1.6925250807535477,-9.921664918202028,-4.2231711751831575,-1.2306325700565335,-7.08162349478698,-1.577248958299709,6.890429879117038,-5.454420467184397,-21.958745931370412,-22.03527552902954,-13.680914310768596,6.559148754461866,36.81124984999759,43.537435741456875,25.1534536066049,12.04040108359763,0.21889877514067457,-17.220924827867297,-30.45514607124396,-47.46039767583863,-60.44245968951944,-59.81174910969846,-63.47184276650399,-53.7994373633789,-38.749536917673126,-73.14530647296135,-102.98607848183661,-45.437205721385084,198.20139451735878,756.6211255081464,1093.161243811098,316.8062702076004,-906.7936092712232,-991.0444894371834,-235.61966082032032,-2.8093160752050395,-137.44382336122905,7.569802144187541,106.55855726339716,3.676413954498951,26.726465108489116,91.88423585732579,43.08263337804968,26.09682344851239,44.45169079307345,18.851919516856437,9.930750127893395,14.193084456453867,-8.98812315383506,-14.464378630858839,-2.815608794247087,-12.6055053978132,-22.72951250412903,-20.339826561190375,-21.68271522001414,-23.131637286145505,-23.80846923390911,-26.787760384681484,-19.331430286891546,-2.333405818433091,10.780594089398779,21.821870208966597,34.806978513862006,48.104903955970315,63.970913907275374,82.15640424812119,98.75888185027586,107.23939975299824,97.12111319891065,70.00681853636203,37.13295149195764,0.04469840324633356,-35.573755512370944,-55.35004416848812,-61.0961385972747,-62.31567655624456,-59.29250938366082,-54.12904270475835,-47.15267055181057,-35.30447347067597,-25.128755136822647,-16.60689420596644,-4.073356010388398,-3.180694525880245,-16.99707417871329,-15.993751071909884,-2.5496937436996454,-7.1928288738906865,-17.261805089576317,-9.141631455686682,0.1369219000306643,0.376075522323438,5.299514276909729,9.099480115525166,0.957882876356134,-4.688460127893245,2.998220512174303,10.955331044699184,5.693024265637989,-8.608560717889189,-15.784732811571876,-7.874128168752803,0.6329320542877799,-5.381913389429895,-14.274719286698819,-9.933790506283358,-1.7993975878127877,-4.07039590361793,-11.633971964596112,-13.656323999449569,-9.121190047147046,-6.667659930295919,-11.123294958369222,-10.45898156352335,0.18600154775663924,0.8785748105117186,-10.7292780134093,-9.58761339703243,1.5894069674906603,-0.3896074325716583,-5.626075575791441,3.3626229720939427,10.369942329547628,0.9366876202409653,-10.15948242028215,-10.814520587213567,-7.162267478433255,-4.035718900313336,-0.40225347843935566,1.7972566529639113,0.7334059095527676,-0.5555284997217074,0.6178394252060633,0.8022581857982747,-4.889634799558126,-11.461395130707704,-7.866727446711781,2.7664612784778737,5.237747229803162,-0.49036244833187537,-1.0604951136493095,1.7327820288111466,-2.882518348923166,-9.262279428078283,-7.312949950501542,-1.0998057649402697,2.137176718185695,-0.7151297700790176,-7.885421363982549,-6.463091771084956,8.587400724074133,17.129627910552045,6.609195310536002,-6.628400948850217,-9.961390952583216,-9.289733348274781,-7.879837767225263,-6.363864676406106,-9.151448158949888,-9.20138010812275,1.9829144957282159,9.703510639139843,3.6565465021231183,0.5884741338437438,3.670516967498047,-3.4285224732631105,-13.571751465375465,-11.339888916800057,-4.179552302144823,-0.3900349649163317,-0.5902117659522279,-7.135722751904828,-15.761450008481614,-22.877524951596335,-23.19745531257551,0.17105871034927045,33.59927384676567,37.57401432947499,20.700212165269285,10.579593179743584,-3.1085408708824662,-22.06169841436273,-37.35304709761856,-52.887309545376056,-53.067753329610525,-45.58046431959826,-56.28064180283891,-53.81270568201751,-50.742626571637885,-94.653747454911,-115.8147858398741,-36.577214882016676,263.6174822413784,852.7658301805183,1044.9594697884443,110.42294437800116,-968.9232139681483,-821.3184693045515,-122.27221348535299,-29.727170273861333,-133.21403710755808,33.211590601347915,76.12004764908549,-14.680043775344263,38.79569428205104,77.30018460224693,20.146419163027222,21.755152574040853,39.109169080307204,9.389914663338265,4.971446948831495,16.50156358627857,1.4549516841661392,-9.084728031808826,-6.369802338837985,-10.317548669502294,-16.1123697482263,-20.46512237872328,-26.39812049106576,-26.636895874456094,-21.052869390639255,-17.157572224658274,-11.280127985220247,-0.47121103828801836,6.240591730148527,9.093410367891057,20.05116368578686,40.212794758781186,60.87029294932076,75.67638728047389,84.64657368504213,93.61515695437038,97.28416482647917,80.39370539270944,49.0568393782664,19.162965253428993,-15.779677450179598,-57.49122860612008,-81.49183882225752,-77.35449762767905,-65.24997748488448,-59.060345485128714,-50.72946544497523,-34.83963738477709,-21.32524083194785,-17.32848258334989,-16.14934790422829,-10.713340745279922,-2.667746232124024,1.5272251915300536,-2.0531307551379836,-5.056901034042944,1.1322101982709718,2.647076200591167,-10.600661289582009,-14.464333450416483,4.906984089546214,18.267321234284594,6.45289784097505,-7.8599479173542415,-5.101297399523547,0.25043814917302853,-9.479117077763453,-16.652078896986147,3.2783890784238627,23.43188382357016,6.9783058553349875,-16.416151861526068,-10.552353583295687,-2.9379134340962985,-12.109708181491829,-12.112239132455976,-4.347015467646967,-10.2710851157814,-16.356942509384275,-7.270799318804039,3.369725947286451,2.593883703914578,-8.989670724760698,-19.500278425034693,-13.08023369319044,3.032514703043547,7.1741408739617025,-0.9345321275827096,-8.672348692808082,-9.407446457388314,-1.0950480163739913,6.266736415696692,1.5316039726967805,-6.341263360453771,-7.132676588886611,-2.5716282310338765,5.752608746688605,9.671514148702293,3.347807658944155,0.6987636017503167,4.165044513516637,-1.122203781709639,-7.514927312699931,-3.6618303386139885,-3.133643573184502,-11.002038811919995,-16.64232035387808,-15.896396560177626,-6.8778457525749275,-0.6556956318383929,-13.270426182849608,-22.34423728868801,-5.441962325381738,5.948815466979272,-6.597426372554841,-10.013297111862975,4.729499367364527,9.071678020878538,-2.1837136960412638,-9.388714483400687,-3.3629205558736963,5.25066662691953,1.6982957874264857,-7.264435118213871,-5.31560364265116,-0.9416900186007986,-6.424529532420279,-7.941877935861802,2.1443550842325023,6.772414389442826,-1.171411647622902,-11.04970813479286,-15.953506999878982,-12.380146529390831,-5.932140496598894,-11.387710631793295,-12.348820082798433,17.669682222679278,43.485966477548786,28.632057336003825,9.351780586572424,4.148615089627539,-11.590638949628643,-27.478798648623474,-39.437141704996435,-58.526454947425165,-57.78284443895759,-46.31016561996365,-52.37175452814092,-50.79634317872878,-57.54036438032376,-82.61077424450475,-61.67887098630449,67.53548854060139,477.022217861161,1036.0369604416712,808.9942762524003,-439.5153566357132,-1180.1680454335774,-620.429680614013,-30.933932941400357,-91.20927023623477,-76.53460726070536,113.430568566323,72.87791343118312,11.633413675690827,76.60045526899127,59.66673445353095,14.293516182915356,39.44855355125003,32.03034741776667,0.7097700808226381,8.989187362473618,11.689220458712146,-3.2104225662720225,-12.313899815898058,-26.54007180877505,-33.54190552303282,-20.906108780906123,-18.374933144611255,-34.74301656075954,-39.93586893869426,-24.259083096139307,-12.53661598975356,-16.32257074081585,-13.738463772277477,6.285146488742345,27.019078453231913,44.86047320695411,68.0144637974114,87.59566474781951,100.69099644057934,116.31481485963788,120.52215363959925,96.59526207049353,59.110227132045516,22.752902918096012,-15.274057916300395,-48.46865213256514,-65.56016832154125,-71.36261963885525,-74.37634748182974,-72.04435404779994,-61.764723026779066,-51.8442753553293,-47.15358168203973,-38.28432293551429,-23.28710848147849,-13.037637854125421,-6.471280823200537,0.25386817960152186,-1.2873014329611188,-6.261324251460197,-1.875342321064661,1.0396487761322941,-6.959470929554552,-10.430092830261929,-1.8715941497170085,7.670772193893246,11.308956720263463,7.911547945775994,1.5966444938825237,3.492715129256128,11.152074961075467,8.249540781220642,-2.7339816297139468,-4.66653575004753,-0.20687953325436315,-1.2346664786534385,-2.1168320342825417,0.619138726304822,-5.009140844153013,-16.47292431110104,-16.6773546502653,-10.227276227104925,-12.98385699197636,-16.14574416440557,-6.269690305964967,2.461229418460217,-3.781682785413391,-10.65725611572348,-4.808133189027219,4.874210347011087,6.3392450334838415,-1.94524364753166,-9.705424375917712,-4.053000777438099,7.866934247231351,8.366784400419599,0.7904362158293505,-3.2194022439217136,-8.886789694864468,-22.232811522623457,-33.010080418448595,-30.2113636548319,-16.870531112842627,3.8770436244076807,32.316500016608444,47.00957819063759,29.770692938435857,7.481940469831095,-1.329364608565636,-15.251066135422459,-31.715600636480374,-41.431189283808955,-50.509473444519685,-48.556795335100944,-46.045689826726296,-55.05328595514085,-45.987801168334826,-45.07677031599042,-75.22485963702074,-61.302420296040964,51.03597085035571,398.18338192401154,952.6550106943452,891.2174611474236,-257.65888152012235,-1176.7685182845014,-771.9385214157273,-82.4696741112418,-51.46340594872895,-80.5019543754499,109.67165526375862,104.18065904262147,21.78807214550552,82.01086381232435,87.2312038015546,28.754262737977268,43.71232263772356,51.64901977122425,16.857488343771408,8.512061092459643,4.717671193359256,-13.910621991915558,-15.790513725521665,-11.97486698242926,-20.743420527438815,-28.94376178394896,-33.69018874304176,-41.373063215749696,-42.93483011969363,-31.204683160604688,-21.51386306280227,-23.68346108645851,-15.108218888239294,18.547742995838693,51.61589318539244,65.99266251737505,81.04123170987351,108.53139107144621,128.17662478420453,125.31510509137122,109.55581605021095,86.21807518959062,48.44585017798863,2.0465154016322114,-36.86777515754452,-64.79226458244233,-82.72129338022532,-82.66444771746114,-67.81838939690213,-57.68150303587406,-53.0047061952093,-36.746337714931556,-17.028989474154137,-13.62301375416645,-15.85936575329671,-11.340957065067656,-12.422468871705444,-16.832202834021157,-10.061450319617261,-4.037456044145497,-7.426114963338549,-5.256780169569813,-0.10095453525035225,-2.1570529576587845,1.465013691810439,10.261248308835944,6.105205644663409,-1.2984773127483908,3.2391356749366547,6.365284769745841,0.8329606626160011,-2.0998594907369226,-2.1086637992805146,-4.477695560956233,-5.144906675020439,-3.576693042399297,-5.31641252107849,-7.999236653413405,-5.568791993795282,-4.129842566660852,-10.804046312335508,-12.613432980623704,-0.6199148984479166,4.644318238167016,-6.572073696338,-11.138971649787273,-2.1746292961784714,2.23418229779889,1.4131748384226022,1.4570961050971603,-5.064977050345048,-10.384704405376329,-1.0019810689409647,3.584451432547505,-10.797826185844158,-15.790639651343053,-0.09195913197333905,4.946548300047544,-7.160982332859775,-8.427885223733274,2.8852832867073284,4.173288107865724,-5.89055482124216,-9.326083334974001,-1.2778132511274456,3.921156192940118,-0.31074972634333076,-3.0392656613212377,-1.5471665959259804,-3.171660286079576,-6.272754255400439,-9.253682626639039,-10.050058089189916,1.173045570875191,13.962787355398628,7.89185703539832,-2.394492255014469,0.9181409552929489,3.0952089838504993,-0.5371798088101865,2.5456140511532697,7.5027272171367985,6.297516072778707,-1.3463172068386635,-14.256878459593443,-15.395926848371728,-0.07421999336355611,0.022720394538442434,-18.350346523784623,-20.289023206343433,-9.49129351145164,-11.494974904649354,-18.407295936058382,-16.765429654532387,-1.728181537542188,27.64397257627748,46.947434187165555,38.624483993945795,16.48498938828417,-12.225433369947545,-35.718411525976514,-37.67761511422266,-36.48166704054745,-41.102959709057025,-44.961496135582266,-61.663553822886044,-66.72791554131484,-50.09917281126582,-70.83566667585967,-107.0572782579107,-69.38397836148589,174.43516475872053,749.0697503887603,1111.804686230986,374.77869471664576,-840.0646045080924,-970.117513834015,-254.67745706869349,-20.977533878169382,-148.91432540440087,-3.10646975705896,100.6533968245809,-7.683191690536852,5.410857047978993,80.38925076331128,44.98542720764658,22.47861369246535,36.75620303839577,21.91244119718973,19.596306540718643,22.79641625015298,0.29641199354418424,-9.808517804001212,-6.570287152174045,-14.421456206197576,-17.47240883206488,-15.352341756631578,-22.426277284221502,-27.72537428645034,-23.94336969520872,-17.85612536607482,-12.29173316362284,-9.723435998165968,-6.753945910762219,7.457896472019071,29.17221850201509,45.132621611957056,56.645147730602346,69.86562841998153,82.2649963064305,92.45882524167277,97.64340681078573,86.99706063854222,55.235657239434694,10.318607492248352,-31.0488345451193,-53.9099223863642,-61.93324175005847,-66.18143997396078,-62.77332998694704,-52.755467596890846,-49.243606851230666,-45.82566107985994,-31.397687309003967,-18.918379662849258,-13.515670666303404,-4.604060178304094,0.38275021893637806,-3.4210973106757887,-1.045034311308859,1.7311445254586229,-9.102663578654104,-12.733135723904493,3.9038638268693884,14.815303039803368,8.082907847657362,-2.5303627878195094,-11.07258683607471,-9.797414636654867,4.379050868737778,8.077440640342708,-4.37342249678221,-5.9354960389074165,1.3846090539046134,-5.4185053965098895,-15.22248288362239,-12.539255372761113,-8.987622454644645,-9.602634507702465,-8.655723599793522,-9.658954198607624,-12.25037551949623,-9.436040485504554,-2.9169617921700324,1.3053224284074165,1.0576978497483793,-2.3152710952093596,-4.981487151156964,-5.203608893192373,-4.185307276907178,-4.093475378519223,-6.566450116404924,-6.35515014157915,0.5487231698755171,4.378131492488729,1.3661501034099102,1.9522813774179966,2.6830570438898196,-4.942006625204889,-7.130919973366292,2.0517659521164484,2.559577006384192,-8.922490582421204,-12.998852606225224,-6.483381840520746,0.13719182074269654,3.1819947193228164,0.6205714482294464,-5.953976709921529,-8.37790944116648,-6.8669907686431015,-4.7194056654001475,4.163481903796382,13.218913604227694,3.7414535285995694,-11.364052074669518,-3.886414307357615,10.190188502032786,2.482298386968303,-8.48361712302869,-3.506485934597894,-4.291641689565488,-15.85142970354546,-10.88923287064591,8.031217031831453,12.159566700032475,0.980991730213022,-8.093185702872857,-12.284766113258197,-10.109576402697478,3.62799761509204,14.329042272222264,2.844620899695162,-14.327695558815703,-7.442586709715135,10.852422386683061,5.338952118002556,-17.016352746117796,-20.821231006354626,-8.399928331683729,-10.47894346030777,-25.599381899797798,-23.77588495060496,5.490126289871174,38.95252140475781,44.85429868402002,22.910623506970797,2.0143908162213178,-8.199445046192716,-18.083654440426358,-31.34747270831978,-47.503583418062064,-53.208766576185084,-49.02768683721144,-60.72311251463115,-61.18207004232943,-35.753076863214204,-55.27887649143015,-95.65007688387502,-58.824402854633846,131.54470706601978,631.9840413596772,1105.225523247533,582.0731427081039,-712.5656830535243,-1123.205892497941,-413.53409433874947,1.507790085518998,-121.55506162486896,-31.562581695921047,123.07272484374904,33.44983435949942,10.690412438963456,87.10612529381197,47.28739051941831,8.079683058332478,42.72864452496824,36.66182914430621,10.565111677399232,12.218341937366938,3.0448787687312056,-8.53257565970296,-4.500752044648712,-9.848454324532526,-21.01710559335961,-17.913375326756448,-10.092049552214249,-12.92238397255305,-21.26773832243645,-19.01514306125034,-8.526013979387656,-8.615637582347542,-13.704408515444012,-1.7405852740301881,23.917609847787684,49.24035558506867,71.44151652848339,82.4224703683918,79.56698194828878,81.81685116405586,94.29884493321748,92.14244819490844,59.20711065024186,9.584170683755106,-31.576329273087804,-53.76982131417479,-65.0129103502704,-70.58904087009306,-68.78150236227664,-66.71844755461774,-66.13386989307638,-52.38581162987745,-27.965201958581453,-16.149025415751225,-18.148082132447797,-14.65080004510293,-4.3720593692783645,-2.6582862618369205,-12.58027879637093,-17.536555174863434,-4.6449852771842775,11.676999110930868,12.283128703952983,5.9402735256344315,3.2979686932942087,-3.2467694874322692,-6.696242579407642,2.419187462891811,1.5726042646092306,-13.292974105242179,-6.13569032951257,17.37826372388416,11.044474295460587,-15.659593089813189,-18.09877666091749,-4.8209207622020305,-5.98563548407386,-9.712820130188078,-2.1514873990428,-3.3104603792092266,-16.9912819390727,-16.325250703987162,-1.31747561427394,1.680605587624008,-4.6050302397304925,-1.7868899784468084,1.6706311611806406,-5.519415207574232,-12.014247918585811,-9.517649264220987,-3.602955516317218,0.7428113455041254,-0.07891062390249548,-4.718475957838422,-3.190052159521052,4.539332338000082,5.348359267355762,-1.8507987694041166,-4.844218332300134,-1.6479890680455318,-1.0821858113489196,-4.287904662515617,-4.60077243050756,-3.1976630713977334,-5.395216572796821,-4.530374627252223,3.658185779388428,4.004606574478842,-8.133927527320907,-11.792870136035974,-2.1085596145506083,0.8978665147997296,-5.343693438145678,-5.34358297000181,1.0511362984592596,2.6039054849422323,-0.3846025325274134,0.7912323635625795,4.736943569374525,1.6418275875214388,-5.598948094337944,-6.311683176821594,-4.882727321199811,-7.899637637665201,-10.514154751559229,-14.667573860806916,-19.455016520376304,-9.799256230332812,2.554594251094139,-9.478764964940588,-18.670908588976573,12.388716558779803,46.175591557723145,41.24968496984704,23.18627568815662,5.526801390479925,-24.4548800782813,-41.183461862254624,-37.67886387747715,-42.625678442779815,-41.59379276596708,-35.75152080198751,-54.1275200334984,-59.05676587712108,-49.64523802112299,-73.45006363186471,-77.66695866548213,-1.5696872769872243,281.8976893278005,856.420967302049,1026.0677775439929,53.140343766249345,-1048.7644933009044,-884.8463221369547,-153.65302414609585,-35.47239847492891,-118.85151771955904,58.395838782370625,97.89013667976839,-0.10639205874137403,52.43508301853433,92.28642878040537,30.80410497279665,23.477593342785365,36.4762600898692,8.916369000363684,5.378750329908074,16.702832978124945,5.125791325970589,-5.227948122023171,-9.3233594789356,-16.334799602883955,-17.259570472175454,-16.426514234963115,-21.96569833066681,-26.19542664275412,-24.737237872360858,-24.794620266788108,-27.908049044621126,-23.081521212320204,-5.431598692725252,17.12163086120131,37.91851365418386,52.60085382570944,62.58543169116177,79.04184266703658,99.5224317632194,107.37649812324594,99.19847932212097,76.66769318123892,38.655261261702854,-1.9829807537668822,-31.91068561914325,-50.50974028842986,-56.56357441598684,-56.534124693381244,-61.460249114484775,-60.61415197109442,-45.07333187593406,-32.73327831809368,-31.256396720636026,-25.740831393649152,-13.34620295929944,-5.475665153576269,-4.996478152455893,-3.8884656888601956,1.3397478962290457,2.1504678318889585,-2.5415997474709737,-0.4633437788616632,5.636531295530743,4.298039764582628,2.177776984338398,1.6910684488727252,-6.0700348743793855,-9.733099420412659,1.331042995257985,9.322934761288781,5.474983449211376,1.2055361062786796,-3.070764817294278,-7.838431087256664,-4.944991841506947,-0.8641131094155856,-4.618031429386232,-7.246074418149476,-4.813297356432701,-4.97481083159545,-6.390836585632348,-5.678112292542973,-6.416280239025119,-7.829802529196227,-7.824956397301081,-7.940097238536184,-5.339757225322288,0.01900281774372381,1.3976218884909226,1.293242247604537,4.257045919442696,1.2029261075724484,-9.22005492088384,-12.36979383238569,-8.262649898764503,-8.838403420110357,-7.685564752501443,3.347747781737625,7.960235441856147,-4.537990953740399,-12.733031960759831,-0.4888500249236136,12.953534233744037,9.614157172092057,0.9967910138529605,-3.1243933652786184,-9.382642525983504,-14.662950779020939,-10.925124887434123,-5.9101982617779525,-4.542537039771721,-0.2855963654594129,2.0702482849868487,-3.845865463314004,-6.1506682521505756,-0.20072616229214368,1.1536364378234136,-1.9579798318906114,-2.5556025525167865,-8.666464563357675,-16.757380129570738,-8.210625665714582,7.638539963755299,8.211417510701956,1.7888011823515129,2.3860965419241236,2.0459879179654186,-2.8720770575733106,-3.775548649800534,-0.35492598905837536,-1.5390174757964363,-10.823902084563175,-15.837075472593217,-5.18172343547972,4.938362703812022,-2.7854831784964427,-13.156360768948286,-13.362002234500952,-12.244718060940254,-2.1350543544299327,27.415085293933767,48.70094942910691,38.40306891740954,14.8535716134679,-4.848406878054099,-18.041589765660998,-24.150761362442637,-36.96537368626969,-49.07636265424438,-41.49992792832063,-49.30862598284293,-69.60925153386108,-47.94216678096206,-45.784455392574735,-103.75056949044175,-105.88256377317587,26.990761516675377,413.55702425046616,974.9705238274272,869.5085317309831,-275.58994286865493,-1090.9701949451608,-631.5414600524484,-26.20481807343827,-81.70647688355966,-113.62624192069195,84.34125140558939,65.4400963505463,-20.236478467748665,48.23214480206424,66.63831867730866,20.488012309612717,35.33861250435024,43.85895205375451,20.13915456664858,15.135446026392092,6.307406235484994,-10.60920922974043,-8.518779687348601,-1.0066905621497195,-2.915156663801259,-15.412546422781842,-33.92303088807968,-37.69136670879371,-27.87755551193235,-27.599578011805832,-30.41116067136256,-21.532477643013422,-9.279146238278514,6.596662535390324,29.75517893288248,42.54013072756676,47.243441124244,69.07653622968363,92.84216827472949,89.48382493297771,80.38837443485336,85.97478418507563,78.32026780513358,40.90032268554607,-2.5018079620800355,-29.80398577651564,-40.18218498097411,-47.83739015713122,-62.118492259518305,-65.60224398731124,-47.503251139808945,-34.09946711440593,-35.73850831979814,-27.673826304905425,-13.992483889895048,-17.133197464928546,-17.79345389891792,-2.2644084174959502,-0.5691234820415687,-10.446166648774238,1.4339430763368028,14.216734784182023,-1.363208143657097,-11.890960243710824,3.194839184180366,11.439129984419003,2.8646280594102365,-2.270641970385487,-1.7876222223263039,-2.4375684608547807,-7.067303791243461,-15.765059457942833,-14.016477897190114,1.1540149943959133,2.692626577050202,-11.789878205911313,-10.932963299221374,1.6194233921760173,-2.170694479428665,-10.527960850428066,-4.444012779078447,-2.6523017541275067,-12.717908061710876,-10.970352635311716,4.374977526376584,10.073905772280582,-0.05813852977712308,-9.808727244091411,-3.381621243988036,7.3024175988735704,-5.910438553646104,-27.711557316489483,-15.691263370869647,11.443302254758134,1.5980565991440105,-28.683917679281773,-24.386390339271326,6.950183662399857,13.927091799728716,-8.364580836429978,-19.774997630986668,-6.398334033198618,7.6255026907955035,4.433289211547181,-8.018421546866929,-12.710809815677514,-6.440667879267401,1.3591892131459922,4.073613643141833,-4.162851128200742,-17.656920262138332,-11.519521329920849,10.079779547981824,12.586221363732248,-0.13541845076958836,-5.435812398656091,-10.367989580127748,-12.943802894176626,-5.218497261699445,-7.1447672553758945,-17.0517458241765,-9.028954746039764,4.061704249259525,-0.796872340205157,-11.998839814570648,-16.540929671741782,-15.704319841039705,-5.276561452676733,22.01683724348809,52.21936805534775,45.53978960662306,-3.7396482198783927,-34.001044391505395,-16.96540315744484,-14.749048172237533,-51.007183594414116,-61.867099074736196,-45.24332523787751,-55.478061079340534,-60.528558633436205,-46.820036896334415,-72.55271014625525,-80.73868417346793,-12.945486164325203,151.32095121696307,616.4038579831871,1092.9967641907565,568.2355994256386,-753.0957300942534,-1173.6873657714827,-447.8819722499835,-12.731213122841766,-114.89245457285755,-8.747801354535582,141.64810944823833,34.0510997902571,2.441853556610816,87.9820562139137,62.050657961118716,20.144557326560047,37.2967942718182,25.8430042388154,8.922442360829814,9.846576863892562,-4.860362134813437,-7.173738964655708,3.2044737668513914,-17.571012194640286,-47.32071142767571,-48.42192094837084,-31.149566576700106,-16.81612405009011,-23.29894137134906,-44.990991282724245,-41.48952141995188,-6.190365668852245,16.844270801963056,18.984619231776595,36.56711371017528,71.95523301847703,94.12333167124532,97.74384118099219,100.24343615732361,107.20345882470222,106.69648547953423,84.08373351279268,43.12978995888192,2.570353146619339,-31.501647640146174,-62.28818904592947,-83.43239539452688,-87.25755021329896,-74.15482649736035,-57.48438753744569,-55.88457962076512,-55.55425759516764,-30.815213544178512,-10.89319206289494,-26.135874103865362,-33.86867787388257,-8.77596832888355,3.840138693568843,-8.042643356160589,-10.174801002267895,-4.382637718185901,-3.179741791965263,4.635555857950848,8.600788442748149,-5.085092164354013,-9.334526503621856,6.383348220621769,7.665361790197701,-7.5095108256202225,-3.491010153836454,11.801852886926557,4.911482520938065,-10.594336818174465,-6.862751298556443,5.455056790519313,8.36051820961998,3.4145094575738915,-3.5909404393779276,-8.93672289197027,-11.478380382721522,-10.345605238107,-3.7647136536965675,-2.786580406078052,-14.868810724708045,-18.87045315882079,-5.684252140073443,1.2421854196110296,-2.2092222494394615,-2.6970955673232524,-7.306269791784963,-14.713938464954055,-9.778550707053235,-3.816030459310305,-7.653885372448858,-4.051684992711833,7.342466323997161,5.3460774911085664,-7.754952728624213,-13.670882986644946,-11.097294828953475,-10.29264385703577,-10.84169939060324,-4.823757266532983,1.2724117072628687,-2.298797956836835,-4.204185907416992,2.237235831517541,3.3295616972144497,-2.702591208471002,-7.365074405081166,-8.13141562943012,-0.12916143968555627,4.7754239684716175,-8.751605361986732,-11.800296474872544,10.897167513113398,18.505695432021106,7.21547329413732,9.05793853852639,4.462419009614868,-20.064096634090646,-26.887199266028183,-11.945395750562039,-3.5392644323077356,-2.0615144064737905,-4.537026620655891,-11.751895383757265,-7.911887879227338,4.080854361455652,0.33831993094324986,-13.43454709828167,-16.721667019973232,-20.820740882332196,-31.43022604185021,-9.238027070498193,49.60626848756692,72.0474254736463,30.556334699279304,-12.319479989219609,-22.275695680713312,-25.947063850616686,-42.62725101739073,-61.82079157488374,-66.51562836214059,-64.37694321690493,-61.90634365247812,-49.12476907134082,-57.62570599608878,-89.38518211258896,-76.10061655791937,26.398638103339778,382.66533278509723,981.3120011571947,966.465341140643,-172.04365117938715,-1114.0597828869977,-739.4913130235855,-80.74676280380568,-70.95351198882472,-99.43180410237449,79.02200031841363,42.59496221343732,-26.14623957257038,75.98847712437896,71.85013783623468,-5.151628007883339,39.84614106842656,56.433663884109485,-11.94303773756704,-13.708447095707673,23.72349836852633,10.458149429252042,-10.530944158383381,-8.802786793052057,-11.856637564773319,-25.2388651437385,-36.43482050295209,-37.75082200976878,-33.68309331342508,-31.59520450951658,-22.290584206424583,-8.83533234968788,-10.230857159127297,-4.867928966870478,28.94993522402482,44.50251099475735,28.12358317473282,50.281449879607564,109.4846428189624,123.95828672903835,102.29328213524417,98.98592069504919,85.27169116011846,36.26074123912803,-8.226561457098434,-33.44271283442735,-53.90640093637042,-67.19769518399099,-77.36596210230466,-86.36786069462862,-75.38845588827797,-48.92816125587027,-34.622709393533185,-30.903063986314585,-20.22922147166977,-10.560964787813731,-13.521276011341303,-14.729188370928746,-3.850507137282765,3.997279763800993,3.490536483503904,6.4468726259267255,7.076258989887599,-4.006339847351434,-10.480986876151368,-1.6939863978619467,5.224670571300269,0.6530019857397917,-1.6281993788070146,5.401877594996412,8.569276580432433,-0.060110194577397635,-7.550272833464771,-3.9648589159167074,0.2048325217475,-1.1915979639515388,0.6348739028640473,0.3082306898751863,-12.255701740594676,-17.58495079040062,-6.6136427756015195,-9.784865511001474,-24.996258110370018,-12.936757831180133,9.889363227452314,1.962272852150802,-13.473263327490736,-5.908121057518594,1.9998034707080592,-3.7422816047539733,-8.25691432293941,-11.63310047529259,-15.509675345666082,-7.605777817807192,3.262555924577578,-4.9879036972729445,-19.93880680229954,-13.197942186299446,5.211562605359854,5.725388301553709,-7.6410836966690905,-13.089479695927793,-12.8598862816479,-16.20696612583191,-13.137664579793364,0.46951401056496067,5.593368801696666,-5.676679636140717,-12.360495256434518,-2.0969596452506334,7.5314039695565445,2.7620685867383976,-3.4690679777692504,1.6431224121844434,5.983028102368899,-4.848399793078916,-16.150492887119526,-9.862810475376465,-3.6957892462919757,-14.687725262584859,-18.711283736549753,4.191375639983092,34.426437000924935,47.7545879243996,40.218251226531976,19.550917159396,-3.7164591449083497,-19.969596285911845,-28.43568157242143,-38.500492056645854,-44.38998338920358,-41.536800712046784,-57.21885115108708,-70.43758875742591,-39.26813839419255,-41.5334868127368,-105.18061144814939,-97.20793972519678,64.39363686441447,489.1990686201881,1061.8279745276552,894.5178724146213,-358.33885619889713,-1225.0229830947753,-724.3522347038586,-59.20606909410574,-81.27258352061962,-85.84669173805314,124.27667564547947,90.85067041382429,-1.7432797486077156,71.31669511427795,80.8869912585471,28.565237621123796,45.458803229392274,39.87827734229259,7.2654747163077715,21.57924218284597,21.929395592788122,-11.934565629365254,-18.4151955854663,-4.737057968857948,-1.7066342460888402,-9.101046581622057,-24.302505448530866,-28.17038597283019,-12.9460087339628,-12.234546732526878,-28.653950079926553,-17.491339419311988,22.119998965240697,43.69936074352128,39.71226876410264,43.84369196732979,68.2352918071065,95.78410032533262,110.84116269920678,110.4512947043086,100.38294858330168,87.61320153648845,71.0122270646386,39.47311676719327,-10.09408156298614,-54.68077029206814,-71.77739726160736,-73.14969936725424,-75.4873344865911,-69.99046618497937,-53.69324800690206,-41.98817121750311,-34.899988812061615,-19.77337950761746,-4.1958440338426755,-5.975156452186557,-18.484001358832742,-18.38980133403857,-3.3290830661964437,7.962803215479872,8.459483144705938,6.701283347178041,7.32325425644197,9.325332323052107,11.343194773142951,12.477308964246891,14.73093316350631,15.59894870971021,8.059572116412923,1.2892315106046306,8.318503265605038,12.83989555635339,-0.6332153500051558,-10.62603354086938,-2.6002854177130876,4.66089561228948,1.7058557564774297,-3.477651059398748,-10.13809663565789,-15.01718079850238,-9.986277625988397,-0.8475761053058379,1.180601782293694,-2.688678426964632,-3.2404825028395456,1.9839358699535996,4.24536187794684,0.8694156230129058,-0.29824420919785233,-3.5658170553514257,-12.549904591538542,-8.468761293483118,6.129234142228192,2.141695517235328,-1.9152157439857778,29.488635303967275,57.3994730429118,37.147045806119124,0.09116192096016551,-22.342801575445215,-34.576699848715116,-38.377430843111256,-45.27664871860341,-53.9948670526485,-49.102223154292886,-54.292963096856695,-58.405113131919165,-30.176997378195054,-40.71998151760244,-89.73041935946915,-58.81513605444015,89.81666721079381,480.4889621523427,1008.8208718337534,789.563946174868,-427.2946584528025,-1171.916925300738,-648.865702479339,-63.227637484808504,-88.55618243899644,-52.618435596827645,128.28171488013442,65.77607253992396,-0.5911343672638587,93.79751773697092,97.65358775841213,32.211680661520106,42.18092888589085,43.75186417511496,10.586786640266842,6.463085881184645,0.2166924294992416,-19.765348242391315,-12.995029961371763,-6.738814691162611,-31.41295424973479,-44.885539918837615,-29.211164976007296,-23.14935526118574,-31.626389317831826,-29.2460117263744,-20.31090281456601,-7.422744921622481,19.36966182664917,41.201715133421445,47.48505277797867,63.78922102283551,94.36941589095909,117.89323599387397,128.9245677262732,128.64826643919312,113.8097133143247,82.90907231158624,38.50466281759191,-5.587355492631107,-42.773413354613275,-79.43379984617118,-99.07186577171537,-88.6987874959838,-75.70984458626552,-70.4863686271306,-58.20162489709972,-48.585311946581854,-37.57008252913745,-7.259772253405622,9.09593325678821,-8.588109624320115,-16.237475564149747,-5.043481825613499,-7.7860802288108335,-12.425479767474574,-0.45545206299465235,5.774758173016089,-0.8990363698589654,-0.0664444122417649,4.741103165348806,-5.407164139848888,-14.177393054474024,4.970662061005621,25.353173341100863,12.987417169955263,-4.403599205633648,-2.8956386421828713,-5.350523715138195,-11.830601750443995,-6.595633375677,-6.478374969427293,-14.631740637235083,-12.400270951902044,-8.113225357291414,-8.625395125215352,-1.8097573476552657,2.532891438962496,-4.4101294873602574,-3.654356045397426,4.0193278692791035,-0.6278792201246581,-7.34175302332689,-5.59872067796238,-14.126880831559072,-27.2933220283386,-12.164383265186055,15.312308745713466,14.842217986950981,8.351823333030335,24.168624444244983,27.716875020311264,6.846780472943427,-5.803201896385747,-16.75868599819892,-36.85330464621073,-44.161359918561615,-40.7717836213622,-35.561844326223365,-34.691661847017514,-53.39298923120713,-58.537352053868084,-45.268731262284376,-68.33963631612978,-79.93808454827403,-5.300296281915223,245.48000913837873,792.1553308771056,1082.365223690703,236.42363551863454,-1013.8989639381243,-1052.3817469868575,-243.4270698397615,3.9217272375254453,-128.52689349751398,25.993694404084675,135.09065727654465,34.80681598733028,42.25323937919543,87.01913930738453,39.47235132743618,34.60973763567331,54.63417671711264,21.825636333562542,4.065714010273227,10.183312413539008,-0.6140446230665886,-8.453092379104644,-13.603226439050168,-28.155543091811204,-30.06454036917523,-20.28735036439809,-23.022453945655716,-32.14105056002572,-25.225767784220146,-10.12769940431242,-10.902398040670104,-15.42653453714695,3.607866003086304,34.195597902472905,54.35057542522104,69.43770552335738,87.11953718836817,107.12505518379294,127.27618755813702,135.23340501504927,118.60906985637968,74.34596457412529,9.791377310426352,-46.1382446640137,-71.37192008245965,-81.90164154406189,-88.36392000970764,-80.81479447486478,-71.03779742324448,-64.90934794162173,-41.5982254093542,-17.090145018420486,-21.603808344058766,-27.421623838000443,-11.570094003554027,-1.9465388216257686,-4.376731292398613,-2.26725713720797,-4.1890307297199705,-9.71160775760976,-4.746949515540184,2.8616179604123957,8.249053787281678,14.70569833458052,8.90887454921535,-7.7636766428881465,-13.822253784368439,-7.87879993782099,3.0883160172736304,14.18992223935816,8.81583597528995,-9.31976820642606,-16.43706814174909,-17.678612799497216,-23.99243844009379,-22.102015292319976,-11.521682638861918,-3.128795916926647,4.1557295763563715,2.940303463282529,-11.5810224757669,-21.23484254358443,-18.851606220599404,-16.639031422247207,-20.23561252812449,-26.2442955704269,-16.879409138553612,21.09026142143003,52.564306308676805,42.19503257263696,20.31438121281548,13.221614137511182,-4.0462621827157506,-29.16532323399825,-37.02343137475774,-40.311715241012784,-41.98752672843357,-38.23246660580516,-51.26517636408768,-54.88672665233069,-39.288635861289066,-67.39248690469381,-87.47976481455132,-6.597133655261246,203.05175801685294,666.869745669745,1056.0637467546933,448.59618901653533,-866.7767277459961,-1236.166367994962,-479.29095996181775,-18.183760821796298,-88.51921225619839,19.838565752548803,156.1514595416342,64.53569116974528,51.71444832293664,113.3816774026964,59.687241671549934,31.536754009389828,65.74279122999019,36.08828544430051,-1.6606260417563172,1.8831884047149066,-11.343211342857245,-23.523786762744777,-13.55932179909874,-17.97192455029833,-27.55728306705732,-25.38485007240563,-31.797099017074224,-39.49272972396991,-28.56773994570444,-9.616335770881836,6.300804907712102,17.35409559840625,21.390085363356892,28.793070905138144,50.95180529259514,82.01786502857013,110.35645707163634,129.05687338928604,136.5651882959262,131.06711905841996,101.99867555502601,47.03252518560036,-10.756010118714917,-50.45664790780194,-77.22000235943615,-95.68809233514729,-92.75451523911826,-72.81187768688804,-66.29238983920438,-73.29815854036188,-60.52631056382533,-31.186805865112525,-16.982721606349877,-15.383362140602646,-9.98554055073864,-4.332351745652318,0.026241414353375347,3.482765244117509,0.6404916293625824,-3.943530416736511,-6.589981265110154,-6.25887966558969,10.578626183242147,35.73566946423445,34.870074242456795,10.337743020869345,-6.138320657970297,-10.422504940616118,-13.268157435920656,-14.16091694433311,-10.351575311997431,-2.68675763661396,-1.5490698626243802,-12.913364708380977,-15.567006939248369,-1.3492446648131349,-1.2811444640398193,-21.317640922064765,-27.549305886744605,-15.724254297849743,-11.880727175030543,-18.060730448999227,-15.80834647149177,4.017713551301519,31.242235439743787,40.29144409128996,22.319768015844485,0.24758213990392974,-12.378985245803802,-21.340774508606724,-25.11171438908706,-28.85435084129874,-36.89906662734391,-37.99265674529998,-44.84661830253664,-54.448893753031705,-32.229677050733656,-25.134415347520868,-63.458687866980625,-54.51569334029266,48.51296423543616,353.2887616086184,888.1867706296001,909.4382469713607,-173.9828747606,-1197.3950584937254,-910.4586518705046,-161.29344415981146,-29.553453765472938,-60.98912654144283,115.37314882211959,130.23346632558705,38.887442948666205,76.57539577739928,89.0600183051519,49.43799593847759,67.84630015764492,58.09200210541485,3.3869005526538536,-3.998890179632082,3.1443070177449766,-9.839624240918399,-8.25567586702958,-6.157457937334987,-20.139118477682345,-28.4464277513002,-30.224389398022424,-28.26885179238952,-16.390118834622626,-9.473206130737948,-12.089093169521362,-2.1297116059010115,21.051458373172302,36.97212702391791,49.71284719783135,75.0533944760611,98.96412620729387,100.34285405780366,95.90527566886857,108.97777960071718,113.16321826339474,69.34742674550601,-0.39620701296143856,-44.45072374483702,-62.062296851171595,-80.34544277169066,-89.94523348310207,-76.06175809024015,-62.38517302099563,-64.16174749099781,-57.30052633307956,-31.44031388505939,-12.504682845959039,-14.860425270616485,-21.202023373845165,-15.325119774243172,-1.4317818757027716,9.369813695643854,12.407027401845141,10.220441194268993,8.555018032470903,9.27127989033604,7.651193321966174,0.8005704374187594,-6.7577849364998155,-8.76502259245707,-4.438572696616662,-0.5224831517724269,-3.185422109179198,-7.582187183482066,-7.086140451379704,-6.875463543426552,-11.3095619428564,-12.687984132856473,-9.131835350322223,-10.028812222742957,-12.239784504388313,-4.814650724701117,0.1452414847481034,-12.087326579428641,-20.64764635161688,-5.94888433994685,10.148814371642267,8.013738406583037,0.6961469197180907,-1.2173484894285735,-2.6746357686307185,-7.684744019828365,-16.41737728259084,-21.85764326530117,-17.45526041364815,-13.043386399398322,-11.271205840981395,9.963344095603738,46.71660028295254,50.78495390456136,13.5454191838345,-12.772150888351796,-14.359431527569946,-22.11815750130814,-32.201468608181294,-32.910229289555815,-36.419467478544675,-44.31268336954503,-52.700693598469314,-44.89436358982755,-20.25073361564957,-37.411152297552164,-80.03317050933377,-54.80109358543405,99.47144167135863,526.7988663499075,1013.5874236843533,644.9175341240939,-614.4742319275181,-1198.9191511255112,-541.9369200665685,14.048860924978296,-66.23535106124174,-34.36058970129859,139.2985028277138,73.64171536427423,15.893421816545626,94.35201286943656,83.72844953544801,29.210284535976907,40.50478075546314,39.378914582417664,15.116159217764434,4.215224237924083,-7.639393562767804,-11.286611161059291,-14.700933230185868,-36.24285791001815,-38.34977165503685,-15.018093659860885,-11.35080612661472,-22.866730584671046,-21.41032461716147,-15.450352954334054,-10.923420368156552,1.725727536658816,17.960916500443453,30.68136806035221,45.38927316613042,63.98722674482319,76.34060390460336,78.50212017962177,84.53355016419587,98.49637614741611,96.32493922544369,66.28059316362618,25.78495638992377,-15.605520034115287,-51.58962198702069,-64.30808817926906,-61.60025484852187,-65.58499176164034,-64.88631089590157,-51.081950720636115,-44.80742067189617,-43.143386104767025,-27.702304625404658,-11.35690216423392,-5.115892141147162,1.5527566925784555,3.133103808401245,-6.555389206465183,-7.273687533527857,5.916512539210176,8.635950286718803,-2.0800826886002586,-4.043897748520358,2.465881570462745,-0.6785830022703099,-8.7907216092421,-5.933683822987456,3.6860796006283074,8.126107250840978,4.2414776461465475,-3.5645047015800566,-3.0710629706841672,3.5660573017074864,-5.613012712195317,-22.40929588218298,-17.806875737586278,-7.246503337050157,-13.84450571704067,-15.245289005619865,-4.286903600684081,-6.814706502342904,-14.46248518067112,-3.28329375491089,10.430489732783176,4.947069789168941,-8.226811510747662,-10.908287424198768,-5.001604540261253,-2.8255138907637516,-5.974201814485831,-7.458528948835793,-6.5900663453606745,-2.9208083252585233,4.246370751926344,4.196832766764295,-5.4114544025806275,-7.1447575252468365,1.5703004957357223,2.01444662972548,-7.848763232582891,-9.505897003571274,0.02864071498762133,0.4523261391687221,-13.43667053166612,-19.843076774406356,-15.898860012926784,-19.83981433091917,-15.178889330062624,21.861464989777097,52.861113811110734,37.78818959710748,12.357646443586564,8.615560594482421,-3.4862320764236476,-32.04627214706852,-46.380282075487244,-42.24951472250868,-31.590637725878786,-33.27706695646681,-55.35802941296883,-51.621601696400745,-29.577609076212514,-59.521270371590695,-87.55218252323061,-25.147442915861745,206.19795952509827,714.7502456465837,1008.7297340018665,251.40287931236205,-933.2655612877265,-1014.160876225634,-255.42647050348265,11.176740703880629,-95.70525327048671,54.18178169339677,148.34400878180062,27.85466497119703,30.544537916822073,92.11127702815209,43.27682900357806,22.880476438740644,54.250200381724035,45.602716226900235,28.695458253619833,14.70208219855028,-15.457779280719654,-19.957859813288593,0.0072611774810591445,-5.636496664173426,-30.437882565928597,-37.47505844066907,-30.25506987709771,-30.77127289801993,-30.618946042720278,-16.251453156815003,-7.427173387834015,-12.82318624543222,-5.835368730142617,17.090811111033673,32.436622383667924,43.33304648009777,66.52937464555052,91.6076925903488,98.41419877917508,89.1964533322773,77.54600254613887,60.4511118588551,26.19825960298911,-14.491819052503246,-36.65605702357996,-41.49977965610289,-52.101079784194496,-67.12609082258369,-62.803012435074066,-41.98165670744805,-31.765932336555068,-35.717707793925335,-33.044838893325895,-16.45815120454214,-2.269526444206072,-5.2852484341162835,-13.562586829150415,-7.467605174130046,2.3546203563068726,-0.06301356315372786,1.1735124324148334,13.407145934449565,12.57082634818751,-2.941301452418239,-7.258419725482946,-1.4918905566425362,-5.82645407228361,-14.3441048474341,-8.054572109476013,6.102536926268019,5.926140738956823,-5.400872586235597,-7.170094969135093,-4.529282183069286,-12.830791489591766,-16.831446739665036,-5.9741965970014,-4.50911099010812,-16.0145140052605,-12.000900562719398,4.727374671194203,8.551854666146538,2.284176591976845,-2.707794796383455,-8.159935130230505,-8.4707883808963,0.7750982093774961,7.742323701711088,4.000397535486298,-4.769013504391223,-6.656441745226196,2.559053849028916,5.617167916109964,-10.026297700526596,-20.802973083805423,-6.420555459957924,10.11211483172395,5.71108967636957,-2.0458806133684857,5.12666142504524,8.550011718833042,-7.335119880121592,-19.640529482394975,-10.307818630106183,2.17372140509229,1.346006063789761,-5.568514364060366,-10.816255837269551,-14.523108006543543,-15.346839842246439,-7.742211004288027,6.68959594412219,10.585843665334213,-1.4379883203813382,-7.854771980503521,-2.61900065616775,-3.013642874962171,-7.194851913901775,-2.6432984928560472,3.990454742071173,1.306055726471465,-9.718308311039,-18.619997255546373,-21.464000198366463,-23.922294840127194,-10.69796857926357,29.936601991745775,52.806480554839254,27.345792375734923,-4.54868139864668,-18.0416238467996,-29.314093750204133,-37.054522597505624,-37.319953604042276,-34.91733212033529,-38.43610434930963,-53.10282961675179,-48.01599745174717,-33.718700811475834,-65.9971928066135,-88.43793088956677,-30.692476417739158,171.8234229612754,669.3028238931896,1028.8350175756655,348.04414608923184,-869.9014502825955,-1038.0665965632074,-287.85379824886695,11.029841443268406,-107.08462779717428,28.04334792845691,137.28839277963516,28.32693568917836,34.511817699828605,100.49392324400789,50.14064492799487,25.16427536321891,40.47687156113407,4.886090985461683,-9.44260074423931,13.299466353216303,3.736697604961683,-13.390330734074437,-10.79923552341475,-14.222354488438135,-18.2741983708678,-14.272362778121437,-18.245969010813663,-23.2013644497248,-14.17501303636973,-4.255813985928098,-4.227165658832127,-3.8952199733842843,2.9794078042853513,15.340750604483878,29.918359853398364,37.31685107063483,44.49910332293766,68.6397847324856,91.62613828054056,90.3975168930325,83.02651214670283,75.24658057803833,44.49155968231976,4.458921481918569,-19.709371348623783,-43.402603397190894,-68.51620350832248,-68.78569166565515,-56.091110820722726,-54.98137881966745,-48.35213361518109,-30.197237946653075,-24.065930322099426,-20.239616333590657,-2.1136905044553522,1.6373036089115516,-17.55464865502079,-19.330711623066332,2.418069166014483,12.704319698256626,6.961779742098278,4.276329570223448,4.822687494401,0.5752245335640858,-6.135131564667283,-7.76403301518161,-0.4868689214093278,8.596041125844804,6.134155736021739,-7.618584671956867,-15.484376458820977,-10.935824035915662,-7.251503889480462,-7.522398141799606,-3.7644146624987744,-3.639387679343981,-9.57553658774028,-5.078368975087663,4.7793931030192045,1.7220513474214272,-4.824953916313071,-6.2301380407227995,-14.876838774713084,-28.024216525705235,-28.52574944490013,-12.9827960265687,6.614758770269711,11.115783703623691,-2.8541961189230207,-13.562638465450515,-12.323608943586446,-11.792140888719409,-11.3554648184854,-5.62531105545988,-2.56933932932613,-0.09944528754534332,10.924778806664804,16.784086230264293,2.806098031114967,-13.061112481305603,-13.639461185161178,-14.998910285241397,-24.12360133325404,-19.406441396498863,-6.114974043336765,-12.570545270320075,-26.681803409827168,-24.050570910128364,-13.096704179389768,7.861707434610018,40.95115725733154,46.53247472945455,17.54664309677587,-1.5851777448510305,-11.391654123988136,-29.076311206980424,-37.372740083298325,-43.20178765267554,-45.94287898397589,-26.843922824656342,-29.25054122080782,-53.727520063064496,-38.59454944845763,-32.174323926593445,-57.41223203704678,-17.220186542033233,150.32304584731384,553.9035146523285,976.7950049247203,556.9906007880764,-689.2113944559804,-1221.6143829346308,-547.8745590897568,-5.691988170962318,-68.30435301681177,-5.99422284754689,158.160205903497,73.88481432953647,29.69330718218783,119.09667397564964,89.7796575493058,24.792146255002933,48.50023020704121,45.33727962148842,8.228827660749548,9.772177025935251,10.280376844146499,-12.534594474034886,-23.58835829040988,-21.231019105006272,-20.576808039383014,-22.952381506430235,-23.91506032817051,-20.840604506502977,-19.010370918985004,-16.861031897609195,-4.676613913901759,10.080244152918905,15.55349466033902,22.73915035807841,44.34512689767318,70.81122632302194,88.70826670677395,99.61666464244178,107.7859864443285,106.42140438780238,90.15100937443869,65.08480561992363,32.056547032879934,-12.653330007514398,-52.019009273928276,-66.73836909560843,-68.0741176500212,-68.51517390075688,-61.81117719737131,-55.40577099230194,-57.68863245176427,-49.26077056952769,-27.03057557689187,-17.967022500330476,-20.355715115445705,-11.011079795590527,3.1550066303755404,9.033334625428141,14.787955618682371,18.058105547815796,7.32321372558334,-4.738804858050335,-2.396053088320775,4.149065676974324,5.008443162725406,6.255889784120571,7.1046599712702445,1.9838262388220897,-3.0608662699346993,-3.6184046550780415,-4.109967261038035,-6.980397372179951,-14.40776714599786,-23.10788095133553,-20.87425858345031,