ECG,0.09536826030250722,-1453.78252298162,-1163.3606419122727,1174.4400832732867,3119.942035600832,3074.019068942458,2686.6829063151627,2896.283209133273,2695.1022529191578,2177.3793309447647,1981.6511927289275,1723.8445326667652,1354.1335278173976,1257.9918116860804,1189.0731705619366,1005.9979741169948,964.8613419755445,913.0162461578473,712.1761708041549,682.8141499330709,812.8668280206648,755.7716649739898,617.6253972417296,639.2665472272392,691.8651985480471,716.0714294271797,810.4584922966271,839.6156830764498,705.2941867698937,629.5577252320638,737.7599602464095,854.2516395258167,850.3107992034945,804.518290194836,786.5881590599693,756.4609750034388,728.5141172307306,768.7757368590578,804.0742139483484,747.72749841835,696.658774489275,722.5957297253847,752.7175264296293,766.4037105661932,775.3158090382601,736.4595167701762,694.9406203041046,728.6208235637184,784.5460295771957,818.0712756938367,823.9421310459654,712.6316421880206,528.9018108269436,510.40016859722687,660.4238312305083,739.4069900840313,700.7521501518147,675.1597516212489,699.7205588762306,719.4145760685362,687.7409785131247,636.2122024178263,632.2248252082827,630.8547525196163,572.0491294145454,543.9746720105725,591.7914025915807,615.0746363556475,633.5380361238099,798.4370794730119,1016.4349057050986,947.941381475689,576.4905867489399,352.1869798115424,461.18783457141944,546.5731519511469,472.4986353339218,518.5512192873191,648.1488428802597,583.3105997076125,479.34033051921665,589.9825218094393,709.387920033558,631.1921531217835,529.3126250392413,536.1105006912929,551.4334306472214,522.2185134687679,494.0610858935547,490.546547212989,519.791479839063,566.168810124145,559.594789928836,485.48491863953404,473.2880392895041,590.1307013145686,663.2912326374703,570.4556670975114,464.85463127796197,477.5377007213897,542.6708068760079,577.1055603513666,553.7223198200714,503.2954500576707,476.3991899788273,452.28478912648177,446.31419336148565,491.9659301206741,476.17716867623255,396.64023735539536,421.06189042792084,468.1932397483664,407.0138559340679,394.2244109664193,458.7008804492168,446.0703447367048,416.4855980469704,443.25756031383344,449.751410181608,437.7221560877581,425.9718209757947,423.11665518025404,487.55100185128185,525.3820634490032,442.5015877155745,388.7489312793102,407.2836279542971,375.83201255344625,351.5307683961689,392.6268030217582,404.08559449973234,383.75155465563535,376.047722938569,362.34958396360685,361.2751710861787,366.6330592882756,351.6552572270531,365.81441777006455,396.9922435796324,382.13054794906725,363.2365025561992,359.0008997386201,330.84587428449083,317.918292078235,321.3468665264993,293.5665113288435,305.04730402216546,372.7122556677457,351.17879381253135,242.6288196924736,259.3260418583768,494.19426848698686,743.9043156969559,688.4583527021282,328.669204668749,88.39611915159253,176.7698241346303,279.0869935906876,219.89891807212564,233.26231189689463,353.9736405057735,341.25844021758513,224.81243328462392,215.1608305606478,271.38839910091997,271.38439905677103,262.802024064501,278.8585318766442,276.57917455129393,273.8160706459508,286.529161345653,284.6213102236027,278.43748648510547,277.3169788164163,262.9052354033312,258.43304394002064,276.75498248757026,283.22716406576274,276.98424045226614,276.80579718131065,273.9688679720285,272.6433837660254,282.9972533581016,287.9773523915188,273.34270455881085,252.39507317583536,257.91854218213,291.4126734276899,287.61887228246013,221.80314726310382,174.78759362007168,184.82661140981065,194.02859513632927,187.8288191010418,200.24628315099778,217.18694381500734,214.84672304459855,210.1747279222402,215.25743625763022,221.36453047244277,225.68740776075532,227.88182835137718,222.00805529808167,209.79489052010672,206.4106236038764,220.1508301897847,231.28482842703954,219.9991249425193,208.86971684758964,218.34660989028202,214.95613826381003,191.86355264688524,200.55293555130487,219.64849857400884,177.75762866479926,123.67316249252201,141.33230673800483,186.51264690850934,196.4437948124056,187.8643285738026,173.3474716741352,149.7627448132843,140.7670426749193,159.6016499476449,181.0612594734401,167.9626187280129,114.59014897210511,65.39818084672402,64.34911044746246,101.76722506636366,170.00495040535162,326.9343868012318,528.3188630623156,501.544783528317,172.24193754609018,-53.74019541073494,44.89637359690266,138.75648327898017,66.86128108129896,56.75746196505156,128.44676291773123,134.80461175301238,123.12964480857403,141.82972888786784,138.61565050548788,130.30918242732866,141.11870871585944,147.58675800934378,151.92889461329835,151.2782102652863,138.6065836265442,134.16530638899792,133.10830896786075,124.06962728837968,122.46008099979196,121.3374139305322,113.55416528939031,122.05181803317708,144.06523267575483,155.17291490868314,150.59301247811072,135.5133351670529,125.1830529095518,131.83493344930747,140.08773442048812,138.695882300853,133.856682886807,123.54158678783227,110.48472305611915,107.25700937962768,110.77385391309255,109.40058388576412,103.00127341893867,98.98341438606917,99.37523056325631,100.35825226648811,104.7317789083595,113.17979319357019,113.24453067688844,102.85242797239636,91.0042886363627,79.78877408320886,79.32164277730993,92.09227984766093,91.26369241791903,73.06050927865635,68.94942876435769,84.97038213897739,101.16235008528452,104.53437087517835,94.87947921637934,90.03960249899484,99.34915125252328,105.17369211526099,104.72001269123152,107.63295922969314,103.70820337011313,93.67937180753134,91.37122325731207,92.40535078299624,92.84820345429554,80.93805719140155,38.26166151794462,5.344154050621,22.651745650115544,38.82560291968474,25.202947064107008,23.250764555837407,20.711309178948795,-1.7373535153452337,15.778852899786699,130.21064270082186,344.2389215695372,511.0472933820315,359.2506280050642,-26.278607816931654,-174.80881686201565,-25.43969723781308,35.97217798906273,-28.20960877466584,-1.7843831350218693,47.77366596278337,27.24519063118146,35.360773149663714,73.18864848298327,67.80219271984393,55.932645796659045,64.76198817703204,65.38822875213101,62.825602378947394,64.71252453969319,60.62193940076932,55.77105120430002,54.665134077980625,57.582157447966324,66.12148724173808,69.97118153999011,68.11145007162078,71.45750014061824,76.40187305169678,83.45843408342446,97.17701504990747,99.64551957832916,88.61399970486629,86.58442184371897,82.29874989209303,57.55624933266955,38.380037487482966,38.26245707736294,32.230726746223084,17.391984239773493,13.641913370571018,20.51584249684646,24.980970523323663,25.262277398743407,31.379756855381103,46.79397549720994,56.69686929917023,53.66362691553587,51.28054002893373,54.297245173765674,54.884642899959005,55.51990591370429,60.348314531604956,63.119497289009516,60.28141110769181,57.79855891321415,60.18339312333285,61.6272349649296,54.15092199844206,40.03494915334862,28.477413090802244,24.63491809413196,26.62340562940723,34.193577221599256,49.266470080127746,57.834864790317894,43.11140879254381,18.796626585668776,4.19270644506247,-6.120411757187327,-17.061376054012136,-21.429548123142098,-17.178571114463146,-14.622069999898017,-22.17570640665398,-25.268510403472774,3.8227327962090953,124.20798037333995,374.88679180906695,527.3011257913568,259.64746151326256,-178.54565884090295,-235.34644620328615,-27.066205956425087,-9.296564952479159,-86.74532001692393,-28.059032351258896,20.52846543047003,-10.829723799498069,1.6337326590598522,31.234993065142902,21.226905232872546,26.17335667957468,45.502754581323885,41.37666602158123,32.305857517198795,27.564938100303166,23.92786586743337,36.30893537544047,46.36963324839867,22.579023310709744,-8.144224810352036,-5.75630839280916,12.369810849699427,20.30647826983197,35.07104415857304,61.71113898709903,68.72509785678776,53.64464261047934,44.61818481183937,39.73026630980148,28.637964635745874,27.62000348637227,30.90009526782906,11.133189246444552,-9.217548606728698,4.700637996672683,19.749992141309797,2.428339060050938,-12.368623184290882,-2.320075104354558,7.7649592314833455,15.191296428179186,24.86856371884469,15.546774419084304,-0.614614412492358,17.141804346163937,64.09336806093437,100.20576198587085,87.04012372002185,24.008603998293,-14.740899626828671,10.902498491477516,20.671755943460226,-22.805503022606022,-42.975606035250365,-14.372144884428604,13.18775795221487,16.64921308261251,3.1327008555060196,-4.7236204567495506,6.544784074263006,18.944561731183683,29.527810186911495,19.061875485175243,-48.58421061210525,-78.66714415241668,14.9772969425061,65.11397751580179,-28.29366417947008,-68.76935759369638,13.41738146222447,126.90751345900921,337.43515567632653,494.6824137806775,217.73740681770695,-223.30942630971623,-219.4617825295214,9.72705020027746,-36.4859268580118,-128.25211173873333,2.6259263111590734,79.48503789187913,-19.86395901905162,-57.99275660900837,23.78763984690453,63.881573403072395,-1.507019864777945,-76.33291704249653,-62.14657109808659,18.283127776725202,79.91586218170829,73.51244657914054,16.5512073397334,-5.4343685350742135,31.949998233669277,38.13691862623077,8.593984790279102,19.29863214728508,31.950736046980218,8.501568399783501,13.655661381661723,47.854376799172755,54.79536339682894,37.40053816584422,12.559476456620807,8.71117537499422,50.75355205907995,69.05681301569484,14.840685518898605,-30.02959458074546,-23.505798749083915,-19.722364650503945,-22.385968957117093,-7.991759902857191,-5.505233804868383,-22.71816717540272,-24.147660828186687,-2.959411661071403,18.64075766192259,20.270733933641765,-5.617719337930149,-27.63700034080262,-6.9409503090578895,33.32100366409011,51.29264085648522,48.40405059605247,20.000869805618528,-29.288156789708616,-21.860858831749713,61.59109664287047,96.93915023783522,30.452854019958927,-31.180485724009603,-31.20035215483511,-21.410977423197913,-23.56549814292431,-21.16656103645966,-23.042537154322357,-37.60032666437602,-42.994823871829695,-27.618339803929963,-19.2672498909372,-26.52431045716768,-23.52465359138148,1.4352845004312513,124.98982539243599,392.5923595920313,490.92000081900005,136.44394875280182,-250.4921572613202,-199.14018419622465,-23.39907514914293,-68.62701122508793,-101.9351101749697,-13.604439508267042,5.6676107504363635,-21.61951171802437,-3.546128668601872,-4.493164667258138,-20.26484474512575,-0.6938661086312283,9.79127614977183,-14.155807367812315,-33.94939831073434,-12.472984004428215,44.31114542777035,65.3990481343685,21.75004206110781,-10.908807424649552,0.34950918700068456,9.427395892596614,11.981482602288114,29.241631238955883,44.62622392181163,44.419552757951955,40.50308279777297,41.13677024883901,41.21484523100134,35.627725884228234,28.013888599323167,16.930526631261017,-4.968902044947051,-25.34371041557034,-27.102805719318056,-21.94284981423199,-25.833110288825655,-30.018741043782565,-22.667698795935582,-7.7978815655978675,4.529282808710828,8.71820212307392,6.3874515846674145,5.375137807940644,11.947543156690012,19.897460768566837,18.924730752184075,15.234350905550327,16.97653634773976,14.799733563181103,11.432303453419916,20.218215953173065,18.381007612195763,-13.5183702806814,-36.442382277430944,-23.8953336387931,-4.970037629049612,6.510578509799322,19.14570236939369,19.327366060261873,2.6077521846549576,-7.700924111752034,-8.983316267666329,-23.743244382623292,-44.03322843541492,-38.67029750857619,-31.49348012005082,-69.1066861718517,-111.26682049934416,-73.91070626714074,94.74694538775822,367.1737801480884,487.1253259906923,203.96596739845012,-183.70122070431893,-209.71434268690706,-43.772752166780364,-51.34229825387236,-104.25639386761827,-43.449423636845474,-10.57605913707211,-32.85333383814265,-16.258275433094372,2.7802937365154072,-0.9439197918868221,12.369452207331166,23.027121431925337,15.59124717183408,16.73183175955516,21.29408634042734,14.174150297239695,3.3465246447346484,-1.9835264728191397,4.744676205838012,16.353322286192487,13.748909438165828,2.1700605120003758,3.2783255829906253,15.086929670359675,18.08210612864932,11.67169838037762,14.612734994447692,26.235638515212326,25.996253436012324,14.428142825514136,4.727235067445598,-3.178306930302586,-4.408809848306587,4.709401133372491,9.348137636280068,6.906225022919726,6.698996924144515,3.0036102317770244,-2.4698177904878484,-0.8213906204092574,-2.704164635784872,-9.457856676417974,-4.497591391683388,7.34326419521745,12.560311580046296,18.642507934548792,31.020970710598395,30.228145488342044,-1.2154034668334925,-33.43676352747389,-21.015248816611603,9.38392948048423,0.9603656045509235,-22.877089787484056,-16.297767834916584,-0.7498114747255635,5.083780328188092,18.98800371855052,24.177913505327133,-1.3626481653189844,-23.33279620779706,-19.990314920133823,-19.2221483843584,-25.243726024739182,-23.761388132411394,-29.87908566470272,-43.0650402247079,-45.156309153321125,-49.70102500016132,-59.961796456636414,-43.16087288755599,56.18962849339181,277.20505077008454,443.4609577719953,262.82295476225966,-106.05167378659027,-197.56782432115506,-55.31563257715879,-41.238049366226505,-99.21660257986838,-46.18082099877157,1.0955646579684952,-19.753952270055834,-11.243772486084385,5.508063230379105,-10.70922069323121,-5.313043283625152,18.23403865096106,14.4271508604961,3.1050794583028942,6.977569499442994,12.172135312223826,15.716363023853434,22.647526120561874,22.249417878140935,7.378401410861578,-5.734685892205517,-0.7490441409123818,12.683832409489264,17.828651742430154,13.267862695063604,6.113771797278874,4.080648339137603,8.534798908010323,12.786014953967712,13.830222851445225,10.443415519441785,1.629229136632329,-2.35389420618268,4.679486967224772,12.755160262435812,16.699660776574483,17.20358990260409,14.648825099033319,20.29391026756373,36.28520091136939,41.34987808342946,24.939613981342582,-3.538761480950958,-32.2859458613451,-43.53202003045502,-26.989616660238596,-2.2944217249319205,0.9079252299832525,-21.11099014282639,-39.290333789177026,-29.441071789055144,-7.154657845731059,4.26592557638908,5.001606982711223,-3.4114063856196424,-14.41463585898793,-9.97039985477043,3.0837760433552495,7.48457977926698,11.018128995321048,14.262475398398887,7.130921742681459,0.9983778012989788,-0.07399070301596566,-7.5694634422015366,-16.78965420937932,-26.76780252275761,-39.34505573627149,-38.94708958132897,-35.14434741495516,-45.85530838776849,-49.05380019490008,-18.069692181390913,105.54203188210433,338.0560182196982,419.2774914743903,125.64672203937333,-203.19600478462098,-177.69506376672007,-31.140324107261314,-55.346092929950345,-88.6027844358556,-26.00927764244488,-7.905461227808857,-33.66890960855235,-18.87994640289216,-0.8572326709381106,-2.195418371140319,7.796223317785477,13.828708605011515,2.1402741766570452,-4.753298537723712,0.20949595658034248,8.869740715528344,15.537275725357691,13.418957567359556,7.028779608659676,9.76565761961194,21.16570381058829,28.77981543902487,24.864567665014267,14.213093041342482,10.959311984631004,16.221439110763576,12.346459834946817,-0.3407948640005536,-2.328476467677797,1.9675537632947684,-1.2758573896498109,-2.847860713526627,0.7925959983064459,0.9890064346988532,3.8636601148047465,7.8337146887166105,-4.744502133190354,-21.111276721582637,-6.822004171081055,27.631951993381655,31.14615733864799,-5.455730153326652,-31.71138526195913,-20.8160680472462,-0.5310415075329544,4.074777644422362,-10.750419154054608,-35.14084696088534,-40.120624584348555,-20.220534569681725,-8.768872566809147,-12.726899625710677,-10.903503699925123,-6.317404871013331,-8.31669894302183,-7.111293347165153,3.1446720268513797,12.061881740296815,6.716058105401393,-10.440548424283252,-25.432195677545927,-32.897917006842775,-34.83131244983452,-36.171694163033166,-42.37072079060161,-49.48774199404107,-57.191182535756596,-64.76422447597216,-55.678040103851316,-5.012816792375318,150.51211478698033,389.3749683646147,408.8422805261937,41.10946396533602,-274.8002242836463,-176.7923367318291,-8.575481214393141,-60.94481983067741,-99.61070828021343,-27.172758328832526,-13.60050943778366,-35.48358729591191,-5.972874742600204,9.359640507816898,-7.987770549374032,-4.481940116912261,8.563723970523863,6.875043620449858,4.804970329207629,8.001924135659172,3.687136143396869,-10.068696022493583,-15.980194638809447,-5.025816054134028,8.606681281009788,15.895776011670634,24.6308019981062,36.31025824412983,38.987996508704384,29.573584735328538,21.022812843301608,10.735706114068115,-11.903960497212966,-22.45325477014648,-6.756279217256071,0.7874474052474136,-7.160219894472935,-7.690377541016925,-10.820535792818157,-17.87548078902361,-15.747515253788512,-27.58976045243454,-47.768491119402384,-33.61749128766926,-7.340880162041781,-4.582378562316247,1.70810031884354,18.300303773371386,20.468879976160498,19.416662937538533,23.918007965550192,17.1271339577255,-0.1702584501039084,-16.119774557903188,-23.452902672718484,-19.79755476542887,-16.421680295476996,-16.917372980121456,-15.372587213228861,-17.88722596011825,-16.789021014879097,-0.8227767212471448,6.219987529244361,-6.770702009662706,-19.58418734147432,-29.58350322786422,-35.97220192157286,-34.19294409078279,-39.844250208355795,-49.736461743483005,-52.59973962724376,-63.49941579971141,-72.4688566081152,-33.29308796273672,124.91386648683375,397.12094067206834,481.57865583172236,123.75510122471272,-270.9684340034703,-217.8716364919087,-12.681870446689697,-50.100358467243105,-111.7777549437051,-32.08277608501527,-5.651005940895111,-46.36824977083889,-29.727212057524447,-6.03994592899565,-16.693130312358328,-9.725380096655266,7.977736265589217,8.546150719594884,5.626935846300229,5.190444207237383,3.1505746428742007,6.2808258916338895,15.308268323470266,12.791774047243482,-8.226667921657434,-18.306394960113842,-0.5069404123001497,18.456723570877134,26.17887457413583,30.056840138254362,19.490551560322963,1.8981019951697897,1.6423731296077761,7.2701327126293736,7.130017002667408,12.224256824228508,6.533345804677927,-18.38979701261189,-25.717905764208528,-10.891817331473128,-4.022259307241691,3.225021796200574,9.649218155396358,-18.574089524530724,-52.17903975596686,-35.447504372967735,0.48614312495870315,6.839768989963486,3.367356099746681,10.335550434265484,11.72989365244909,5.245568191922498,5.402024619504004,8.465950648178104,-4.107243687327477,-26.92465131628947,-28.05005961840353,-7.094994589281793,0.18839685783656002,-8.891844507910308,-9.369645567322177,-4.451411827425519,-6.095942976654589,-9.16046751818643,-11.52089904106517,-15.165541554711092,-25.35888212461348,-46.54895911732472,-55.59908904601315,-41.57074691514015,-42.31360223187076,-64.05428517520049,-63.70288296935916,9.392259837419076,227.76626277085415,483.01272993628174,395.99186962029705,-54.92330297521217,-301.7077189707263,-139.6327313510539,-19.84017252894202,-92.01696299694916,-81.55280725474492,-5.9259589944460345,-24.43667657178281,-40.912639808747016,0.9017085007507042,11.74662524190896,6.121233736513851,17.54643168750113,-1.3707241921697504,-30.709837222796363,-18.977611886996996,-0.1782809710656923,-1.131787993943619,1.613329909963249,3.639022676341918,-1.9416699421921724,7.19840491823766,25.628787517765414,33.05328076160831,38.874449528791004,42.70088964190558,28.61271394661474,12.680024418545667,14.96973351064498,17.55170836295491,2.936322649115435,-14.494457471723805,-19.255340665552502,-16.90412867238773,-14.88445043662656,-11.850279116585668,-10.795446359144254,-13.82098702652053,-11.604376576930575,0.6774041654767284,17.876126593199437,29.068919768202953,14.930624665893301,-17.87073856762437,-25.681470204848353,-1.0966393744928324,14.987677138939702,11.302039978893612,5.966288042319407,-1.050294589664082,-12.00827230824878,-17.28200888911849,-12.389838906298468,-4.206854869496599,-7.204141136704736,-17.316031196700656,-8.412575737999763,13.345993417546973,16.246706681455695,4.378626364091333,-6.647985112784102,-22.651686913659724,-40.52731450392686,-51.82811169820835,-54.797201898435986,-50.10573180520787,-57.265764813493334,-78.49863639119819,-76.23345161727437,-4.896532220994288,205.76450871144795,476.2251833915591,432.81598810867797,-6.129208297548104,-284.03286894782104,-134.01264515730375,0.391567127346617,-73.77360257834542,-87.43114243592818,-34.524745216083566,-53.41681905172421,-51.14451596382766,-2.3327022767861845,-2.625585564975239,-15.194644301788164,2.088184351473652,4.855006868913817,1.6063201074429123,12.630492794524935,11.825791847801796,3.515906595290506,6.441112699978767,11.64691510633321,13.817039447309702,11.05207907323923,4.312506303905105,8.614984336494944,20.6452754174311,25.41705473848016,28.460242688807014,26.158637993434628,8.688677613760673,-2.9065972045332478,1.9905006232775886,3.516540790085136,0.7031543776148652,0.9843407470695773,-2.7529394313088598,-5.619187200823271,-2.785300560488775,0.4946475894753357,8.604177971661851,7.476147392813167,-20.741282419726794,-39.19416613219918,-20.089079233555935,-0.18371541470088437,2.713006584295989,8.60472024277993,15.263754262449398,16.841107299087724,19.681215492082146,18.05630318753748,11.974365546186071,9.20483240370402,1.7089287971114584,-13.783461994842806,-24.2446546425589,-23.650608440924813,-17.04824532971446,-12.823949558291957,-14.215799194892817,-10.746370945884948,3.9198830120562214,15.786044181089572,12.507103754565922,0.48000113813575673,-10.229611305405264,-15.450245108716818,-16.54955706722955,-23.375464171757947,-34.23549564461639,-33.33173216768022,-35.608796454029054,-65.97221221165452,-94.66081073818637,-48.818358511404575,146.42054325426244,418.7628782416367,437.7302434247622,71.40986155992013,-232.7962104117896,-152.14449421437774,-19.40689090556161,-75.67295982494734,-94.74950484033016,-17.350487795752127,-10.725388488569472,-39.39007845642183,-22.312789269438916,-12.685606392972234,-13.686355033806223,4.0924672400180695,10.339801987940158,3.473929814002712,4.855391399737983,4.51729145405673,4.493609966152865,12.107686881728888,13.811183058654688,9.287523634395322,8.513425983550379,10.175826120977847,15.51052505137254,25.820422748012902,32.161549830587546,26.060730184426053,10.864732863745495,2.7915742599224362,9.403770067495564,17.246439908167407,19.25066048226948,14.0345942935107,-10.598277933336336,-38.35077851791705,-31.804299362651946,-7.870112083056121,-6.519822423677949,-13.078878804308646,-6.80674200479509,-6.336776413258013,-12.290858879256056,-2.4974263222225863,11.592158861787823,8.006717692347054,3.566782063759266,17.335807098396476,28.630216989658443,19.592615989241917,8.134153192575333,4.047960171775713,-4.872375663087881,-11.948548329571128,-3.0937366346529123,9.438001651224077,10.50222710942413,4.251343800902422,2.181224725252118,8.843388191390458,9.834855819579127,-7.676813113986917,-25.179160198299886,-26.3044119227233,-22.887738307579756,-18.364071959704745,-4.939965371623554,9.584119992804293,16.347765991110094,16.207800079461258,10.91064677545126,4.759864324653078,-1.5888278883772138,-13.523654735897335,-32.75597780133252,-53.20916464528376,-57.94589878173039,-45.885323824744916,-46.15784866160948,-61.30669586208472,-60.021448829444594,5.733799507272067,210.11480516992987,444.5295591532754,360.7677959551115,-37.209618179807954,-241.54121892530634,-107.56888537085584,-27.49215342939967,-91.64212617408744,-71.02666391982306,-8.893407351161095,-29.828657590921797,-42.60248130800513,-8.576086098928826,-0.45917352388724275,-3.254606540015567,12.759757123152053,11.4914385191344,-4.704781870176465,1.0535149599123468,17.29804954626027,20.381161704474888,22.03280121088471,25.806144363510082,13.888713171208678,-2.7839471358579218,4.585738201430551,27.387679997996536,30.71833165491681,3.0350832574564293,-27.97755260628469,-29.274435840991956,-9.660520847982191,0.5073059956155077,0.09097628714580308,-1.5052535129573483,-6.173946039795197,-6.690600234252635,0.0017792963124807493,2.4115406167932276,1.3920919927119741,2.2845691047595436,3.5337319224654484,12.016061818164369,21.92507963617792,9.540157936210562,-17.525447348682057,-28.436104499669142,-23.91069555894969,-21.489370866685213,-15.504090926363752,0.7145875053881738,7.954700743599092,-3.670142884015622,-10.187934768713083,-1.1100306910992543,0.6924388140866089,-10.124978234431296,-16.130182762675368,-16.245831324199514,-15.390522281130186,-10.640631286474097,-5.680386625897102,-3.174079371029844,-2.9967788061181615,-9.681635951152353,-12.41017954840503,0.9893758710988569,11.026763931969366,4.228263230370835,-5.129098123258759,-16.871044296117233,-33.399387815200505,-37.96286821002566,-32.69790235646952,-32.791147332251924,-41.30313706086652,-60.79073984075763,-72.94994836473354,-50.67713283791931,31.55485698701908,233.72528978937854,447.8271550526215,326.70810801787167,-101.04796352634926,-284.2285772115101,-95.83516950961129,4.380613369961031,-83.17348029052872,-86.28685663343519,-26.51003635568295,-28.885209355872554,-21.687651687585237,8.228742104721983,4.208175640125383,0.959316795620131,13.935789235109239,18.91866563816209,24.02481104681361,9.966408235626442,-34.31292109442905,-53.42631669101691,-32.059490678232265,-13.441242975798355,-5.399925366817669,3.2554931611262754,7.3262345693822954,11.684259992871425,24.209915000135634,36.33295788665688,31.467336158463915,5.839173761767476,-13.994163059043391,-7.776534483507636,2.962532974855273,3.673502385988657,6.735892966308162,7.9006615591887,-0.36918791933851125,-8.747733117744437,-19.325733419287193,-33.26212822279816,-36.3155010908671,-32.399024106662566,-33.104174937193584,-28.14585272734582,-13.504719957811563,-3.7044752578479994,-1.9222906003680755,-0.046972722127456734,1.2238257788971314,-1.0710586875424504,-0.13909928571294117,5.759695221201367,4.465772671267706,-3.998480313435417,-5.7470790316129,-3.69599306151866,-4.792235075833576,-3.7853948865025338,-6.195452652056849,-13.291500483736503,-9.535072665738948,-3.7187842741752473,-8.80022157500213,-4.557421399157083,8.064637039831382,4.187233447963234,-6.263122532814359,-11.773970551861762,-20.285088547002495,-24.47750174262198,-30.55720218739187,-49.570136787865664,-57.56029733681138,-56.12639627005967,-67.39603084053385,-68.76503948983486,-19.385330820689617,153.8815248538412,422.8851831367673,442.9125078531213,42.452174394318654,-283.7587085573027,-173.8318530085483,-11.890903493770733,-69.65528522571731,-95.2741342050749,-19.45348803284426,-13.198927632212744,-33.01055306648345,5.306699085956893,27.50721483553095,5.463661006544772,-6.486319650998567,5.527784958637646,16.425950831349443,4.806016581305976,-15.252064570496508,-7.267609258400188,15.401193755889096,3.1084743282437124,-33.087649641972824,-34.6690277028949,-6.211872051970244,-1.13304177307967,-9.987193627187242,6.160624738328826,24.93093320836533,23.648593179897475,24.56413707598037,28.25431724235238,22.15112038752813,18.68693869542307,15.118529776153009,-0.39319147916627983,-14.356702964917787,-23.736017683233133,-39.17307483422165,-47.46159304994413,-37.8103159600893,-24.304583588356348,-14.515204590672814,-5.829001544423521,-2.3886909119097943,-4.41003963613883,-3.1723427158572752,5.042325484907037,13.794036437845444,14.221323511263893,6.480623663629181,0.7566772999970004,2.8059291177763064,7.540799319633961,10.017251989425837,9.753241652361895,3.3714051753716614,-10.261916302654186,-18.408841448256155,-10.225433904264694,0.14244152817845546,-4.951620595566002,-12.985522190530064,-4.718356848981149,8.460256390294441,9.168016311801955,2.1824692535559507,-9.487856964571174,-25.781780628286626,-33.69415288326748,-35.742950906332226,-41.2629210210665,-39.66735331233668,-44.24685204245088,-70.43721725905512,-78.50543058595267,-21.47278188671268,159.92885746551383,439.2835503022943,486.9527574119486,106.18948253609724,-234.7831450291912,-149.63128974027975,-2.2785416614776395,-65.99365710993564,-93.30002439402418,-40.3304184863822,-69.86578819162274,-89.247787901695,-36.379483600507854,-24.702456306989184,-38.03639863838963,-17.988257963224598,-10.047135877415691,-11.70542399474365,7.01332247584011,12.871895588228886,-1.1198837771895667,-5.694079200747727,-1.28894599697713,5.802287171294071,17.462601583682822,25.348430258161752,25.2908729464385,24.601975940490377,29.515288082474477,39.11815530222309,43.67920122998695,33.385780637959236,13.788022693963866,-0.797362199461499,-8.751247403484227,-14.34312268734273,-12.057811766523706,-7.97566482475771,-20.390999075774573,-36.8728331620394,-31.395437755850537,-14.237625829544047,-4.717324159847016,-2.0553498265471406,-7.244361232333088,-14.718438860136462,-8.001803764367938,6.449746669806436,12.123581842967946,11.098917211325963,6.1109730993817735,-1.1993981762226076,-0.5383914726865244,7.29957945417435,11.70691872926483,9.44175789515271,0.8182052309900487,-7.083117421214212,-3.544554308368771,6.173241862581623,10.530112369515336,8.55546165010507,2.341270826387779,-3.5290228716147585,-2.910829609492026,2.072865414288753,7.106728770735295,8.689930500906252,4.833821414832942,9.092947008866009,29.207425607979943,37.29401537282784,11.891404989634864,-22.28610109574091,-34.74434575840615,-33.046310936550775,-42.969642292745206,-57.24963702777916,-49.665242552405736,-41.89349630296466,-58.06746628650862,-60.85095110537975,-21.14040542287225,105.22834069448366,354.68795899398054,474.87536945504894,171.75052557329082,-228.64709948989537,-231.1220461629024,-48.215773116070125,-62.61426384609475,-117.45445729769254,-55.67361214541073,-28.034865771392077,-44.61702790265933,-12.453075599431173,9.84057797842151,-4.669606125458191,-0.40064592548631284,11.313840281118196,12.35425666412146,21.87592166540404,29.74099952816121,23.231471900029106,13.397993203262086,7.127789962225653,7.945634743785501,7.609965992013072,-8.157368824698326,-22.07515943387952,-13.550025406055186,1.0456901884974368,6.776955079085683,10.862676958466524,12.900243423922296,7.251443678221257,0.47727164262381905,1.6667828644270584,8.907922371524695,9.926643617408413,-0.13738963922820435,-10.36414654005199,-15.09038549511352,-16.955856376858165,-12.418540606997453,-5.525947951575783,-6.470871244590469,-8.28427453178913,-4.999743485739588,-2.819485958861925,3.959243279539646,15.5688388460901,14.000515478544445,5.078233011095281,9.069041617240762,17.005587433265436,18.966547255606663,23.323372346412462,20.567998271106806,-3.0624668891348747,-28.124511530165833,-31.04924426561842,-19.667925932357903,-12.21941842273911,-9.799855837155459,-6.206256974891675,-2.7961380396484623,1.3266406349775672,8.707303374332724,11.639577641662907,10.161751401529273,14.53605000437372,18.30799106528908,16.750607964157865,18.718616605144092,9.612555554993623,-20.497406298370635,-34.90864520316114,-15.895695201860349,2.2815649640559528,0.633799890411332,-7.497851475976429,-12.718338120599128,-16.90314137495224,-23.50235150934191,-27.870477731353347,-29.334413065021792,-37.215842974315684,-42.44281397643837,-39.38496263779955,-47.26443529482581,-58.03045205878344,-41.79237409287932,52.53048069459611,279.6128148190765,451.1658962253552,244.07988058744323,-152.0925369362769,-225.11627707637268,-48.51767455591092,-27.679906595826697,-95.5895844941567,-51.757785269240436,-14.15773362416946,-46.383793252839396,-45.784011583395966,-19.26858814861729,-14.567198495851612,-10.307947724817947,-4.202945756367546,-7.091921191023296,-8.849797752223775,-5.856322757485847,0.3560124315837747,1.7342932332342045,-6.0500998912458375,-5.32549751366146,6.082677707459388,11.242519897811846,15.913157074971231,26.401530107391274,30.552741604093764,30.30462885842904,30.98706860741889,19.117900993068133,-4.2262474900785385,-15.28857586794067,-10.99846386372236,-9.770613383193213,-12.276772074932317,-9.665162520555658,-11.09571841720953,-22.10451050538039,-29.7978948185067,-28.99225189084312,-23.546690149508933,-12.603899591388423,-1.2615659696531694,2.692361499425976,2.483751972422886,5.312977150739972,14.234428714816698,23.480909469436558,26.16485714015099,27.885390556012798,20.911803659615444,-13.686238323004414,-44.717800154335116,-28.914327583616704,-0.8990654720173801,-6.026078192018462,-17.148340276529847,-7.969544876922081,2.074189761516969,5.699320574726302,10.115758523511062,4.674492844371932,-12.257699579091682,-19.657975544090583,-11.58839472944825,-2.3784041278322023,3.636772262089954,6.137762667463143,-2.192204173660203,-12.130677940772276,-7.485538676261439,1.5485654568507776,-2.455003971988706,-18.455743879097977,-33.65547132074474,-36.49427081689774,-36.85519604882159,-45.618221555407594,-45.562749933213276,-43.30610856894684,-63.81692229620672,-78.01695144851759,-35.73204363464981,123.4555439100606,392.49275979799745,472.04798514481854,120.63616883574646,-251.64467209467318,-187.57431502279877,8.963326097457308,-28.128682032723642,-86.01176259032913,-26.624247112791547,-23.168000587670846,-63.21514434246461,-46.23213189586061,-36.08249226087586,-50.796043703044035,-39.1809881391738,-24.886216126750426,-20.235975963988434,-5.249609485960349,-1.625398902012364,-13.730937202180387,-13.40130761159261,-6.393666797496641,-5.240044942727573,2.417499058592445,13.366231531995677,12.130200166802444,8.566379857499767,17.126737899491285,29.40379806577238,35.80387155666689,34.21524561601063,20.144577230197314,4.205782282066433,4.182073125902216,10.423183724167,7.423751503432752,-0.6322229928453442,-12.39799386767496,-24.98419448304638,-23.258119159786027,-9.433597450260876,-3.035662385672822,-15.120700094296513,-42.43158351469738,-59.2673188757864,-41.37091415608758,-9.674400914314173,2.9058724865939762,-0.634105496117396,-4.927950406942172,-3.8865633081238027,2.6204397204615617,7.566982688179914,9.591631281346187,9.557960659678617,-1.1330145598887622,-12.338546017905228,-3.4029578226877604,9.796957196604637,6.668748425010945,1.1599450199748667,0.17285086441824138,-4.552063688655892,-4.442229327454884,1.4036141277572423,-4.448861962254121,-16.302185839665164,-13.61586085187944,-1.6624035406743687,3.886921393678227,3.170364916436962,-1.1326450341021639,-10.135770908683625,-24.33010788855903,-45.211807674722465,-56.36979134449801,-44.57242734601245,-50.7620312832435,-93.66333439978669,-110.20086443383832,-54.71014752913195,117.13185505216533,406.69127752310465,505.71670460736857,143.91468400924794,-261.58822491073886,-217.8659804279132,-20.20827630175674,-56.42968672757048,-121.31069000916239,-58.11962703585158,-34.029027259032205,-55.19166353851739,-26.296450146922872,-2.6564844250534208,-10.56034272110701,-6.260600120212013,-3.1646959893047324,-8.70783990981182,-1.109731422194944,6.393777239917759,1.894379997596337,-2.0673139019444715,-2.2022911965036385,0.6482225774914196,3.556363453478573,-1.7266793528742563,-4.179707971074698,9.03770152487633,20.292539515588995,20.510757356515747,27.668211311967838,36.112614088118946,28.441367212078312,20.874657829305278,20.939015775317234,11.974517334036573,5.4023464526768095,7.19095681824362,-12.271815804818896,-42.38461916863956,-44.22396712995803,-27.842515262004937,-11.683837255238151,-0.027883824283094327,-16.783810904090636,-47.9521271751355,-42.210839148499126,-13.06520237776927,-2.2010149444842515,0.40488539517654676,5.369394731295323,3.5234300164259977,3.204297430319915,9.183353355467144,14.426865635092161,20.639438426857456,23.417201494588134,13.673276490529366,1.993052670613905,5.937830862694192,17.70191625314915,7.733131959034319,-24.23599433006359,-38.3177495313942,-25.19220666646479,-15.830787442681425,-12.07593329548124,-0.6396991878625364,3.177140842407404,-5.670652069923005,-12.721008309549696,-19.217836145043286,-25.96051190156538,-30.3938977108776,-40.529121108709205,-46.9415756183283,-43.77493808823059,-53.156267923580806,-67.19542240618381,-50.2931114863375,53.29696647764027,308.22059817946035,528.0987461060728,336.00143380192276,-126.52302229239457,-271.2353970702302,-85.61359924242734,-37.26791982368244,-123.3116316751074,-91.9663123332351,-40.04310883664104,-62.78328085422517,-47.36386216015272,-6.06354591160966,-10.971769566310126,-9.4705303663876,11.749786094625325,7.111523770665934,-0.1661636712212884,8.489309046570266,5.508164182746466,-1.5296588882238282,3.9031816239955615,6.150599664589655,6.184570997147902,16.570513163217186,27.03436726480657,30.178111030880743,24.080213238564568,5.032846995807441,-4.793479144054915,8.525018919574675,14.86214084765716,4.251274322546756,0.35099416942777384,0.524963342264489,-5.273517268802108,-8.653280411037237,-11.431104043840426,-14.951788291295912,-13.824183805647015,-16.831296992058135,-21.2264530959186,-12.061781053028907,0.7323871286782948,5.2797936574642215,3.612881845749988,-8.823935685691573,-19.977676254137478,-8.51988633219917,6.646710766915474,2.3760374889560367,-3.6531001023664342,2.279618633279232,9.160907081364634,12.257534494912225,12.484166665115534,9.043323014391483,7.268120824569846,8.12015605490976,4.351114429423239,-2.3854883808616028,-4.549284497017419,-5.085324112642609,-9.513289755618937,-12.272918435811775,-6.884086056383607,0.9696084744068698,0.8378664280408117,-5.272960500736293,-0.9356028759971489,16.86381908744963,23.507647097385394,5.813616176428708,-17.64813788934446,-30.637621656390838,-32.28915584589213,-29.998564670044733,-32.854788259168856,-31.777015478045747,-28.48321233347753,-50.99123373411595,-81.40189919109807,-68.0572514705543,33.56090800447045,269.7810403465212,479.315122912921,314.8765941620081,-111.87119386592451,-254.68908060786032,-83.12960185002825,-28.65628949448028,-101.39854058815985,-70.73649752834697,-15.520566735903603,-26.539874375637435,-11.317055964939566,25.80851014144664,11.195781923390314,-28.612811895207898,-43.64554755323813,-29.503274270055392,-6.750417489638101,0.7898161874240817,-4.74628854741362,-9.352191654332422,-11.682908686891988,-5.499150781280193,12.49961694793679,24.119184330850295,20.393790066515148,18.824994189745055,24.230345401381157,18.18619548180099,5.377964035499605,6.9805162216186485,10.51973699019378,1.1822726219307538,-1.8918086694811813,5.660759057451494,5.783972804581874,-1.1831160331824677,-10.782975483431292,-21.70700799699069,-20.960685988415236,-9.681056889255593,-3.8099998143181844,-4.164466041510814,-6.757873200720799,-8.775655781290231,-2.1713994462213906,8.980438125402113,15.75558212336668,19.214756427754978,16.453477681622807,10.238530587016001,11.528354102222085,11.763557994334533,4.391971176268703,2.9973659227739446,3.668101946416496,-2.521277888765833,-1.6241422699962618,4.538773249154292,0.45739902055159143,-5.25982103300973,-7.338271809842256,-12.564617673414748,-9.857740624872106,3.4913211842016807,7.977912406355375,1.5347279772511024,-3.584231720195373,-5.125863381808251,-1.8333567482302264,5.810964532686888,10.552017681842925,10.241842585125509,7.057972132522853,2.6634303204377234,1.4452637171560938,5.626681669600814,11.917616321340496,14.327141060016343,9.462677059905397,5.699658796578358,11.657593844745474,16.828157544957566,8.488438960540076,-9.504729894820029,-27.45331931020556,-34.38718383359736,-25.50645422935264,-16.659459520878634,-24.396099776526196,-48.670695938358364,-79.35811722218469,-93.56010697520455,-82.97816255876813,-33.61094692268776,144.56422625335108,405.9633707345244,397.8132295043214,15.953933040134022,-251.54639329682465,-139.78699106878975,-21.21411960259893,-85.04849037801753,-96.62310882030054,-29.74906194566085,-26.578130224602965,-33.28087215938629,-3.20141101296306,0.22214498235506852,-9.039296625657258,1.591411975628172,7.073191346118545,8.064698818568024,11.923570481539617,6.439472557712066,-0.974702317168969,-8.052766675523285,-18.300961954908654,-14.838371012685908,-1.596633111432122,1.1560521273881696,2.1919311341738292,10.811778050267172,19.32310929908301,26.455731596913548,27.493062653133716,18.028049198214845,10.835587790330548,11.886250600278244,13.8193662763539,13.182065600849413,4.829747946007709,-10.516027673098115,-19.349739377201583,-20.38059088471034,-22.431747819772404,-23.31698002455713,-20.49318390430874,-16.51037267197326,-10.08782307218111,-2.7535560534553305,0.2855173236222939,0.6590005067052638,3.6464226308712497,7.335593218339201,8.351236661035099,13.361017166947587,19.701123990884852,8.013590375092743,-12.551587217542494,-12.3808067581429,-1.0450822534186939,2.754952827665295,8.720192843257601,13.83575763689974,12.36305199659845,19.10844461593708,30.030053537338475,34.96826161248447,29.076266883522713,-15.884840233703216,-79.55574077205324,-85.01608633425852,-45.451896032703615,-31.301632544699988,-29.60383730929343,-13.424737271509134,-3.4002988242242793,5.376310279328061,20.94673880800505,19.380997236970124,2.4680470513609087,-13.768288725833663,-31.412508614315716,-39.18338748607941,-34.68583513813736,-40.62637500658218,-49.72067995479598,-48.89013811318658,-58.436628755623666,-74.33192146013687,-68.65408788979411,7.0497682631739025,233.02684266706368,466.3464926225289,327.81753412338725,-115.55299940009658,-289.95538360310184,-105.12161504535155,-21.043263456022714,-98.85505083065932,-77.88755454373128,-16.479018168046025,-32.51158463920514,-31.324515649827383,-3.4676602750866294,-11.772793405655314,-12.475486088450527,5.421283687085203,0.02053685335290112,-6.466454366279178,-0.8606835881821269,-8.256919109481577,-14.256663282043299,-3.1281937099816286,3.494686352090148,-1.8261235153530397,-3.8383525320009895,5.007172777382747,19.599873244710523,31.173898299394175,36.9356384919582,33.407874681950375,16.906049810184776,4.804457582396806,13.014380405142614,21.45177753493638,10.64296088153816,-6.324656008031939,-15.098959028512189,-17.876828756117337,-18.61871660942029,-16.103451600822062,-10.772324575532924,-13.251399365056653,-27.531817118476773,-33.609058504800636,-18.640571112394262,2.9165569427840534,15.0363254844045,8.368747168674556,-14.24467486356075,-25.73196444847136,-14.664086276162587,-6.817866946689479,-12.13723945600935,-13.19532758609754,-8.0800826477332,-5.291375787124425,-0.6910670302643815,7.16511859500927,7.823640648482431,-0.583450489668202,-5.230959017067544,-4.928383329909458,-12.093585535294421,-19.529965690309062,-13.986936029496304,-9.272203324749231,-13.4064590159248,-9.35411528542016,6.543748294773941,21.358770586733954,24.169659578375775,7.732048390821972,-16.049284967892426,-27.31363251377099,-31.14491853221774,-42.47546365913845,-59.64157416775397,-68.55966161903152,-67.78776888861545,-73.92092001033625,-79.1028573235224,-60.456706228102455,15.340998841178276,234.44034816280202,490.3920878566302,377.8562820647158,-95.8287427932879,-308.1381523417487,-109.74895780327174,-15.101091496954563,-108.69631720635755,-79.99401738275132,-2.117022486114763,-33.577782318880324,-55.16493481406408,-28.642852652319824,-25.429300502839105,-17.32032326728874,2.3756030332042384,-0.8870470113147562,-6.009769618436728,-4.451830351164865,-6.225490138436071,1.5640442494321656,9.909599343750045,8.069006150215344,6.348713811715874,-5.867966974359192,-24.032550764635634,-12.868222894335302,17.25354036631654,29.047686618163127,25.936926416840695,23.1714385554387,23.278319541180494,29.68696155744497,31.375347458795858,13.858898784831172,-9.060826188176165,-19.872909213334424,-22.45652174570393,-21.13025695216288,-15.265372469744545,-11.59646896975744,-14.073617612303622,-18.550766382115153,-20.642431782067952,-9.94679965424632,13.918529906790603,16.20975641245598,-18.887926947855405,-43.07801059546456,-27.920189393874352,-11.212843852439033,-11.365905409490704,-8.634079622411107,-6.1973604294261015,-11.61624462299995,-8.373215152620428,5.684368290377111,10.916959553167626,1.2365829848634053,-8.759160552531663,-7.512337506504961,-2.923466110372299,-2.27705547008315,1.8500873659107215,3.985005419368825,-5.519658464218759,-5.611629474276147,15.651023138183128,30.58424516659341,23.792844470964173,4.0411316236683135,-21.273287453264217,-34.48234759908922,-34.429171841004234,-50.434909218774415,-74.13427723008938,-80.32642149874329,-89.0334911094246,-99.77541490237276,-69.54673960930984,59.56690305615999,328.34229602141465,522.3775887505416,282.8358402835205,-181.6168513215893,-269.62517256041343,-48.939776419331714,-17.309248865267193,-106.8213114548619,-57.406094728196024,-19.315492802916992,-70.87029557333382,-55.44437847514828,-5.1535677325255165,-16.007682770431334,-22.554733604930014,-1.5065880498461492,-0.28140133038146864,-2.398759961936058,5.090972138521186,0.41825305348679986,-7.027485905741108,-3.139493018399543,3.22871806960865,8.639063860874243,14.55514707780296,15.53277951318017,10.16831136310864,11.154056701420446,27.914955045257052,42.3445965278615,37.581117833203834,29.92651462689249,29.72137469864295,26.61105594259039,23.425697057927522,13.945488089406698,-21.618294326400772,-58.308357444694906,-58.926744518676365,-42.11977150413139,-33.37047192341136,-25.205183539450555,-16.601996815681638,-12.098586393618795,-5.324118766758471,3.7433230903911667,12.491500802557406,18.48125206976288,12.280039801814997,-0.4406882360950308,-2.012292734255488,5.200772795434976,9.95256592040272,10.522223066280674,7.061037950417683,4.521637926025431,7.263932269350789,5.427302048542673,-6.460133880130725,-16.518817226344478,-16.845239474603204,-13.146814139092562,-10.78902975977987,-6.945609486011024,-0.2065448575023563,3.664587599836144,8.393984826732572,23.76055583951669,35.42136754593095,25.15598933155699,5.810608776629208,-9.27002067268837,-22.867660773571068,-32.24111555132579,-42.06666127561532,-60.81406512390825,-79.68817259618037,-94.0335490977701,-100.89049590189154,-85.5932946932052,-5.4032244602013435,223.35088415116678,494.0873681530744,418.88294015504476,-28.453415189169057,-276.9962570644909,-124.56419312784618,-18.888735500352333,-94.8252092507374,-85.71868325518687,-22.63530068371807,-45.30173423268925,-50.733698263862394,-7.349623596181658,-6.142563983648529,-15.83726969920139,4.886972184433706,12.359216449239355,6.1304669618446415,9.595475115055969,6.513728736857973,0.44017640261009694,9.244799275894099,17.66910089207515,18.15139031688011,20.807189574416107,9.069881376584277,-19.05658673226104,-18.951784934145113,12.804553520206271,26.114045102784427,17.77533048779901,17.739317612736027,19.57350411356155,15.8082646993235,15.676484702495733,9.834581725356161,-6.215889553295385,-16.25677123295425,-16.15160226381765,-11.168823003377323,-6.181701800694665,-12.926323099515747,-26.153538706876045,-24.006716180079415,-10.222848455393638,-2.065168230558217,4.579711403484057,12.523904894206797,11.664464178206117,8.1572872677649,13.47285677111002,17.04963620839855,10.085699481386424,3.080164425656056,1.4473795624010037,0.6609510590791903,2.5027865440082824,10.952062874772334,19.228474320833108,9.971595043925705,-19.468715867515723,-37.61201607618777,-23.580589191348206,-4.4372806776391585,-1.5107563534198745,-0.7698914074021452,0.8164462318208234,-2.2092572954425966,3.806502682802755,18.882036333500718,24.80243383094167,22.515452281054912,16.424890685652272,-0.417728103894186,-15.858904445412021,-13.27173024487745,-8.107652400408348,-14.664007005347196,-14.879500713548762,-1.313326529182536,4.421969143700826,-1.913646571485264,-7.8197627846898365,-19.19109536774389,-34.391896604644685,-38.62334606467921,-40.239860291301,-42.39143487167229,-39.24368492208985,-53.39282404149071,-77.58878494994059,-57.75699264703687,59.184991379256985,311.13368833394264,522.2147425741108,333.1365538170441,-133.0605199768102,-288.71144714701126,-99.87869677244751,-38.17633118720023,-112.15286955407129,-73.27097408696467,-20.647039335038833,-42.364524086139795,-26.57554130576049,4.027042662281275,-14.257219261037081,-20.97386848955188,-5.947516912518816,-7.952292349046099,-5.710871745228291,8.904827063379999,10.371471598834171,0.20536367790021304,-5.8484644637573515,-2.654361981267349,5.899262509874809,13.724659106779761,18.12809319494155,16.06803784585751,14.053583051546173,23.254261911784006,34.520022689173516,39.22284159051297,39.72564904475827,23.078577861991793,-6.373411591823009,-14.215047093050636,-3.1700710837759423,-3.126544848535667,-11.280974113743262,-17.51273633583816,-23.57324459305876,-20.892820144663784,-7.831203719160563,2.999725835191909,4.909642999802905,-4.021394174487988,-13.801157015995926,-6.880155670877903,8.456465106053228,13.600549849213532,11.918769499684776,9.58413260996964,7.390497918871367,10.519405544380263,14.091085904334456,8.167048297768726,-3.2639377931467095,-12.200013115163843,-13.522895729307292,-5.088035530808758,2.7738799391253974,0.10456858658716306,-6.049600379696288,-8.254855127758013,-8.75637248715035,-5.474586480406328,4.396060914033924,10.58625509485585,5.111585611766158,-0.8304828133681028,3.5752858898474895,13.708399088206257,23.39487924781198,29.278438951957796,30.189307724676794,29.42368439421314,21.553463159280497,4.650336221607291,-4.01198142277144,-11.552886838053182,-40.487418481435334,-58.530283305556836,-35.170003914001924,-12.82623613931254,-18.559865445929944,-27.588154525493465,-34.49844860035813,-41.14690886475272,-40.401186602069146,-42.51616737462841,-43.62853548059653,-39.32484086739689,-53.881950403393446,-71.84462704799071,-35.940227762887446,108.51013407753697,358.46357522919334,475.20938699814644,195.129955339651,-203.1461721044657,-241.13688787502426,-66.65019076924503,-59.577261975697894,-114.25521077066259,-60.354495884072804,-26.86769744650058,-45.67969381933738,-19.615899470416146,8.680849120968066,-5.73261946658786,-12.479644338612024,-7.133937898489479,-8.621183963629848,-1.2918514684855609,5.486057129162162,-3.29227736609597,-9.405189607802104,-7.879019327641521,-8.075651712135357,-1.9318425243912571,8.489436510106572,8.525218507848408,8.087508406073002,19.250230057821412,27.501118393392577,25.77398878888049,24.85945963546324,23.59732867831898,15.913603749638362,8.26771790470386,5.484032206697,1.743590392636587,-7.430566329787751,-16.026754462131635,-18.747101080046246,-21.11802150094525,-22.120111924877868,-14.544584576726603,-7.239382890682353,-4.142094747553116,5.298043134653771,8.879345102441949,-6.960480403354126,-19.419638697073538,-13.16084854006172,-2.6803452051233787,2.8006732260998017,6.019034505385353,12.087351132732628,14.092745638098313,-7.208214279102487,-35.771181630160356,-35.08057471803814,-18.87861964171058,-14.227213819778235,-10.785250392797519,-4.970645273156304,-4.289661979116719,0.399719836907531,11.073341853711023,19.069697915212526,20.19885458713698,14.732620080018364,13.527226363709012,12.332373217117944,-10.857859339819996,-36.29939232139131,-31.051030503181742,-17.199089738584753,-17.69880484217173,-20.34789116544495,-25.56738595494359,-33.97587447203483,-36.66863996066339,-47.89315030861066,-63.06038964076126,-54.907431663215256,-48.86292189007016,-66.81462732491198,-68.62365318493306,-27.7627561848375,111.0051080461597,374.41957206686453,470.84845752236356,124.49518038683601,-273.20776504540817,-231.45003043153662,-24.38245627837999,-47.506065014389804,-108.08474799809623,-39.47238106422553,-15.624393476662398,-46.88639675819452,-18.155050071366187,8.11405742869137,-8.735912738396614,-5.028725884039954,5.820057476652506,-7.1484793055476175,-9.767946523830862,3.3309746808637577,5.081459525199785,-3.0479604988389095,-7.608534343592553,-4.549640713666674,-0.8832601516277574,-5.179391989699157,-6.201885180677744,6.193731451780324,17.786110282243897,21.640751038744718,27.630435593092663,33.70012718979268,30.709821616314635,20.106987849320554,8.710717447044578,2.357610933290477,0.5625515842305324,-4.5856347839188665,-15.754072332860687,-25.653296967131013,-26.735760496755773,-17.673165526466462,-1.6039071670195684,14.718810996293566,13.98205580632499,-16.526900752794006,-47.24175953163173,-35.393136193335195,-1.9187411182776195,-1.8047514925923132,-29.020511968377086,-37.43964904067092,-23.48610574879238,-11.709993830986313,-2.4138691550131206,7.665743631871276,2.412021677596762,-14.102701639386893,-13.82972015755796,0.7647131607581761,7.066766469070045,9.114399993682971,11.605736991779617,4.404013257351995,-1.418228306524714,4.607164104321162,4.5964047810851305,-3.8643952434868503,-6.379333691324156,-11.109976550691094,-20.750578211095515,-19.656396466649007,-17.26459229353587,-28.61886495416081,-39.6735957884513,-46.44803718788843,-56.628259685594685,-56.44723284376197,-49.291745961545516,-57.57943621028871,-67.32411850280536,-30.500574521982415,133.92425141264516,409.6866304271363,475.69476546092665,110.03931222111004,-260.7623860972156,-200.28710765612738,-21.11630730084678,-70.43035468639269,-119.76630628782911,-39.3728370321737,-26.00031471010125,-63.369452156278314,-27.600379752540015,4.30278495928656,-6.067793868760546,4.094519323326237,8.313128833207045,-13.998575208958451,-12.526835384516094,4.831131346314114,3.3144696093057497,-2.816324649423307,-6.816058054895169,-12.3509208067803,-4.324654649115248,12.726880554913183,22.04432246749247,27.647267032438556,31.784054192678987,32.677569428276705,37.70685756190892,45.92517023013538,50.38728533099524,44.59520260517251,20.11987264591283,-7.591915922070809,-10.406017868423806,3.5962958707969612,3.0906684096371286,-26.211865647197197,-65.44817306629133,-71.52172913114218,-40.64425683675286,-22.315458516666315,-27.47551748399856,-24.004566989690048,-15.235139669014405,-13.41116294143793,-3.8658215062732997,9.783833864825969,11.713725496727017,8.100528435982874,4.583223416541312,1.20059903434581,5.086387671580858,12.290318791215848,11.974829670461357,6.391118026511403,0.8597678825704442,-0.23859582966241066,7.4657518481596945,14.794327639205399,13.216193845344947,11.010084632434133,8.095437150834776,-1.8057412045223327,-2.958963005805833,10.535883854566844,12.079535564586417,-4.255144729140516,-18.678900212618203,-34.64133071824988,-50.86657996397663,-44.80454775124265,-35.73068247481635,-52.086038870978115,-63.40999939447956,-57.28051943318944,-64.06368098724053,-70.87273492116569,-33.757775740093855,112.93501849919954,378.46503364940753,483.9147665739409,168.43062403856817,-214.7179924675424,-204.01899887327318,-35.52276672916112,-64.81912839859183,-115.09739411560128,-42.351129005524164,-13.729455149179003,-40.16061760187697,-17.40775133754885,3.804726423660327,-5.04060860236232,7.3953661696065565,23.183811465665165,20.0182596749954,16.514125908680402,1.5740007007727996,-19.206542860958326,-14.856907531869144,-7.660450342265815,-17.297770032233657,-11.85024384762048,7.052257974141899,14.7058845879987,27.681591251846996,39.52349466751109,16.970921188603487,-9.189078109626996,-0.22299745668257476,13.060796986917042,8.642548243161476,5.579427947971707,3.4651127755627744,-6.679659343967969,-15.267673268689231,-16.989692775348836,-15.015440688494223,-12.518335290524693,-10.575488134188358,-5.35959848181552,-2.4360609636996724,-10.363384156315215,-15.42469301285349,-6.678825042345354,1.295882528448034,1.611947136977185,3.74617773863497,8.29022492756242,11.109283420565605,13.18559527778949,11.357921231180356,1.1127514952388973,-9.576483676845221,-8.106999448356937,-0.5841670880815515,-2.2496627760714,-6.153589616745195,0.7711755822597978,8.58833941450434,10.070945918491383,14.483100424513328,17.952686077900573,10.801026379094726,0.4096167462241098,-8.417708918976608,-19.308933296761786,-25.64634065230945,-21.65133018338638,-12.292452911163195,0.34090226336911167,11.586050032317722,9.75616444381784,-2.8961860063402467,-13.310105802775308,-18.408984888521957,-20.28425657639627,-23.2540739654782,-31.683004732654023,-36.6608333818777,-36.28827292886621,-42.42155072211921,-50.74431788382033,-48.91432759909749,22.64064264208578,249.3991820094927,452.3916562831589,274.9771929611512,-133.46769554572654,-239.00876759675805,-65.86226031023382,-34.37149193812908,-105.06171642556221,-54.883861957455835,1.8463630349710485,-17.706167708140388,-10.981742725814236,-3.065457754238963,-38.82843838419193,-38.166764933084266,-1.8538930820796882,0.2871035152779928,-10.707495513732301,-5.8045216257347825,-5.069680677579725,-4.406038922141582,5.192287143007008,7.766438710332125,3.2271389937865886,4.066329281241783,10.727827648628555,22.043829070929274,33.76165384986496,36.70961460472351,33.26031076023364,28.302644250389626,17.422402492920618,6.58654607489825,7.212298667092826,7.953403658619097,-4.641748922925649,-17.690389587236304,-19.014178937851746,-15.707947862899118,-13.718305816026813,-14.165224740127243,-17.513020759731564,-16.18699557838633,-5.867622450369232,5.324893174243118,11.335780501140146,12.144229626194447,10.370192867046788,10.80973274256364,9.420379113749265,1.4782571619008111,-1.824342394344912,2.20653608708783,-0.9106830371772716,-7.196247944068598,-1.5475062978817284,9.263109914569373,12.882521848904238,9.81064578220003,5.0781812684419725,6.593412887051326,17.200287942191512,25.647700345424425,17.808170234879583,-8.963006856874209,-34.536504233666975,-33.574672157189994,-15.75156245642932,-3.8600227634713944,4.378562440710059,5.801265236453538,-5.669524858725675,-5.269506900626605,11.588373897731497,12.401975079468231,-1.3021246204546593,-9.21793907775675,-20.234371741880672,-29.81093922782179,-21.2477759879429,-13.265225838028726,-22.77924486132645,-44.899531155030495,-80.94673928407833,-104.85965180573596,-84.37089046512789,-26.67723316982933,121.48601701622037,370.2488190853502,425.4835500804819,90.77400773654672,-228.21082764225926,-163.58335859891082,-11.882197923287205,-54.389626097655025,-97.61076513947674,-45.99555313002982,-32.44370110484329,-36.67411828748823,-6.443235422782566,-6.382804681474962,-24.36679509258702,-8.60893734531468,6.192631870927466,4.069305446847942,4.562431946720858,-4.699333495631382,-15.8243914862723,-7.312954093391257,1.112041899345441,0.23699184789447092,4.567348842186481,4.83144889522519,-0.4226732897904384,8.870040338734738,26.292694328911466,34.311683522457606,32.56779826377928,21.13247933579847,10.652237281374806,16.10313093949817,22.14336448607171,14.79715176460228,5.560357162512272,-5.3418606401602595,-17.85644545639145,-17.652343257073667,-14.222168832458369,-21.248957571753273,-26.222937723078225,-30.427363192654138,-40.111636794894665,-33.38360280037628,-9.533104793490072,2.2212487732892914,0.5892695105761199,-1.2050200559092499,-2.6344481690067143,4.732903303788372,18.81472070529709,16.69284581438864,3.917270431356733,4.61668088629284,9.367837193432733,3.036401991739712,-3.1397541493038803,-5.901320054622693,-13.389171774739168,-17.69224899076213,-13.678517765779521,-10.383993170672213,-7.491847896484428,-3.5224243409630294,-7.603144450675863,-15.580742095823481,-10.9107958906942,8.495644218647445,27.67105144463049,27.73226756942485,5.983216000540081,-15.723120781678695,-19.494337557966738,-11.911957581996328,-10.771900120263464,-27.805515788329117,-59.13660587288538,-89.16613601830099,-99.08312175018868,-82.46496991335256,-36.423084579513315,107.99446390475849,363.4698679440571,434.50400733924744,89.07061609776612,-274.3751951714636,-216.49338080897763,-24.30802126461,-55.612109229035525,-111.30931894430171,-42.83330272415091,-15.923898937894215,-39.090795039842234,-15.141574777221496,1.3835893186190127,-14.489082061856113,-6.96051124036914,9.104944262175188,5.793196608663033,3.5803741088180576,6.018640994042884,2.0033080479586207,-4.589762756051686,-9.44014895736707,-8.020457004578226,1.248785370227857,3.3508601920091206,-9.437138831178324,-14.317100770062732,4.392008655428539,23.37214262302502,23.545938963211544,19.518915443379655,20.399981800873697,18.654014203247712,14.129963352936928,5.217108447331181,-10.290099508396038,-21.411941214156844,-26.785658897515884,-34.071535070703376,-34.52723007796044,-26.796845071147814,-25.0146586734601,-23.789724674193636,-14.193118627541773,-8.743001247559373,-10.500960792867849,-6.20481520655162,4.355843271950473,9.137851617240647,5.871346530280974,8.161921483876688,18.471572781916542,14.33995557740387,-3.171043503199745,-2.5321591907745935,11.007779711447132,10.359934908394447,7.3056120587545434,13.790129151453982,9.907431215310257,-5.643656463540427,-7.063290918847009,6.620448704328908,-0.2911152319211041,-39.02345843615639,-58.578686044134216,-31.039161874628206,-8.246087187864548,-18.546867852596385,-29.292854405729976,-33.92478625012599,-38.94475494242636,-33.325176696506844,-33.987715811835905,-46.617197572334916,-46.72971095077037,-49.06394721711678,-59.59476840973814,-36.47134473464087,63.79094094821009,288.8895577828442,499.4981466596704,333.0837439446766,-137.95862408332138,-317.8114956072362,-118.5643570734195,-33.76453483261406,-118.0309637531991,-86.75390615627171,-10.9610845916636,-26.940311244725635,-40.730103703479095,-29.918506041061068,-39.03496034718528,-29.947387008993168,-7.395304908782258,-7.138493118837037,-6.481237723081776,-2.9855661600886165,-13.218049380903949,-14.971885390380722,-2.3754287389659527,1.530516564265004,-2.692019429445928,-1.3813125481054929,6.179162305802534,16.55988859940876,28.329260948642727,37.94139917822402,39.44088691727781,32.709585551486,26.1268352321743,24.132020161554337,22.395514809699325,15.112562863422601,-1.079760454842246,-22.20064640811677,-37.14939025727224,-40.169194566387745,-34.53491428967555,-26.07511403121661,-21.78182273438675,-24.571314371553797,-27.445427151688722,-22.00336104385852,-6.737368276855076,11.640830496164023,19.52841867628063,14.438747574331924,12.736211787544953,20.39378871865543,27.586344842113483,32.100148907524144,24.888963373957935,-6.980853300493168,-35.233909647637255,-24.75501440142467,0.3349940196198631,4.406712005884198,-3.165557271378759,-8.727851056295963,-17.0059801260795,-21.77909048925659,-12.231007639321948,3.2149302386839445,9.51431877239011,6.545501958346545,2.725594867896116,-4.889933908377652,-22.358680295558607,-35.681762528569166,-34.83922351461371,-39.1575688913743,-49.92251636366687,-41.95671944718855,-31.27146548012255,-49.20002780018544,-70.41388435399637,-20.53078455249866,186.64673124450042,459.0353812463103,426.0185351274326,-1.0931937221504313,-291.85333352071075,-160.34095013971594,-25.507210779755983,-100.91759664139242,-108.29922697360902,-23.77172642291817,-33.414719406038,-57.555247414994156,-14.894697075588434,0.31972921812667465,-8.784637311484264,8.74742380900003,8.258195241338532,-11.386142772635441,-5.477511484006867,5.944747006824198,3.782355392053634,1.849542400698751,-7.4095776516398795,-19.68205885179611,-11.472625309271518,6.4751980268720635,17.7840203978341,28.675744056898964,32.50461773558832,25.39123007391337,26.32791908267317,34.70701136057462,32.56999619496751,21.278958248884702,6.56378244893037,-10.403655116015026,-19.914487868802986,-18.97998011337177,-17.81241635672685,-22.464952051001525,-29.460462485349048,-29.187668272292797,-17.054843076439425,-2.4241509159741916,5.297212472891641,6.61159955631231,6.274048719171244,9.698265332362539,18.73648319035255,30.836887583914653,35.83154885909178,17.24556982676324,-15.042649529458217,-27.27981587694292,-19.956253303317446,-15.400259882265988,-9.007177822248249,-0.5855281870753553,-2.994453233678069,-2.8569906037398716,8.25677587093363,14.65053613889777,17.318031281841353,13.52741834258729,-13.746514377231932,-36.04461298508684,-16.426309974884493,9.70683159712448,1.6139400346756556,-16.838762318556707,-24.15469777782045,-30.367041149851698,-31.697941316011626,-29.530533233215838,-39.25125162917776,-48.158335218334784,-49.92065343179853,-62.83046658767054,-69.82018826164582,-32.4443284275532,107.09608018330742,375.2095368709462,520.4139118440247,238.47231539691597,-178.18573578656762,-218.04321729366842,-52.04662522604261,-77.68773637861224,-149.31631470008156,-80.36722149163677,-33.20879946871841,-52.695409699986826,-30.37709121250639,-5.09909949067702,-16.665057765140652,-11.482043652326727,5.006225548731407,3.4194328525836655,0.6007625403931538,0.12541589217538984,-5.799998029701032,-6.994329467146379,-1.1047063420429757,2.21015651302196,0.6865280944265932,0.5274051203598784,6.108363071171276,15.831542034733836,26.542881604463084,32.88864637945024,31.29694848895374,27.94724811718729,26.99484068826908,25.308537846621885,22.352751399173375,16.760182929567573,8.790490511085101,0.41118462840454817,-14.158541686322135,-24.959008529630566,-14.881278104102599,-11.707668773995811,-37.7843744729676,-50.03542577717954,-26.592561355127238,-5.77092184931189,-1.354283389732065,3.956838280271973,11.591713151852044,13.214420975472093,0.8481624347251717,-16.513598799474327,-14.607779529987837,-2.549188485671184,-3.7300507442761757,-5.625100372705455,0.5403256760159414,1.8855154611076967,2.028482411398471,4.680266066453585,3.0024209342017016,4.471117330241142,11.012036204545494,10.74504067833981,7.573491475717546,10.13033893589386,14.189814250742547,18.083719988142924,21.618615542271694,14.234029106234335,-10.849209637985242,-35.42525251735028,-33.50787554577308,-14.745522008739389,-8.201208825699961,-7.629103252250251,5.391406114947793,15.935068148726145,9.861120283911413,1.040453113957062,-3.5801196688639485,-12.768948129412502,-24.439312032089305,-32.37836282821064,-39.797378889350995,-41.87990356987274,-37.33388565254032,-45.501716723452724,-61.351798744995705,-51.229012013642986,27.11065430961574,235.42169323667213,462.6713320215249,363.54857532880595,-55.59671246488263,-266.549192418825,-115.30555080578222,-24.795663848298283,-98.37532782189734,-84.04246854414863,-19.104010000158745,-35.11071441351241,-44.196297092008436,-15.328534676534264,-11.84250858381419,-10.771721443427435,2.6539786171387263,4.222745120670467,10.279238823617069,23.63055024394262,25.92628786043977,17.060972781358053,-7.6164635369179665,-27.96852358613377,-13.792786696233154,-3.144326114626044,-23.825110238520033,-27.034226021742562,-2.637402360909213,8.343832259661271,12.58599323230226,26.47903195270296,29.41829744930213,18.591455963754296,11.329797684466156,10.106114606620203,11.625598954995139,9.207326407863858,-2.9844875322879725,-15.57742879117051,-21.512457841694577,-21.13105061626503,-9.70830987182806,1.0904767687724224,-10.402661210837426,-29.35039040954426,-25.556665062955922,-6.992632174604827,2.61292182586132,3.166529406449593,2.182807031528111,-0.46445157869397713,-0.8835798315538,4.997431275810564,10.697126270401201,10.118937556779702,5.779219423805627,0.09040298497636079,-4.937349694726249,-3.222710741703048,5.420410846395663,11.45366493671282,9.023998396481733,1.5708198282124899,-2.5745828645743165,4.28931798621266,15.291524766689617,10.823693613276841,-8.538619089847082,-17.72918537537022,-9.335766057790813,-1.2982520746045498,0.16055316044431134,2.469454117498929,1.5627971255165,-8.81863998192612,-20.235297622737978,-19.927827875172245,-3.762846167172044,14.308961932705373,10.446446528424733,-9.421565049403625,-15.64477130437728,-9.21496137879324,-7.084056844599099,-6.589380622229715,-10.989480840570149,-21.087255255859063,-21.944459690044894,-24.20727525725276,-38.78062325254355,-51.079427022846005,-37.30622821058684,96.03655387293588,346.54030531703467,373.6702126909797,6.982249235971963,-283.63417516648497,-174.77301134285074,-32.59389490773851,-86.14686022223111,-94.18674785019087,-14.858581050975147,-12.317609413420769,-36.70569103990444,-12.412678077071597,2.105899585361474,0.7537891674673993,6.465626371188307,-7.567465256928525,-27.97208187591118,-21.218779153197797,-8.566243962405263,-9.070974787913872,-6.0731880919559185,0.33338771865816064,-5.752334177959616,-12.822639132935153,-1.9294080825453297,16.54108229302151,27.118984649559042,30.034760566251133,25.77482249425013,19.599636105558865,21.386982225459814,26.452747739217493,26.36262511983542,18.029177176953233,-1.806305295279694,-20.33881532797943,-21.79593988666893,-18.602475197090154,-22.39132097555627,-24.887319244918007,-26.58301405651912,-28.202578671965547,-19.640876556751333,-6.616524493804715,-0.9196534332492377,-0.770570720624077,-7.402702200491294,-17.031229284774763,-12.825557205297645,1.660872823894585,7.562597004135193,6.499030696835569,7.165891233832583,9.183712502299315,15.030834541025063,19.38081773269455,7.92843632398014,-10.148451589835108,-12.957004077185644,-5.703697827531652,-2.518812411084041,0.2297172790502433,-0.49851076238513947,-14.96711302615285,-29.726563298492145,-27.419430102548077,-17.030578473317064,-11.677650584807738,-10.349988587484127,-9.263606738296208,-4.698365151453942,7.171474087590268,21.544228172176783,26.359400300321386,18.94983684835675,10.766752939337344,6.4687719553534055,-2.8799296544185555,-21.019823010630258,-44.11985581511113,-71.48502941683695,-102.22316009306184,-120.75974259571149,-106.71686884168857,-60.685724570166585,58.34803928264469,308.6555592467557,477.1895030035997,222.74330767441168,-222.14310630338738,-281.2724562867725,-51.014581047641656,-18.515717264866915,-109.57240664108255,-62.03379482795454,-8.149094321225746,-37.63984497060341,-27.626285033735904,2.6416363256825477,-10.463208961688458,-12.645682999343611,1.2702955074243922,-4.067687584758959,-5.6726055245481,0.5825812024061108,-6.243522568778738,-13.060333797352978,-8.882188562252711,-2.2961442787364392,3.595202912098462,5.233458596663809,0.40058098243600226,-0.17375724265080805,12.832975800035832,30.684297459263085,37.33330223067654,34.20143754132111,32.456558244807496,27.639776729429954,16.92580661105762,10.548261438914544,1.9281240772501373,-17.741196140717523,-30.512796652953625,-29.203814477641988,-26.642989783097395,-19.637942643810458,-11.808573034687285,-21.938125914839468,-35.55675293729551,-28.126548680613013,-13.292074324935289,-7.163398198864147,-2.905809574113337,4.056094304890912,10.638553321755479,10.991583652603135,3.101550178158959,-2.4984560536627667,0.1205843396523476,5.8116103437453885,11.33863428938104,8.467739707961472,-6.726085928814593,-16.65084035948293,-10.523591308666433,-0.06299635055049535,5.779426735208654,8.208678190772655,8.166451888227233,-0.7178279622382391,-22.652248350415366,-36.6135718474176,-21.24979915492718,4.353889951270074,14.00745410179073,10.63582467608638,3.2270008821770233,-7.0425886602285175,-19.960548087767275,-35.28113439184571,-51.64139086919356,-64.9151531046118,-66.87400129841782,-62.58330674796097,-68.8844889919426,-73.50315824652326,-50.421491767477306,48.24923317013827,292.3399085980173,503.1385205499895,300.0549792992925,-165.76396150217596,-284.2431547887675,-69.27492002877185,-27.390147855927722,-122.41090933261277,-70.9909361802895,-8.551977348970468,-46.753904309282774,-41.353396766410825,0.37806830670281677,-6.551336065873791,-8.651700542572279,8.008470704474743,-0.6052383459035191,-8.954484086931545,0.6053889369839722,4.770366853468766,6.231552695485397,7.536642360258348,-0.13545764751441136,-0.5975802820924061,11.423213715149686,10.408901901389548,-0.9585121283626412,4.919184233862267,18.63298062696536,19.59602828598094,22.97935301714835,35.89351469577431,37.77755661960298,26.753430538212942,13.94524574994394,-0.49423499231663737,-10.356920013068567,-14.8185136757122,-28.56120543138011,-44.81222475184255,-42.649279851346506,-28.575833103553904,-17.854044624280604,-6.326933123693758,8.248903294407617,13.665019198570471,6.78043206797074,1.104508231699681,4.002289828038082,12.723795783350933,23.49324909702526,18.063518389949923,-14.942151281908043,-39.11478412625839,-25.070203177832713,-5.0163993077861555,-4.895175477628129,-8.842602681932002,-10.515974336731949,-10.63393289432938,-0.6923378084224141,10.099969723587488,10.377315906931361,8.189749340268229,5.344750225306802,1.3770063906159524,7.880130197091089,20.326706984536244,18.7919171639506,4.154737356842082,-7.302822914337256,-12.716478657553463,-17.258572559088922,-17.495724732485154,-17.4412890369804,-31.81729632861782,-47.683085926970485,-44.123282453730226,-40.8040029653234,-47.133997095236076,-46.145947292091904,-56.97855411340268,-81.66271931678695,-67.8218348866939,31.9661765056929,263.8049857420499,504.3079964595815,389.5715476165877,-60.965614448271296,-272.49509191342867,-106.99853741241131,-33.59529261581384,-127.87075826915395,-106.40142442633174,-33.99635601909155,-48.16157018972453,-39.86431811869715,6.925130111772834,6.013121116502038,-5.647492288502783,6.678604069776693,6.503250252361411,-4.849358937903329,-7.130869411014119,-6.989128973670621,-11.804927102545516,-16.88354680852552,-12.197356575604413,0.6391100756024111,7.980673974504224,8.536547785668535,10.28231637118757,15.945599834657855,26.326865041142,37.99864299390255,43.045837239925596,37.84496989029281,26.094937098927993,16.72038611602473,13.926136036926575,11.371983777067245,3.5799300317414953,-7.331090328456316,-16.201774061641625,-17.3035516136675,-6.430093636007508,10.430252959366964,9.240240378391727,-23.65063149212911,-53.907092146266045,-45.16345837839968,-19.044626676702542,-6.325572242371394,-2.177352798783554,-4.4587475044792715,-13.886435512140242,-12.52083849735337,1.2255027489617076,9.0540353240992,9.085459773837616,6.469195819829567,0.7524359390146111,-0.7485105753202956,6.850331241990547,14.382776007267463,14.734115686598434,12.027226045587211,11.269839282396793,10.637811880980324,7.710389685389575,5.123556134920938,2.7578285472616546,-3.3185816446285985,-8.583842156828194,-4.685625824125271,-0.07847154238448795,-12.548776880062638,-33.578535136963055,-35.52761659772036,-19.592755376700214,-4.496224364759504,10.710023489082143,19.195232019961825,7.223944460336155,-5.665073639962966,-10.626556735204126,-28.848038432503607,-47.65083405929262,-48.96069125449381,-50.940974203726014,-54.928971710212025,-57.171142834011,-69.5240616631111,-70.80024415823664,-16.17359548778211,156.3056360460845,415.1952899476089,451.80092636105866,89.57314554264315,-236.85145633366938,-164.5191076983863,-23.871371719576725,-81.02241651200325,-107.341454433694,-33.649830018010604,-23.96911683405389,-40.18793981013276,-10.556249681015313,-0.6579466516695796,-10.366786394491097,1.7638724383712034,8.93092081354285,2.8054632690480785,3.9528977919833297,5.25691083607186,1.6698142017459388,2.565052844473163,5.324410808723602,2.174368452010021,-0.34879922285568643,7.089123683489916,18.689946042144314,31.31346345531785,43.78118163063229,35.13345270706668,8.404994806120516,3.164275449898515,19.50796021722123,26.960964522279742,21.323411483661566,-0.23340462170695098,-31.040808565222473,-37.31462666125601,-24.096681116937827,-23.143485715648097,-22.42880936386171,-10.056114349847975,-6.607245516025586,-12.978351050577263,-11.70365743910915,-0.9665060706337361,5.746668400421204,-4.64584579642262,-17.90350268592637,-9.948154619739974,4.931978052492705,4.633776608962393,1.2213427587490517,6.122944472921759,9.188850078563895,2.0155584699800038,-9.03433785537733,-9.74943579190823,-1.8283997859168655,-0.4872253306618144,-0.6638688156128696,9.28336168210574,18.29993985369194,15.851007071045546,6.9677247097069035,-1.8914313260351805,-6.476176852434117,-8.812535144246384,-12.743618032434968,-13.478036589064578,-11.174936279797842,-10.671710389220515,-6.304496493446891,0.5879181397421789,-1.2388097016978445,-6.216619182340148,-4.824637471524513,-4.362248668869892,-7.651291271297078,-6.295030180011235,-1.871316836627976,-2.449555682647526,-3.971547579109329,4.249365189548494,19.80843685440452,27.96030512510353,20.04128323505911,-2.9358522335109107,-30.04297720542733,-36.808506437695996,-20.976342746703626,-17.733713545700358,-33.805125223888524,-47.777479754407096,-74.5670918427465,-107.74969120797344,-93.50522685056087,-13.906268398861016,161.6678771161887,403.8886707303062,415.0578907514445,47.71738082033041,-249.12670203305734,-150.73313940505,-12.209058381402102,-76.45822974682186,-101.75517399549248,-26.64503994879194,-13.843599217089704,-24.709719595435196,5.307378636175375,11.62634585646672,-3.6368343160773176,-6.174573546037442,-14.847034513311904,-17.26716434488923,-3.022857698938494,-2.2471395229401594,-12.128873218169394,-15.67568888392659,-17.552082506367377,-11.433404090091496,-2.285042036533129,-8.079414401477607,-9.16360747027894,12.230563605991065,31.48790102125532,35.45913746426694,34.18450319794556,28.84854229895977,23.95966367931959,26.373211986281596,29.0320855284578,24.570398907826657,7.898923675286364,-19.938162315391786,-38.07258194533184,-35.87345582314255,-28.988828275841083,-24.816378123089258,-22.957947433671645,-27.426308294938917,-27.042861181885453,-11.948122876742634,2.9887414842375186,6.010290920022834,2.2070871421908844,-0.420691856955286,4.793649388562906,14.87581133651495,20.039908005027392,16.667614037056957,2.782457885624982,-12.220545611874467,-6.346384278559539,12.30589278466168,13.094785890181356,-0.7001279830687004,-10.24086759348705,-20.488144523235658,-30.128112726026977,-22.111658145117907,-4.774800325350787,-3.5554531153475093,-14.714147080572479,-16.48607153674371,-10.695758166584433,-8.387188576948724,-2.9828013385645153,4.67093207919161,2.524315742367291,0.7596818690144183,13.198106965633318,29.942362852848774,37.75144498468323,22.780599546338127,-19.482753918562672,-51.25895235710145,-47.468424974102454,-49.68552496838634,-72.84434778691565,-70.61727303584094,-55.994115406156986,-78.1609993566145,-97.16340321553179,-61.15773576639959,48.100717674069855,277.5477699984945,471.2381784406176,278.21692435182285,-164.373779933543,-280.09150451655387,-69.3344025674193,-14.764922333796775,-107.00454692220546,-73.40802137600845,-11.525090526440003,-30.611639267234317,-21.04487136959213,7.749400474792655,-11.703576987302252,-19.880057016576973,1.6589047234837029,5.302980362417589,0.500323916142623,-1.5910368310849954,-14.45705433929821,-19.550726790429092,-5.610759944541769,3.033062533932335,-0.39263386392876853,0.9471957102082984,8.964061213838974,17.02822170669826,29.0740422038743,40.568524931421436,36.57852986665476,24.661516532872938,23.707667827114157,28.186847513171774,24.971174501330285,13.674698495953923,-5.437032400487365,-26.947270174116007,-39.39750417678004,-43.7907151870551,-43.516093729719096,-35.05870843153647,-26.630219646835258,-26.455192878647377,-22.78458023913089,-11.037255514162453,-5.271382781954891,-7.034214174108206,-5.755233780827268,-3.252850563262273,-2.0104182263197385,8.128738555823235,26.714112726410427,37.59916081691049,38.7987479448816,40.243309316091725,39.622023933800236,34.94222227362512,26.633186810931406,-1.7758778628781187,-48.098217617850565,-73.1853454460814,-66.86448026779894,-55.45632790649594,-44.00419819394692,-31.341193327455816,-26.99239959300445,-22.649083371225437,-14.475520442607042,-10.160239143672317,2.7975391170427706,17.760743071333977,4.303374270824316,-19.99159950013611,-24.22087562274309,-23.759773807244446,-31.322570692620342,-40.58923292496813,-49.16803882715487,-52.605738095601296,-60.23372695248888,-72.64267892580106,-57.66794624639205,18.038069451737456,210.42288898390515,452.25968964279417,396.8969484646208,-38.69243394792915,-308.17469940794194,-141.45396188643736,2.0836635887282737,-82.22982008994634,-91.42817377196346,-11.677705384167773,-31.917183774471205,-61.44128261346699,-21.483477080637172,-8.771276268509279,-19.11910728542708,-0.9003417578388291,4.724951270095981,-10.781834972301105,-9.591589678378112,-3.268833101108994,-8.494972382885033,-9.004470570257585,-4.77137531862057,-7.774338318291314,-7.427552547016722,3.767067007670849,14.351908333862827,23.551453741115758,34.9718601734557,39.46296263503551,39.562952312087035,44.013627317840175,43.92210989469684,35.450482523561426,23.64479438822256,4.277022915485327,-16.292191691598507,-23.09085945538305,-19.125829895748623,-14.2750688573548,-18.039422218458707,-35.80887002034334,-47.58901441695346,-34.79707175452053,-13.27391447460782,-4.895785097444936,-17.046607768202144,-37.75230106751722,-35.216422906003444,-8.520545949693869,4.751231470242592,0.07675615435283767,1.7868369062790634,10.176284482318392,17.452549838309192,20.958139811989568,14.103680877372726,2.3755643317314075,-5.889763567192061,-14.087764514790537,-17.841695927872088,-13.060518508875347,-9.703695041367837,-10.508949312942356,-12.845828627547405,-16.27617055780184,-8.471267017749561,11.390401628108764,17.2901003229664,3.2215542859395816,-9.758088245388702,-15.890108026716835,-17.805341138735542,-19.128570105868768,-39.97394352291556,-71.01037068675194,-72.15938703919792,-61.293732266625085,-71.57857381911757,-68.30083014282722,-13.19776583449643,143.33874246702715,399.56240685120844,460.2395236863001,98.02895600420875,-264.1285600755008,-194.30637202262875,-17.687529453614932,-70.43550840182559,-114.15400236263854,-30.05775108116222,-10.554571265604643,-40.49665055315451,-16.728311489230236,-2.8775576060658974,-13.1211562892328,3.53951786492027,14.883646551367194,1.591930830178506,-4.606853792348533,-3.3153489753549144,-2.0851982552955355,4.157996625605728,9.157976658608359,10.074978588401228,5.769975855354416,-7.772956292855429,-12.722458985741497,8.942496784802271,36.484298133249325,41.56989208179047,33.313605985727186,34.44814744577037,41.36707957415344,44.66130196547232,45.848134702374495,27.156366184829977,-19.84213302871727,-50.44943446255236,-42.52527778747873,-36.46008917699886,-44.242422528002194,-42.11263149589451,-36.44421876209938,-33.37859815819705,-19.182801916707735,-2.4716823017438703,1.6864108333874874,-1.4975314342232098,-4.175684434120708,-0.5960260878460979,10.032985557926457,19.611388797161556,22.944790023205375,16.496347428215472,6.342259952892122,10.846190473058247,21.265694608006637,14.645991003093066,4.713556994345114,4.747398497275977,-1.2975023231772207,-9.99878514324097,-7.994237919972249,-9.069729400297298,-19.416267245688406,-24.77196804162236,-23.419453172149744,-20.64852144416891,-10.636197231893274,9.809303354813185,23.014860503145833,9.204027248779367,-14.548213818106724,-21.14937497247719,-21.565374088800464,-26.185077149256642,-28.121818045960584,-40.777770974285005,-57.70506648006891,-52.0916818779474,-48.493302940373134,-64.04635721376518,-58.560945090578684,21.767453740988373,243.7583083315996,492.2115692203036,394.22442943241685,-45.040086036114836,-259.3074010393626,-98.76221127870224,-24.111930512127543,-126.48677544618721,-116.4112372362489,-36.8743078041965,-46.38465462169399,-55.20794196965764,-18.855715869875123,-9.458486740257438,-8.341668177561075,10.40530505039061,9.693761015205109,-4.765235119205538,-3.8779468672175033,3.151427409730011,6.80959955929619,9.82795660365202,7.530086714795319,2.0413103467294036,4.160036261407896,17.167206411079956,35.811352066644396,42.7104447383301,22.940834030665343,-0.5160468630916606,3.249678047874365,18.903155503293398,22.44895600214104,20.535913213852456,15.177333710530595,1.3084571661185884,-11.16874731255571,-20.907463807550435,-32.502112331913295,-33.80135987603779,-24.20756829304581,-20.44564693352492,-17.822764546151262,-3.632069422742589,7.791725354047735,0.8443634697329143,-11.248069884956324,-11.676272189240807,-4.208363321069994,2.7054010737794756,6.662833754009557,4.71724497773816,-0.6864915771793738,-1.9021616151828429,0.49576215116126976,3.201785636080545,6.14808342075408,5.6107852142924095,1.701258602491839,-0.1960084008944829,0.21433940316459665,5.2081294596435175,14.36291322001567,16.562433284152156,14.881272406529693,19.045815100514925,17.278674778799324,9.699085451681986,11.238017088607098,4.1001341513199,-19.225907863908745,-22.342060564977213,-9.4303414970386,-21.322556038702384,-36.90467684043473,-18.27823512705794,3.4410810226686834,-3.739302082696124,-13.733644830509457,-11.858298436229344,-19.397134647963696,-31.606956810166427,-32.937875047516854,-40.455081972489346,-51.56693835211767,-46.96843846541181,-52.41459003817283,-71.74778223601405,-57.092455396758794,31.961555127522374,245.75841435088637,475.5988762862229,373.98510109353725,-45.44663141039767,-244.75333798693939,-90.03979623604343,-5.910535636836592,-77.76108899566552,-77.85702526105142,-44.763760864883714,-60.559063393353796,-50.12482930935244,-26.91781614575119,-31.3657324625158,-20.556253264830815,-3.5513808905510835,-6.549139598819466,-2.2454041344292524,6.217657328749954,1.3357623825845168,-1.5837638739079611,0.1062122377686272,-0.5638285640497381,1.753892446433385,5.444923606660337,7.327413420783388,10.446306686111186,16.115887308333527,25.49945626789897,33.746152841396764,32.25383208452141,24.392560124898743,19.2789515860604,18.595892493340262,17.207602000972503,9.456113367032842,-2.846226108464,-13.789196564106271,-20.533469519674764,-20.278202413353903,-14.449209258850114,-10.113467417537567,-8.781650636414597,-8.766183706635822,-8.584619591310217,-2.7689592154991542,7.922304362936492,15.382731326339373,14.69582493262455,2.964550184752404,-9.130105123167201,-2.372522229539639,9.369564846635239,-0.05150933406448388,-14.347993072444233,-12.069646758141554,-6.959267223876253,-6.043145886745212,0.037166225369789974,4.316435483510002,-1.4533301796376814,-7.661072968147501,-6.285723126536481,-0.4467210783063579,4.523902064423523,5.735929978256432,3.7166976003996144,1.681142814981318,3.9975258886493323,11.839384394207327,18.91225912782138,19.562167907864644,16.808095498930804,13.4571461383159,5.8851883599254595,-6.208132144728475,-16.147505851997053,-21.157239687197105,-21.80073694855131,-11.592978114617111,7.981435283598335,18.380542071462415,16.62710077960503,10.050879638606668,-18.534745229054103,-62.364035568031795,-72.6412707734187,-53.25158817692066,-48.655704438149534,-54.45724995396314,-61.33752731892646,-76.8740961217021,-74.94010934352625,-16.503116253473074,155.54125895387813,404.859519924611,423.89962893175175,61.69493990007356,-239.5802722196097,-149.89174146341165,-11.346030651533185,-72.40473015127317,-102.2596102259721,-33.33205452709795,-22.784282669865583,-33.50889896669783,0.17734951552540945,4.514069400347829,-19.869844798256675,-11.704458291978028,6.973055142117293,8.433185092400018,10.72052869928796,13.823855026317258,0.9740711616760471,-21.634146727659875,-29.47388108683324,-13.766363021943665,1.7099322056487989,-2.316691954757286,-7.265104558671338,4.996996176772541,20.040984560377066,27.458270749691017,33.672286618443245,31.025223500800834,16.386241858568894,11.459715320592156,19.191368821197173,18.753692576091222,7.654714608790876,-7.089679271409551,-22.40400738732131,-26.8360683489119,-19.053312854754473,-11.601382293367744,-5.354027627741883,0.14491810014049467,-0.7974388926793923,-3.032043161755105,-2.300888088207195,-4.87039820740666,-11.614894661583818,-16.80734630313622,-15.818331763560796,-9.570656686668432,-3.4516459539444417,2.573913624174571,5.110395372819946,-3.991608278719582,-12.145895414593799,-4.901374577066784,5.1009064525951455,9.198411191558048,10.842651163333077,5.11110472521619,-1.0246413316137153,6.809063451543649,21.237138301144807,29.678843837858963,22.644739064256857,-5.2739687852228645,-28.434775702979177,-21.02926495071852,-5.379551232860498,-9.398286692003094,-24.509036316060424,-32.297937903632025,-25.99915809232822,-10.884921424506002,1.0678424025962734,5.17537632823765,1.5102359589512382,-9.88544607798104,-16.77495519626031,-10.460212968246624,-7.384472111264316,-13.696808284955248,-15.2124727953401,-27.87453057874892,-64.1895070851468,-81.00688748748024,-66.82658725476361,-65.86287003310635,-71.85672742922783,-30.06790194914754,123.21241235839938,371.58761823574343,436.27047363163956,103.65171450959805,-249.49144983589568,-205.03362094638356,-30.436616321627316,-55.463003320513344,-96.07526813129576,-31.387558158784188,-14.661011523146719,-37.56969517213868,-13.72115773796659,4.1014796336443435,0.2779728720937946,10.846105382565906,9.755412717192659,-10.17363638841503,-19.916857512579114,-19.712343477197948,-14.873838688161626,-10.072107988551398,-16.009968070393594,-19.824154264952522,-10.021108432415026,0.6377581017620843,8.615160945428899,18.387486389173667,24.34081621655783,26.136216421728733,29.937608663102466,34.934367738415865,36.27988490221429,32.553826836325314,25.668615763062064,15.309610655056998,3.929260719916108,-1.0689791994623996,-7.324834013561677,-24.49489250305669,-35.00138948627172,-30.02188588638586,-24.108860114236684,-13.052881259026053,-1.6284475720501135,-19.501462917466576,-45.959356442725735,-35.23349173573431,-8.219967776276572,-3.931507890932185,-12.944515138337717,-14.622626951992135,-6.02528108047308,4.04976720002605,8.41385368415818,14.462116977514572,23.068321233402365,25.498803959054968,23.34597451427826,8.700320120572876,-20.00451912413272,-29.82921036870065,-18.815537873383885,-22.5274769167812,-30.997942639246528,-23.18961987138044,-19.99098666666554,-23.19806445326968,-14.868362136651992,-8.596382369297487,-11.609325974279335,-5.687358332666612,6.185621362075679,6.093410168824542,-3.8269455154373997,-13.728145545423764,-21.584266655428046,-23.95447576779178,-24.3120579443063,-34.51659709595248,-44.21420066003657,-46.33619263484775,-65.97169228352638,-87.56717992677211,-60.42144085721232,40.073004802117325,252.99433785125493,463.48082918687794,322.4784532363114,-127.96153595468009,-306.6856808393329,-102.6985151351058,-11.284423007569956,-101.75430598402842,-76.82900139409966,-6.418501568774282,-31.687489162146907,-35.820878205183675,-0.3735731934046882,-6.2077459211136485,-10.448156357906699,6.450354065132416,1.492553272982069,-7.061650752051876,-3.2655081261576404,-4.674112380734169,-3.487564729246256,2.2595848614385545,1.1377181490011987,1.3088072227093495,8.036713570235149,19.157193717269383,37.13790505012326,50.97456580682588,45.24358464516288,23.622594965259097,4.69534395643522,7.359310577121976,25.675060993393714,28.810669260954917,7.802283326652007,-13.962840443051594,-20.242878506664347,-17.215813187452362,-22.805311001432823,-45.583334660698,-64.35968097196528,-56.68782221523612,-36.82698188091462,-25.877166159399014,-18.52185448355951,-8.989294680500905,-5.144482733847838,-5.4753694610537025,0.22041641561336522,11.526102713357407,19.97292917299526,20.815858818645836,17.316810142289476,17.804789661225403,23.001718315639632,23.643307022780178,17.296323805917048,9.388388197492038,-1.5264144149138676,-17.198184000663545,-28.094291700647645,-26.53495138158729,-19.76269735757585,-19.308336772491245,-24.218022312580032,-24.153696219253778,-16.546846018464137,-5.019466267269161,9.077742966851236,14.640855659478316,1.7737561791267549,-12.414825187639488,-15.456483826016452,-19.65153584875603,-24.493457326812077,-29.954742509419557,-48.8691506694854,-60.0617669462645,-51.15739649556667,-56.31802784128038,-67.23171581093315,-38.12617165109558,76.99008048225497,316.91221423221856,484.2008903368345,251.20739965291128,-172.5153660893837,-245.09841214777364,-54.84609410120745,-35.619150100547664,-103.44282831343207,-44.81514557335762,-5.411266186679825,-48.50748790187759,-40.08366755940839,-0.2856059924320231,-0.3632638838615918,8.115900255001012,31.606909449486363,13.141040793367667,-29.115688322230127,-37.698854659534845,-16.32599706952063,-0.8429786985683236,0.15609186358526372,-10.404366677327845,-27.180446920865855,-26.792543900716144,-3.795091666996074,16.98625831970742,28.06329929992497,34.59367830083407,33.68550209897084,34.13616447380258,41.34448861312519,43.80500411967374,37.248878696419936,17.80635732497884,-13.387832050287095,-30.390106983636162,-25.750846272035048,-22.114474615632872,-20.84866324006903,-18.280621396730226,-27.781730224719325,-36.801274699399684,-23.75304834877982,-5.75857092896119,-3.1822701203135324,-8.001910342214602,-8.636601495603474,-1.6578549715701931,9.837909318386984,17.6857893811154,18.076047973711088,12.132507782793988,7.605700278103459,14.985529493312415,25.12456163055796,20.629917883801895,5.883204580497581,-8.991538065946095,-21.254203698864934,-21.887886365370004,-10.193667672922526,-2.469105965330879,-5.235805352453886,-10.43552740135052,-11.26830052481258,-5.051368198370394,4.086130230434305,6.116494389364439,-1.9153422353148262,-9.54976643613561,-5.824251964336026,1.2555198159083991,-2.479627444018531,-5.968464911287845,3.777336139650778,6.759279213936789,-7.829293713706855,-15.644022229542278,-11.836193390222151,-15.609138066524094,-25.664532238655017,-37.563118725993355,-49.011201424914695,-43.736947418035655,-36.631647456763616,-51.68229100325378,-58.83357877204312,-22.875098543587036,110.945455789944,365.43024843102813,468.7991025969922,151.62202662032178,-226.07303152591376,-201.51000002515144,-29.310418956941596,-55.03634305523142,-88.690757594419,-24.846421808061287,-41.35504204658004,-88.48729727465727,-43.38692204713267,-4.182319765420665,-12.876090530327556,0.4695437822309403,9.759744337768009,-12.774767505617017,-17.880882645753204,-1.1531156433727592,2.6887811187848047,-4.744464809691912,-9.153824727302533,-8.476476701393912,-3.476264226870872,4.107439512339127,11.651094893322073,17.261880008517288,21.878037876617405,26.968364272629792,31.711487583049646,36.43602055161906,38.26619405065981,33.313930879207525,25.858993993854618,13.845777790336424,-7.558253374593791,-22.15423460343745,-21.839729817815066,-24.558685687223402,-30.640901693925127,-27.23261970344047,-20.91659504441412,-14.838727244931583,-5.861230234947783,-1.6120810680852014,1.062541914896666,6.495058089931585,1.2219691731109226,-10.14132398624427,-8.1797267293044,1.343731969967884,6.054814007967964,8.283906172572882,12.660508733583004,20.395651359489147,21.937142920555587,10.377459656392936,1.3592247702339737,0.8219918129484061,-4.662164828872591,-10.756746622748183,-7.571190400749236,-0.8735826381854235,1.969732127290742,-8.738489922615715,-28.896769013299092,-31.61711194238794,-17.74132059387589,-12.490334009094848,-11.988514181391286,-5.8457675262048205,-1.6428108633350824,0.4132861026700212,2.497791344425777,2.887601662848751,5.490606592130215,8.094924689363424,8.19724360745969,8.648012026120627,2.870637811942024,-6.070827207875626,-2.9072721892143907,7.497524457600197,15.995572629941027,18.97550917365539,1.2277469243339745,-25.806296351331756,-27.31021387924644,-17.81154650587886,-27.54153036103032,-37.17187849014486,-36.106600007415,-43.72595768357303,-48.63360314191886,-43.128212685050386,-53.80583124640699,-70.90299934529507,-56.18770522219026,37.15046911097063,266.66980608071907,475.58584799201464,320.9438247505003,-95.28878843813995,-242.84050323261704,-79.46047217996524,-23.55933489476663,-94.69705649244811,-66.88057637030148,-17.872251799328133,-35.20104088502299,-21.349500160622885,7.820272994392086,-13.915758626701058,-27.741995704216563,-10.195970626857246,-6.479286607549809,-7.434614479659418,2.378240183417913,2.3660265433599093,-6.1065745588554865,-7.060711545127586,-1.9488798905634621,4.376787758433542,11.6688704460757,18.444210493918746,22.8044155482313,27.6389608299519,37.89127213936962,48.05379728281252,45.96010040477765,27.692898834047355,0.31043052192511666,-18.34380865870417,-15.475874395518844,-5.237258912284059,-6.215367726933666,-16.565874232682454,-30.200967862342846,-38.95241961514361,-31.515897220772757,-15.2719869125397,-3.5889128903820655,2.657906852718166,0.07706971552090991,-5.2159177761655,4.697617035811424,22.38116902595419,33.022433403058216,36.04575730147481,13.972019470532908,-29.748621712607928,-41.521426310396876,-17.460518842736164,-14.325610305587634,-31.556167827321293,-29.722003449684212,-18.804065246045088,-16.829318816076277,-9.67232829214863,2.1269549401430012,-0.6250027286138256,-13.173435983999623,-14.280861818423476,-2.7053275551637714,6.198622697919575,5.790177912604161,-1.0919013941521865,-7.847104616398823,-5.933773804584693,1.6588807582883014,6.054241242232772,7.270567522432202,2.014232236483327,-8.458776412746719,-7.908698498238804,-1.9502048603807403,-7.466262356893418,-6.481652269803403,7.4650980779891345,2.046501265043265,-17.9122907085676,-17.0190881319659,-8.882024084299596,-19.25613425357173,-32.111928731328206,-39.53145274657706,-49.613577378591195,-48.21064460745055,-39.20274921991014,-47.37188783506595,-56.85320713047461,-27.02606669542243,105.79407297644396,358.8793429410459,474.21524227803576,175.43114537204863,-229.00814505064915,-249.95549460761274,-61.92254099143008,-52.094240811519334,-101.10633779679847,-45.151805959809955,-21.841840483364663,-48.183537393993646,-21.903107239930556,4.958742632374044,-3.945702390655935,1.3025704276219763,0.06706235103474079,-20.628143248587545,-15.270280909524553,1.9115652159365073,-1.8174154486354084,-6.282465944435569,-5.817521487195291,-10.557665239174316,-5.368946554902934,11.365668000900978,23.355881873765583,30.938202594866517,36.39460542111182,35.12416132798147,33.48809698766222,42.588846975083605,54.13385408409519,39.85410457287859,-1.1031359330799395,-24.063784414061075,-12.080413403311379,-2.257652705136362,-15.287543320784238,-41.05646815076402,-67.57905881938258,-72.39233133056123,-46.962869740569666,-21.03694594613389,-12.84018432416973,-9.005560092219213,-4.282581112277331,-4.248649289183508,-4.10621231572437,2.704290452052728,9.030571717944456,3.7271867191251875,-7.900715764008305,-13.59167737608843,-14.257063181249638,-11.58826021994646,-4.596831752075655,-4.789550781998212,-14.522754812597466,-15.500032046397482,-6.058147885293881,-0.8558828237919638,1.2118065770611253,1.5123965166801323,-6.561247644956243,-10.008233314974909,3.1444416436513674,13.80259334220459,9.54026883305843,0.22854107905714827,-16.12233146371841,-35.805449716861304,-32.802996386275794,-9.861670636725094,3.9482214460328837,5.773250786415346,1.81212762955915,-6.599657250836483,-6.411920512012108,-7.921845943039477,-31.984691631760548,-53.37222652256973,-52.97502662064272,-51.9692032380255,-54.955789632222185,-58.831922127900484,-66.59301917717575,-55.76727173721669,27.0839358206688,244.93691067039322,471.94836458598843,349.73270321184583,-98.23753896989425,-301.4313814420061,-113.70175799057836,-9.326483506706884,-89.61836832975564,-71.4248667748357,-2.3447741619125892,-22.99534470051006,-29.458183169928354,9.342975388588505,16.203817815152433,4.832414272681191,-8.715637545430994,-28.74251500698709,-24.46139549660592,-6.116235697624596,-3.831252598946061,-2.7150802147298263,2.450401881292027,-2.388938088939323,-10.041088980410702,-9.338032239798139,-3.440223911546955,-0.4764383071874909,2.91954723484287,17.710821845145723,33.63493091483822,36.47727484119683,36.427231529211774,36.46320349813155,27.61892314082061,16.11167060717102,4.513244496933993,-11.531463444856263,-23.86164133701878,-29.58279844347203,-32.120314304547364,-26.87508743676078,-16.85139820539618,-8.102764206920398,1.2533616424840903,8.077378141551435,14.145232111425592,21.322874020655817,10.088125721187954,-18.199579630057897,-28.75157027215422,-20.590235914494997,-16.964818207204925,-10.495703637299108,2.900579402304672,2.202936108823158,-12.76506937887046,-19.72449204043535,-12.259811577495968,-3.3983153342641437,-2.5434028643931352,-3.6958754866356607,-2.3664242543233467,-4.237579303885372,-5.02335532613958,0.8157448755030074,0.7559686242662753,-7.640531900467167,-10.123336873892754,-8.515826332183035,-8.809321235367223,-2.725580073579244,8.448830180474262,11.883816331148108,4.544871263277839,-5.133335246939695,-8.391635167145619,-9.295417588207796,-15.581644180906967,-24.6104301969622,-36.37075994953275,-43.50770680180038,-33.911064146700696,-29.797530292488833,-41.98799351781425,-37.279762636960136,15.21304740795398,180.50560682090352,423.2268077120308,410.4061111784101,12.394383876160973,-284.2260108632503,-183.2024332242486,-59.056041935702325,-112.59794509868757,-108.38258905401028,-34.55918559991024,-39.42344268447554,-50.84188910336017,-13.270669035338635,2.5384359312358313,2.610773166812751,13.802838364349682,11.501141349401816,5.177113384636594,9.525883273053438,9.844523670452604,11.50408518850109,16.593504701321464,4.365353967308208,-14.52266832116681,-6.79475485630706,19.1383463880874,25.487094938746537,10.710004488605552,4.904647949554671,12.50056932472537,21.05913741679776,34.461046336462346,41.859318848949385,20.18815349738239,-9.936912901819142,-16.19921711387451,-12.222142839083723,-13.803372624384416,-10.857673170715763,-9.194303452393463,-19.740544851982634,-25.683712409548914,-12.880790967531292,6.329141159231947,10.391036688849088,-11.355008711789306,-36.056673469246725,-27.720728103187376,-0.8965168961615726,2.8567723164273087,-7.251347116369514,-4.568068149818649,-3.225066579974383,-10.614427501475316,-5.553151705229157,7.4257184345135645,7.090420581912224,0.6123429089089021,1.5991380921208922,5.8284326803024005,9.985750305272447,14.75578116146782,15.061411011884335,9.698511958862309,3.640662971446767,-2.810533245468888,-6.28671692138264,3.984963142927635,19.01173844683408,9.402403625859657,-26.69780488451948,-54.63008850098157,-50.84771385624659,-25.92908132054169,-4.82048192286555,-0.7725391163860191,-5.273890127087253,-2.660787661108461,11.109020076379473,23.30592009456047,14.684149533946965,-10.563857232150522,-19.883505410285352,-2.6249849140583876,6.237148608531946,-18.11098834453128,-47.03498737990799,-52.31225199074588,-54.63718221747347,-62.24999807577258,-45.53093999733988,22.878249220346007,202.5923792613341,454.1050257232566,453.95035530124477,61.63388904565138,-255.08812264526165,-170.967457618747,-45.20874296562627,-107.3860014486439,-108.03578667519506,-20.1549286102125,-27.80293297345767,-44.274446855699054,12.886483405515946,21.624097899742015,-11.31377329898234,7.569300663625867,28.850897579293143,16.322943376894784,15.914236969653318,13.73855231967604,-11.738446512347071,-20.887362521615042,-2.2140511175595314,15.260514844052995,17.03204179064254,7.0169510982863255,6.120770674825195,21.61812891951611,28.18075082455693,29.540668835002947,47.4876292815817,52.133793162068955,31.515027291897113,35.783934598077934,58.05540405544079,39.74209454052073,1.400559992795083,-11.566213384277969,-20.69909388357409,-31.94248312228448,-20.79030528122871,-11.913756882548991,-20.230700718663666,-14.99159564886254,-10.460260831119943,-26.867715182544803,-22.908365388450466,0.8947628018380025,-2.861363600824194,-14.944304741662425,-4.701259756966401,6.6200457621565345,14.225745456365336,20.215618463017673,8.369720574456139,-2.510150614420986,8.603848977436042,22.323913523076047,28.109566163432646,21.143930754897703,-4.536045129756067,-16.96206387170331,-2.710721111372428,0.28324440640188087,-7.380833571907379,4.34011179385004,14.016528974756051,-3.9655096822455764,-25.362631201288234,-27.17629403630996,-20.893861084598175,-22.70263910360813,-28.355966332723913,-20.139193408380343,8.529740380042993,34.32396797744784,23.369056391959376,-14.321364083993108,-30.64222612096892,-19.055515204422658,-17.87048349068377,-36.531787963210505,-47.04074848923778,-37.14826595823117,-39.59701195891439,-72.65469714941848,-79.9530893412528,-13.409216439890372,139.92531470956368,376.211622341245,469.07408716060326,153.7297313861796,-243.28158394278591,-216.28398899844353,-13.227014111893661,-58.39966080672718,-127.90972844184842,-28.25027314556136,1.5339172817154676,-55.88717698370628,-21.734569160195825,23.378090480141033,-6.093275248564272,-19.01833278549469,-5.47691498400808,-13.664749565010112,-11.873386491238325,6.666804102313538,1.0859023413593203,-16.02474052172761,-11.162241912432817,0.19303409137357175,0.12955234287414719,3.5213075499795057,10.013496072639072,13.400074244846625,34.70798138190397,57.8009960367841,42.40974406829947,24.0036386786629,35.6749488819524,32.199166096043314,12.681993390600786,15.55597044695306,11.02959571740125,-11.407716458544444,-9.292871154668855,3.6094643696473607,-0.31166548867534694,-10.463098709529266,-31.516615655274933,-45.467307665955076,-27.546698289211488,-30.32332277543353,-66.06817362705591,-56.22610381292781,-10.864295312412398,-2.965480513573766,-7.904821173694424,14.203813232051886,29.030645934056867,15.050887135571887,-4.046390918691987,-9.850470199361176,-6.857725718444971,-7.922041088808813,-11.181986276945896,-9.795029698330445,-10.982233647837603,-11.438404596158865,-0.7355809125427033,4.968268584923315,-8.94634350658744,-23.079625503719978,-17.71113173699586,-4.067539805558541,-0.9674980310274446,-0.009458995451677055,11.518623798183286,12.288689770157454,-11.63905985181298,-31.818991086590778,-30.213520010513818,-23.737899722467752,-30.73785667386121,-50.366023527624314,-63.69763710792432,-66.1753782393198,-70.43858765381272,-66.66442195764645,-28.311825180256776,113.55367938672467,387.84812772332054,507.393313580641,165.81249663005116,-274.35986062137863,-270.428612518563,-52.145932664316035,-54.93023922419756,-113.13784302277142,-39.46421752320663,-9.509540674364409,-45.486214257593296,-18.46524207769084,12.137799928450766,-10.874214891996246,-17.400462387167444,-1.713770684716578,-5.7556829777716505,-14.085844173422462,-9.205976018192654,0.7001747648994687,11.630440343112896,14.824432127825887,8.082738061421075,16.934874228385723,43.9327492294799,42.91415585765654,6.543898294998038,-12.43652606053227,-7.1371064183791635,-11.378382462570695,-8.880824274913365,18.390674295700627,35.09736574057368,23.977970611356724,5.246531111087118,-12.709533869327604,-24.16420594250612,-21.71486629132303,-19.972820964768907,-27.16817486275203,-29.34137949763069,-30.518400309847443,-39.85429372042773,-34.34452439473174,-11.576147433666076,-11.303623778324809,-27.863789465327937,-17.56402924549367,6.06968405140281,11.098441435317536,9.277786497181355,5.2668809721053,-5.699062266248982,-5.872327404410787,4.584333881093054,12.760922453603921,21.686355656697337,17.904171750597275,-1.0393949509749216,-0.1107547074520201,14.792758045245279,6.500596004198933,-9.603654803958136,-10.544903155541967,-12.894171662038673,-20.642516172620557,-17.38829061229194,-3.138434783155855,3.945290060331754,-8.094970914738617,-23.60838384202716,-26.22401391702568,-26.060321223069092,-31.90436586176783,-46.33322186307562,-65.01351285676901,-66.00682876421637,-60.513954639874136,-71.53648850770863,-62.9983366602917,6.5187721092322874,182.2839578430709,439.1814585455501,462.17256396365775,61.013853628438824,-285.2488972961777,-178.97226072986282,-6.132254795053891,-71.90209146112586,-108.75334464662444,-30.063897175854805,-23.12379823267161,-52.53460542307944,-35.147959889963545,-27.341670207794408,-23.03763294842951,5.277618083464743,14.390853356956358,0.9054660241700141,-5.264481495914753,-5.568845782334815,-0.47980755001577835,12.871028041684113,17.997000743931764,-3.20125037317284,-36.46752564938973,-38.50102688087439,-5.3969410703362115,19.539712902150715,29.589834565742095,43.563734916421055,44.34780040405643,26.905889310126,23.400250672001597,34.89428401193416,30.68484805932863,7.732721372949786,-13.6058111636417,-24.495252030616946,-27.823422163400068,-25.89041413529629,-22.926734963261698,-26.622849472073547,-31.389065262818143,-20.457427664445863,-1.4404151269244343,2.8343647423124367,1.872460861871002,11.47708600358802,10.968322619372925,-4.714978918665587,-2.297968272475436,15.803600770522134,14.68867022125399,0.649679202096233,-3.832252544633862,-5.843856244855993,-7.2938968595455105,-0.24998730600310504,3.2549958957226908,-4.38547044953668,-11.801483634493145,-13.839414726380275,-10.355221630976821,-2.2498015099237403,0.4033009638590297,-3.437150633566354,1.0235495332436941,18.557618108818172,33.61581203798159,28.348087846632012,7.016272306010673,-10.86042783134759,-25.0437112712805,-45.699526030196566,-61.02663890670833,-57.10928713886895,-51.42642697522062,-72.42712009942416,-103.5275206182482,-97.54373594330856,-42.829897800023495,98.94694669993055,357.6204021366648,477.8989089703191,177.0852913343338,-215.41664607019896,-212.65225733997937,-31.973903069128035,-51.05415680684207,-102.43351763847468,-32.48768742045974,-3.322364482508462,-24.196135876029015,-9.018557907531797,-19.548242493706283,-48.54535592931529,-26.025999482150603,-1.9742067757278274,-9.27805805228059,-6.377446945114205,-0.10768152598556213,-5.7148220906350655,-3.9207933884623896,2.0303300775194053,0.14903914585440736,-4.547310670223488,-5.4746148744262175,3.6418580483134804,17.355757643939825,23.78784258633596,27.99233292561162,32.533159152620364,30.754614472338012,28.561736513411475,28.067797189668667,20.771342937996934,8.82129595381928,-4.391803512881854,-18.447292668654203,-24.94232782385566,-24.382073815490198,-25.513116953860724,-24.345978076012113,-17.674178962393626,-12.056924884295917,-8.511298969194302,-4.856710950344285,-1.3551776906244322,2.189404462943776,4.700975326159133,7.8203965804576985,14.041696546647238,19.579221976122945,22.55205589646322,21.932439321814762,12.95250403225262,2.035067443738514,-1.8479107829225798,-5.0926482318987905,-6.934161114864711,2.344498964531127,8.648116910810646,-6.532944111978853,-27.06622277976072,-28.03378855080854,-15.821082006632372,-11.496184320964687,-14.951810857187434,-12.130860602363818,-3.984298010375542,0.4813308357074506,3.3133917741536707,8.55308557410164,18.15694157526331,32.498486535661606,36.72485343548002,20.28704328518798,-0.3187190442120602,-14.207363386773551,-26.233795087281038,-32.74706621400781,-33.02893381489146,-32.47971889398159,-40.660797556659695,-74.95975576509075,-107.56339950927386,-83.0220235193422,10.07623164222511,197.82668217955234,416.03342083453646,361.0217806252302,-25.058197158450305,-259.80131121620184,-128.58188957357197,-23.64546042937445,-94.52356006177078,-92.0231946857423,-20.801671058284693,-25.5197083145613,-32.242179747187976,-0.44513414248723926,-4.071504663527051,-16.92219543839278,1.4016890045861845,10.989900867221209,5.60109481151061,5.314731043927259,-1.4734428589305386,-10.77107424786401,-6.630189019691923,0.9453693028311241,3.108855231275598,3.6208699544959986,2.9969556901633885,5.6251486818536645,15.906320415124945,28.855983103644277,39.22781108114931,42.32299041605541,37.27579290001142,31.479915386051353,24.20365550786217,13.683936187932698,9.499862325834393,4.550073830062938,-11.695452965542598,-19.972337132083055,-18.76505898781879,-32.5936843452363,-46.0329656733475,-36.719271823001435,-27.76494025662698,-27.096294062462356,-13.092466768526368,5.590486814172689,8.24666453727393,1.5563525758631318,-1.7402753917604463,0.7809070597883672,6.47974060901163,12.269811928588474,16.57385119635135,12.95923717798497,1.2391370374847042,-0.741514981289864,12.042655454207969,18.652798664806756,8.61811787320627,-5.809655902829036,-12.181113269143767,-9.31404242042373,-1.3416565129303977,7.464380807682067,5.11734317981198,-14.999354153036219,-28.045288757206272,-15.716605507900512,-2.0694016908459627,-1.3641762160459852,-1.1615351701281025,-2.838334248809905,-3.8941315881490084,10.108459125287375,31.68527386733991,45.99398302058814,40.231267943934455,2.868157231099591,-36.0601431518757,-39.235603332727415,-29.265213329460956,-37.54608643891741,-56.49188229132988,-70.00300893198305,-71.72510435816051,-71.6345679475745,-73.82160718933667,-57.225942539743805,7.556811123592354,178.73631358825816,405.92322760765285,380.93632743138227,8.388937615719733,-247.29077328290504,-128.45149157018326,-12.62653518581887,-88.87955214667778,-104.93611223165576,-29.909410636161585,-20.772992258823173,-31.4341671567204,-7.662928788747145,-0.8261323753112109,-1.4151543324506601,1.3316106040248634,-17.55497243511457,-29.18695452986478,-19.818122462307194,-20.1981540664824,-19.111872654576988,-4.121812064075403,-2.0121752957805175,-10.18793443888989,-6.75683491275531,-0.10815817430749353,4.974739872559413,18.93251899481578,32.170460242961965,31.15040708290934,25.997678820204655,27.411125744788475,31.346746519849795,34.63404462258848,32.647307023500986,15.927940418732014,-7.101023647547801,-15.936371271747845,-14.712437143231504,-23.297884365592722,-39.041347074353794,-44.3229090797508,-38.40842572151253,-32.685667517776665,-26.393656386599567,-13.360664837917447,-2.0929006450490952,-1.3358387412131183,-1.7615684778415073,4.516885456296226,11.50737173528076,16.313515670788565,20.643968902852144,20.41386902443132,15.641495157586508,17.581211860349885,27.225332370467783,22.08102502664501,-9.089963239264375,-38.905356745042766,-42.423238685791645,-31.172410614136282,-21.21970022271696,-14.381282270053946,-13.751070973329321,-17.322936122545638,-14.32362966974703,-4.41869708127143,3.3749671572325433,8.150833282524768,13.854212051596123,13.140745596234014,-0.9887426269255606,-12.193057021283572,-10.255556898796659,-11.969511889214896,-15.126379910908629,-10.421894453367596,-19.693599806193074,-37.67393413205994,-46.63559509382424,-78.33832031564813,-115.94675086623025,-89.92154003051417,16.236754384716065,229.0161540168752,450.24923680082713,333.03006965314376,-108.88262306261186,-304.90551501882925,-116.81726430284462,-16.40309768982811,-94.49343367406902,-79.4082268112411,-18.45238273902516,-34.70138223943296,-34.284007816789625,-2.5172746692103445,-3.9929602143993996,-5.827675321006371,6.035864255699433,3.3151084106794535,0.27014920359322403,-1.4136075505575878,-17.21191823277003,-27.8496982574815,-22.03447367331512,-16.50115147495211,-14.988830483183486,-9.618576968636802,-2.005584918900874,6.343789010309598,20.729977705829203,35.34961390828242,37.14198503157554,33.40492228871147,34.764412351840335,31.768305885254485,24.2004957515851,20.5112846914117,10.036633011978767,-8.690758151930172,-19.52064313654898,-24.261101090674604,-28.05910546971115,-23.46402630271391,-13.509736429075764,-7.923037050996889,-16.36626364326495,-40.83856438896036,-49.79068425608479,-24.89474868621085,-6.276435137139973,-9.709286247994822,0.2835975370505679,16.869685688858922,8.555902035178843,-1.0450998853656968,12.432276086082151,19.281162273873658,2.2195602689547,-8.894134902829531,2.1240940854620414,12.928844691873625,8.595246290385042,-4.509201398852776,-23.438662800144876,-38.766093438927406,-31.698076131231794,-12.020576496169378,-7.643315291078965,-14.516500589374623,-9.543625342237062,5.708253968628271,12.156251501930623,4.068179390725968,-12.850988041000683,-34.26562422552125,-41.29066363838409,-16.440327935174675,5.785316543444237,-10.751774229376569,-36.60418636671341,-50.958244042505925,-70.39002877329048,-74.6753937831526,-13.62213170407395,167.79095886415905,413.0616899863849,408.33389331383387,13.867557832190741,-302.04659282449074,-187.67765023386596,-14.768803765842112,-72.82674716362655,-111.39942329356981,-36.56955629304587,-23.505796637336225,-41.11585572122952,-6.095792164621031,6.598759046105915,-13.837268338861994,-9.39468500299396,1.7004987681810562,0.7458883632057258,3.1821387134077472,0.11208966829344913,-11.8379544962342,-15.009969977199756,-8.630335560338619,-1.791198930492079,4.339969999965097,7.4917586892403865,7.724522008541168,13.779493446556703,27.88686640065599,40.95293318329352,47.52288985610393,46.77941489332006,38.58970148387449,28.12665728368637,19.860887683851992,15.85815974844828,14.055502737680124,-6.5192549176094605,-51.2553964017242,-73.94048055455804,-50.84057658099027,-23.638895895389766,-14.570662241670515,-9.94278920778666,-17.466359436107744,-33.569276341724944,-26.547943674008994,-2.035614995666073,7.630873852051559,3.588876382037724,2.6089022276450793,5.289543032170215,10.258893374527197,19.588198962915367,22.68286817906763,6.928256034677834,-11.569393246473782,-9.191269330279694,2.7856461030552184,7.588891114474131,9.359008157470665,2.2660381669079888,-12.401089644350897,-9.776779100901619,1.0725458919861275,-8.196496520428905,-18.903655494717622,-9.118111828181307,1.565069996375966,0.3260735168845046,-1.6746001448825112,-1.215379147942358,-7.211502605849897,-19.71122760488258,-26.646353117264493,-28.40197560951923,-33.26798621528464,-38.776609512048935,-53.888238771478356,-82.46648555859593,-85.91269013070064,0.5460497182895665,230.89308822314004,473.2526769046359,376.56056178627256,-57.05950795759823,-284.4323658674178,-125.8430968791748,-19.373675911630066,-94.34025991877438,-88.00073969276313,-25.956281373522906,-41.59371701717561,-40.62237021791926,2.7273556361286593,7.53633912926087,-0.6975398604048166,1.6961300177002805,-10.061546741841912,-9.726721866491655,9.026179177438966,9.630256250286388,0.7494018668624303,2.4452480149329032,4.477675064124901,10.180731168041318,27.75001209563301,37.27713751467406,21.536656498978594,-4.300690563600728,-15.718639540522824,-8.981807199244315,3.2983283989746077,10.955745974410346,11.208930022856633,7.183414637158854,3.4206909559927787,-0.6380617436317446,-6.027434235819589,-10.997568539827384,-17.126113563915936,-24.244000391835982,-24.514251697655276,-14.63851519038892,-3.101834405776959,1.4435720084395731,0.7266356464319248,1.4841719740186088,2.6019483550642604,-1.2590496438746959,-4.242413616159515,1.2781576694705226,6.253167796957972,3.4104243647611385,5.301395210789884,15.096232729480604,12.939022450414821,-3.5122820391723666,-11.242557833483742,-7.066265742671501,-6.094901676248109,-4.882979421699849,1.8428024884743515,2.2738758574369826,-3.9293998726158224,-5.885281821854906,-5.504768098950026,-4.894017117307495,-2.179989307105989,-3.3069901760766913,-6.057003723880253,1.4826059931500404,17.782786620756838,28.676994500445822,24.138581046968326,11.976587010875331,5.2893642507548995,-4.563861534007396,-21.22100653583173,-29.18481500104753,-38.82064551161814,-60.895564099651125,-73.98094260252893,-79.16436054526807,-85.74936634656633,-64.82306550361982,37.185587643631834,264.3360927802348,462.3695502786318,309.297132769684,-92.37096287450673,-226.28551312816325,-62.022057455928845,-11.554831145892667,-80.89304546885944,-58.33435106847344,-25.665811345725203,-47.835445433931625,-41.767550867746195,-33.84445222709995,-48.47219880581902,-31.079809313047534,-6.938503783576323,-10.139969863497356,-8.565406597189236,-1.7282215000486403,-3.2620003001608184,-0.0927623842020111,4.9246464795601685,5.530215126886162,7.271711212595961,9.286779116382721,10.958040354804158,9.271063214248302,4.4097847637437955,9.369187187966727,19.278553774420438,19.886052777710116,21.447843755624504,27.294303289783116,23.02455385395615,12.598082297838666,5.712109340292608,-1.5729251185242386,-10.108773362279646,-17.078933494072047,-21.84667197903618,-22.827771381590058,-20.732173360942497,-15.697771034624967,-8.326649741799375,-4.3070150697087835,-2.9859112512813333,0.4361951724080452,2.900383695621521,4.368070460142697,9.157201553738226,13.949009278687551,14.33099434487028,10.685409168717854,8.424712162251382,14.474129519275621,19.177221519870848,8.135872681065967,-7.238115401201458,-12.859099302257043,-14.455679113445534,-12.568560963453336,-4.98752104327983,-1.5706784657163568,-3.5816756602014657,-4.217095848338027,-3.0490689209049124,2.7656363640426966,9.462096697410113,5.908254096601324,-0.1242075618027878,1.4926543313188771,5.560035519655262,14.722494308465095,24.315980287220118,14.980774599103949,-1.2389425289220428,-3.069172571852424,-7.008837934636589,-20.775190652885634,-24.848297685852195,-26.040068241153225,-42.98230142646952,-56.696024345877305,-45.993335934545186,-34.84602383494743,-42.79158766782761,-48.37702599876992,-37.11428040058615,43.99080111110251,268.69196678374817,436.9905986660897,216.32690186825477,-184.55043376941165,-249.5255726785203,-68.20560300055186,-47.080360692043485,-108.79470290182164,-54.5051172950832,-13.131076761263358,-44.315162582368615,-33.831042727396124,-0.3638368808512169,-1.0551599944642014,2.5771182095681198,10.132556334361315,-4.820637957041695,-12.958507676531461,-2.0536709407598366,3.8589977700015976,1.7191598682760425,-2.3154025294802247,-8.590981662632192,-10.229178136722547,-3.2580068790249985,8.179393800255836,19.33110153238209,22.314075323474608,16.9136286682409,16.76422864856687,26.391172868466338,35.34008972075278,33.900754374100906,18.57140930678503,-0.4352714419753878,-7.33888957222943,-7.373211317014727,-12.539553473971207,-18.818932418710908,-25.849318005366253,-35.71477452509157,-34.81322496751767,-18.886471745388157,-4.980099072029843,-2.822966242417511,-5.566165685924201,-3.4656696149322466,4.491322196390151,14.16979321917585,25.168772226716758,24.00323624267879,-3.9659580333704625,-28.160327120412486,-16.594606038190662,3.73066374400356,7.429594603104323,3.8969271715683007,-8.639876787663393,-23.978194062930747,-18.11907416285058,-0.2327393134382465,7.486903977936128,6.939020748294357,1.4261126071544101,-6.001440710601331,-11.080062118500036,-16.763385114470445,-14.257049408302578,-4.77871357896559,-10.954641891669887,-15.426896174768865,11.342926012209745,37.73908122815544,33.52544143991122,12.813361431104642,-19.019864398455933,-47.338249821856294,-41.417866355035855,-26.696772525789065,-43.49820084014635,-63.47648141632209,-65.57247467263005,-80.96571597362848,-94.87996973712876,-65.05304779909008,14.288453287949267,192.02890184566272,420.1033212619643,374.759498929673,-26.3073127177478,-281.5439277718227,-138.3982912785541,-8.053763665642702,-83.61116417755107,-96.61257730829517,-17.54066225843024,-13.269714289613304,-34.851725333491416,-22.884073988880697,-28.27473701423394,-31.548706412064526,-8.685138424775161,2.605285470378007,-0.7383222992879368,-7.544315314877801,-18.37643769994269,-14.562294826229422,-2.109555875690262,-3.7977955178001217,-5.294779415696173,1.4796502681468882,