ECG,-8.344722776476512,-10.008717358923885,-11.65859603437681,-14.835347522897226,-20.11833212264453,-24.95813063745362,-24.73565026341008,-18.150508838340865,-9.404240703827199,-2.6235213919361406,0.2733233240596995,-0.13757836676064983,-0.7882564774546132,-2.3618748228838076,-4.865644234382465,-3.851520855181736,-5.6553442772037705,-15.436922008779256,-17.077945773719982,-8.229467836339158,-9.23730449987378,-15.957222161706735,-14.688457567785445,-14.92173001579653,-13.60803747585509,0.48757140155864676,8.175301251101295,-0.8395388758761939,-7.362008642693336,-11.512986672122587,-27.031712609558177,-45.877126611120836,-55.544446409476656,-60.38041309107801,-74.71155134986647,-97.45209733371703,-109.77693636012833,-114.46791619491981,-109.13441087771986,-44.32562773869995,109.08062814955284,350.5450787212892,617.698542954452,620.1838189119321,159.38657969018348,-330.698486736145,-342.4879605713286,-128.6306211935344,-111.53075449237467,-153.79042631226704,-83.4234619734683,-41.59717494107362,-57.18210887600538,-36.03509801457471,-14.052526162788105,-18.802637480329764,-8.472122800193889,0.5423705792197318,-10.319423182940325,-12.854540949230381,-7.858082329259631,-11.579413590209812,-14.02053620547776,-10.694354620518652,-9.627948124395477,-7.915817373277449,1.9496102417018095,17.0086889152899,27.4860358215814,31.70646513391398,37.31681917566441,45.22325074681341,51.00786340482992,57.39667257076205,62.75351564749095,57.43813649100973,45.83865508790701,38.45168401145412,26.902545665574674,2.5665049953526813,-25.350847483500026,-50.49186802234662,-70.43068197529541,-74.0444477239212,-61.240196940164175,-46.49134441443745,-33.07227099015533,-19.790516752197934,-14.550967632806312,-15.574863936294157,-11.529660008502617,-2.982322334586442,2.6640605230144807,2.339336031118645,-3.2553961096834882,-6.065335692539211,0.32963023428619387,7.316247394387182,5.716473728725887,-0.9541418547581593,-6.607532353893372,-8.46717706012464,-7.475481849160225,-7.504027602516228,-7.722794169056186,-8.256730124033258,-13.237623381055531,-12.629909562312337,1.6829789971364697,7.986629902446554,-3.767720145625322,-9.051078131961994,-6.312878850538995,-18.87341438640611,-41.31956651883604,-56.470599136718526,-67.33862809811598,-81.87076502738384,-99.41118500595027,-110.22367708250826,-114.96655575673441,-118.85112514139306,-81.62463228390874,49.31725644729366,290.7639885374809,600.8972030277076,718.6621664343241,342.02205833567814,-234.55005746735853,-380.36353055756535,-162.25113495132933,-97.52813055433484,-169.19351875449246,-122.59548114841245,-61.45420517730509,-75.66174451071034,-57.00695309396589,-18.482614606591234,-20.43342998525936,-17.685175128974613,-3.4762555921518725,-8.615267998532683,-13.020062965245245,-9.040767322538326,-12.669477237250979,-16.825939483973247,-15.070437001481226,-11.850552719929441,-6.158749260592217,2.819361906494966,14.91234640403755,29.420065668898626,44.13076303659358,58.23996798323952,64.05865244980956,57.29071184223544,52.30695349859701,52.72370055525152,44.40997853018328,32.83950111603856,28.30855036575674,17.162406441380295,-5.919404438183989,-27.972929263895644,-47.86321187730806,-65.91464685179196,-69.99644122196457,-59.13701457546941,-46.156641589422975,-35.54241214835906,-23.147475397833123,-9.618422684313874,-1.01801757436656,0.8435986026641515,-0.1706190068217417,-1.619139952696802,-1.9441059773350027,-0.4362650758895068,-0.8982074094312527,-3.310463259310719,-2.985140065549931,-2.721017088552287,-4.739481684454958,-3.318989754778366,-0.39636072832080416,-1.5994301561162398,-1.8720224496588251,-0.90378462323463,-7.021126784929066,-15.061678341055867,-14.606143809983058,-9.512474395286537,-1.904112722094716,12.086015089294577,21.029467804895475,15.136408057590113,7.032383160363387,-1.157533947859962,-24.515217481023743,-54.59281371437227,-68.89214636577152,-69.70140476775273,-78.23730818018632,-103.12784913326988,-123.7116112834421,-127.58489606010289,-134.15626219148606,-117.58128336271515,0.4685382259599322,252.23997775434543,588.0746154913679,778.2266155194461,491.35676367871315,-117.5304900548787,-398.7204301274505,-224.20256868429394,-108.69069779454382,-177.52971559345505,-147.2353102423353,-59.13716688364409,-70.21714886345312,-80.05789990599642,-39.01640474578211,-26.700755414095358,-25.103934424901702,-3.866775497656617,-1.8680345235850027,-15.906935970009503,-18.42706430688961,-18.70563423448428,-21.238331003047403,-18.042220316017563,-12.939291137738092,-8.318592105425322,-0.43333958102968695,10.865113917960047,23.857641833865824,36.82254465173366,45.94486012953278,45.51768853879982,36.125322006026714,30.598861464676155,38.5334659107189,52.309162801322735,57.33406027787416,45.24124221030944,21.62708970614818,1.3039313732233628,-15.841891159915988,-41.18314530133638,-65.40412865032899,-70.22108589754897,-59.621385743400666,-46.56735753788032,-33.94665281206388,-21.591804641249215,-11.710140620760331,-6.2627659200359425,-2.1581619528291363,4.5268102120846265,6.019904502204529,-3.569582953924325,-11.27138761328317,-9.639278739770006,-9.28158638526645,-12.437365547968525,-11.277942897900104,-7.24799476713876,-6.000501359058916,-8.371563879037051,-11.953918748901058,-11.830988477620599,-8.708019657287217,-11.132131787172778,-17.696695140456697,-16.92807400476596,-9.104487384092987,-0.22421192593648165,12.307364925954198,22.439590142354906,17.595026318051268,5.10984516058323,-3.929760081449947,-15.571607158611233,-33.54237965290483,-53.02810428457936,-70.67203014201152,-86.86354883423833,-104.44476296387904,-114.77004932557941,-114.2834542028634,-116.43233454159265,-90.09501160568502,18.266751827988543,214.46949099964144,494.02968614395803,698.419092597423,466.82302941107264,-128.77359898853882,-428.2087677562091,-240.00709910781487,-85.46392397079231,-136.23506626425427,-119.25311935965937,-56.34936201561035,-77.76265508958001,-75.2871906513288,-25.004647989248724,-18.548396510210072,-19.547252500973315,0.9966256304229049,-8.281778212210263,-28.363790811635827,-20.07631251835457,-9.31025281949912,-12.267834524385673,-15.515945028045797,-13.627102543506664,-5.074161024332282,4.143824414645443,5.439340427884091,8.866266350162014,23.90838302252702,39.80830600208006,46.25105546473301,45.30595638967278,41.864228909090656,40.512566831323966,42.45949836338355,41.251157728962255,34.026371672923396,27.08268111585889,15.708286459614662,-14.635588119069563,-51.060705713851505,-61.61272800651848,-50.64021263086132,-48.40990488320376,-53.06849869666941,-44.23793180017877,-26.909010269307224,-13.732842949739204,-4.383600489115281,-0.36355875378648506,0.3296973873145532,6.756687335091289,11.364300054835741,3.8166204408369158,-1.1600165102411601,4.578044004834567,2.588575757918722,-10.44703819740975,-16.22102063427204,-15.14745312235453,-19.622247331439127,-22.725163491490395,-15.762780307627093,-11.68565203658122,-19.487131844181242,-21.593919724164603,-5.228104903339817,10.290631521677376,7.909122839144066,1.2647641391308682,0.43969494542728604,-6.622518612656275,-23.526365162276388,-40.34519955936634,-52.298747033130326,-61.738443117541166,-75.66309562472284,-91.45969125819327,-98.9911406527023,-104.59786368684404,-95.28270541161116,-26.51657506845128,123.77288302581289,376.2319560245545,639.0526338351765,558.0436590628176,22.900542922145746,-396.7868687722298,-298.1418209403595,-93.0684844525279,-121.6288855337463,-145.97395653175948,-63.289819140876325,-42.38811268643951,-58.57953966461142,-30.76424453041341,-18.173220170424432,-25.509202803857992,-11.322392235712075,-1.6984657529154994,-7.854865808144549,-10.46382079684794,-12.650811763846264,-14.476206851729092,-13.300672749552149,-15.690244243402539,-13.548976771915777,-0.35749777403486593,10.940930060100298,15.753010942928737,23.244020192395542,33.99978960801236,40.861835824141785,43.80026641631498,46.85442992032802,47.014954208456075,43.51179654058818,44.68576878836124,47.66139314581857,38.20884621299835,16.63328418962326,-8.603941653750832,-36.428886430674496,-59.147840987853556,-64.22822476117024,-55.97842569465803,-47.97528320475556,-41.965392916451755,-31.62012922766824,-18.821805787910424,-11.849292095760468,-8.550259810553307,-1.1759104815544656,4.7233451596091225,2.821398514654774,1.8405658449506959,5.807290408519901,6.812781004675144,4.244962027898965,1.9898838885957204,-2.1161716870388023,-7.585902423330474,-11.39643487993245,-15.317077593783319,-19.06305948813112,-19.28131612555866,-15.69735452108612,-5.866159200631003,9.503134416396437,15.204237631241474,5.049793832948833,-2.100214982379086,0.3705932111891901,-6.519358288745108,-26.540968755775282,-42.5421851440761,-53.03727688480229,-73.50908366761462,-100.24350050888324,-111.71052953501503,-115.35633512381804,-123.33715576343756,-89.44565227094442,34.028981483011904,259.95433365178474,565.7596172119402,701.3981851717768,342.33492224053373,-238.04211230639766,-394.238698290787,-170.27989863312408,-92.7615339772419,-162.40554593013727,-117.56404803110172,-55.41238403238376,-72.78084174127373,-57.17040442553865,-15.908839253786084,-17.31036451137632,-16.734885458623445,-1.9743408923138475,-6.6209350842535315,-8.713533368373211,0.8930933869846065,-2.364000296513261,-8.417316587119727,-4.601244755331555,-7.986641921765889,-16.746560352179095,-8.783805950598929,10.21886976435819,18.34563259892696,19.494212640044744,28.6305613529238,40.010473316654966,43.65238022847049,43.90682718450657,44.527035129735,43.411038938770304,41.327850058687225,37.20689337859982,24.730002091443165,0.9434469290633931,-28.042009117886476,-50.80201378029229,-60.46830791424977,-58.82695514892019,-50.506022518382416,-40.28034284972091,-31.894458527235194,-23.920725814473222,-14.01968093021624,-4.437599791539974,2.0992008177745323,4.525222826827687,3.5835629661258075,3.396274076073695,5.995484815899372,8.830606561661776,9.81983520136831,7.055057935085451,1.1935655618191436,-2.113745943645604,-2.8810433131356916,-5.350953993318665,-7.178735658440367,-10.686284069074649,-22.88024844661692,-34.12753719123223,-29.23910854106437,-11.58618902170272,3.0600895136116826,2.65157168185425,-6.659540159038331,-7.659065943759526,-5.48968953427925,-18.392493453757602,-40.29679832293448,-56.02755765629014,-68.53627660610546,-85.30067088487414,-99.85806633806192,-105.20828797366482,-114.13071759286304,-118.4098452212887,-58.72289107954127,112.81037792623769,405.39943849563474,704.8799378481641,659.0252213086052,126.55330221098433,-351.93901265310274,-311.6774880017656,-113.29664416470219,-138.22174374438035,-173.0095352775212,-96.0974473367667,-79.17429780629921,-93.69709983528384,-46.734559549846175,-17.98121432541997,-24.873803620904603,-14.478767976573714,-10.629776874676992,-16.80431027930066,-5.470961192858873,-0.9540623162493986,-14.535922449412924,-19.92717038975007,-15.81549999461838,-13.94973519852668,-9.750448055545522,1.754640820903426,14.326248909154206,21.442522291388414,30.452806388391714,46.1974375615091,54.4352481491585,50.55536382528821,46.874809843313514,43.88429807160099,39.54599037608355,39.81083725543856,37.7374163129994,22.467781190516966,-2.745790264393314,-31.07151773026871,-54.03010122949475,-62.81221379159875,-59.54341448648669,-49.935855747727814,-37.78464366605648,-27.65196397386474,-16.668266910178502,-2.746853967785313,4.630681378148552,2.1405066656292924,-4.111521567629101,-10.946500369822253,-11.95401656288324,-4.676214896098063,-1.9878946365728751,-8.276725539375203,-11.609536691496952,-10.91996514538734,-13.297005948218281,-12.768863680278624,-5.444031523960888,-4.060313094357866,-12.832516915183266,-18.550429383743186,-17.90414383038293,-13.689809283369264,2.1226626304184677,19.622594401528534,14.473584061478512,0.5446926590772598,2.468498401027169,-1.150608060243112,-30.88360755957448,-61.322912728218185,-70.50072208115031,-75.80133683649902,-95.86373126784602,-112.62065089067244,-109.3213763330568,-106.81184917386402,-95.4171445855334,-14.419269134708912,173.84173934984688,467.451352094051,702.901090136151,521.9693018636445,-57.529449509245524,-413.9018509276404,-271.9760999175047,-100.74913926833915,-144.7783524763441,-143.92869693503403,-60.745489725602916,-58.439710842829285,-71.50355213132174,-26.396324471618623,-3.9791966892287576,-15.130950736839054,-12.05452846274786,-7.393171423470443,-9.178552117810415,-5.390699908792435,-4.965873457420464,-9.368659641590586,-12.68837579081116,-20.69357520697126,-25.273563825628738,-11.70802696789503,8.769981230792148,19.4413074876472,23.05586925333136,27.241094208754454,34.35183769183251,40.33014739160729,38.0454518527975,35.58718623005018,43.76266459282297,49.269662888807474,42.26301353105802,30.854316527797142,10.911726992336803,-16.005670663474902,-30.532256322989575,-39.27085097583817,-51.65937962012197,-45.93377326635087,-31.044753460581802,-38.91072882754221,-46.2921573560984,-28.167042622814648,-13.920229985935713,-12.664410447830168,-3.0565821179578236,6.130289460924457,5.314828813251527,7.768698962071008,9.279063505124396,0.06629266134793,-9.169270174406694,-12.970595773628627,-14.693094769862423,-12.200521305741646,-11.951629055421154,-21.74814602705751,-29.445851521488315,-23.42418004763541,-9.787152764224167,3.7268321534435316,10.366238775164877,3.686264793750375,-7.760866853398376,-11.960524693763595,-16.001610035292877,-31.551073897250085,-52.24874534581252,-64.77383423794723,-73.90135979322028,-89.34621233388732,-98.94938623210517,-101.3296464277914,-107.31542687374296,-73.76581320857431,47.40148815963343,252.75653527966892,525.9305909640968,674.4886930084797,370.59811602690576,-204.26006454719507,-409.95218217246713,-198.13935146086203,-92.34058085941005,-157.28042935768713,-120.50797019292844,-49.478353818072634,-62.57062822611866,-54.77559215118494,-16.71734209970511,-19.217980517813405,-20.320714235605575,-1.7571845351459672,-3.617773669771527,-9.928433385686546,-5.149367841381359,-10.141684821870708,-18.036601981970772,-16.107049912125596,-13.637273467118737,-7.973274086941432,5.097981983429213,13.300447405255174,17.235245953857042,27.951456941564132,38.51661300677584,39.774429099578725,38.6598042087029,41.94199715229098,47.924474592046,51.58493791244565,48.33539304968191,41.498891745590676,33.73133311221613,14.797569553511217,-17.68329599326048,-47.5550324029585,-65.60276875827807,-73.29805688323908,-67.92911323652301,-52.30347387181088,-37.9587205123385,-28.318360943573573,-19.73680059077047,-11.702755014292048,-4.679062476305795,0.19759795194432783,0.529010863297561,-1.7834765457079946,-1.8221061780824357,0.8343490828518316,1.5752398628912125,-1.3680877717310214,-3.4217708524635526,-4.281854189115178,-9.269224155430038,-13.234077542038243,-9.2280692689084,-5.3141916121975505,-2.575977970108511,7.317480642476632,11.568677333728736,0.5071691032022905,-6.486877932898837,-6.6218414899150275,-20.68792093612025,-44.57124440161826,-58.89067960475265,-64.83890091457758,-77.07867389447317,-97.00716826011022,-108.22192085513481,-111.92867810068178,-114.74573892029011,-72.65490138686036,59.94335516562772,293.6160093940141,591.2951961072395,688.4202683790691,294.53127056736474,-262.12177341923507,-368.3596917776199,-144.33969154374813,-95.01694148870865,-163.33308323887087,-109.87993801848918,-55.38954487239669,-72.5986324548166,-53.15583881463148,-20.294371376298546,-24.95091010409679,-17.987477475592108,-0.07322957846827371,-3.325927664894614,-9.477720780622974,-10.006522767314966,-11.207806429170425,-7.468855027803629,-4.860517162938569,-7.185188633132675,-3.7799056744926274,6.426174331610582,17.01228216376626,25.270803832323708,32.420241630500044,39.63125013085899,36.93328578249767,21.78338211739203,16.519817943249407,28.763543115907424,38.35357401617376,37.48859550197652,29.415577267378644,10.759850306565346,-13.38473580080758,-33.523964192474594,-48.43793889779333,-55.39155524551757,-53.425162794040766,-48.074916019238785,-39.557420931216626,-26.27094829183169,-12.946767919835242,-5.115793894550052,-4.693568213101827,-5.840359070270413,-0.8142866939581168,5.6890952015977945,6.853588270001187,5.921953451169269,2.8735148240712043,-4.579660021624031,-8.829368725152916,-5.7278244610446905,-3.048417253000059,-5.030179245672599,-8.220581632607924,-10.770335749797365,-12.055605264702056,-10.470395811928604,-8.474311644229239,-8.212736846639388,-3.369633795226626,5.721271382795177,5.6318490095433855,-1.2500378590857295,-0.6104258866042933,-3.1965518965706714,-24.821884084397183,-51.14695018869969,-63.9393206256744,-69.56033193944238,-83.84763825666809,-104.43405673165839,-115.84426775974067,-121.50436259458752,-114.70686410800221,-43.78825787568768,132.58431785928886,419.0224807759861,700.1130911665442,635.8194916147104,104.5617715778798,-356.3711447758661,-303.4386551129679,-102.00064132009722,-128.69296599355508,-167.09442244298674,-85.37259565235003,-60.93465422343984,-85.31155765708566,-54.12628931070735,-27.492968871637807,-33.69437038420453,-21.932223806358945,-7.094725632513757,-10.342571558914877,-11.127074423304467,-8.811466252415375,-10.743450251493694,-8.708838374327279,-2.805893691953287,-2.576498092147478,-8.911924314873035,-9.499904340791486,3.576501711358552,19.73920106379951,29.590694166669756,36.204128943832536,39.66386708324265,39.251357047940715,40.223172833670446,43.58766818712171,46.0317879329862,43.83297532567598,30.621363872147406,7.4854021614871,-14.032537141099516,-29.93988029473882,-45.811856875414094,-58.999035445894386,-59.18864943487819,-46.54143823089493,-32.684956849712066,-23.29484402494618,-14.975828401379058,-7.597756178133636,-3.876830174428827,-2.144886983117349,-0.25765887817977173,0.8573976290523291,-0.5153595351757829,-4.504311629488683,-6.628542907806956,-3.1084893359112904,0.060948523137575705,-3.6707780611966623,-8.130973303274391,-4.649969528465656,2.0929734214558042,2.460388904271543,-0.8903358350982629,-1.3151338573288633,-3.5194729209932785,-10.155105687160196,-13.614683164779098,-12.985009406182261,-9.996466922175225,-1.3143568421871556,3.8314055020749116,-3.196772143006509,-7.844879898306953,-5.142649450339034,-15.2887477711852,-42.742035183304125,-65.72185478212158,-73.86089820566684,-84.58208011239303,-106.32293608411722,-119.75438737228906,-121.83998930704398,-114.31775543603246,-52.28344776494269,112.10295791548171,395.95951837984836,702.4149332532036,682.3933243414929,151.84478898366712,-371.69738652921603,-361.87082206014713,-137.04370705003893,-134.47925174869187,-174.12383917259572,-93.28813062169476,-60.65586371730329,-80.32753299870888,-43.411171117543006,-11.823014855273293,-22.005605835334805,-17.519795708852232,-5.801697127619008,-8.001236290883842,-8.98259524524638,-11.72568265588702,-17.000466244219844,-16.1753534447687,-15.365413099180776,-11.417869571074991,-1.3413252598706862,0.8895803854568101,3.176102656944101,22.078020802909624,38.165737119426396,36.51786679307024,35.77752693458437,39.30427363598261,34.94667351833807,34.522500370506464,45.130161855980475,47.09449453300058,34.5439069008747,17.90696607487709,-4.497693388890365,-29.818677038269676,-44.936400322244495,-51.93780744340988,-56.02648183947201,-48.41024995312622,-30.15005958461059,-17.520406059376892,-15.506091412849521,-14.882577100463127,-9.37585994580327,-1.7535370719368117,0.6275161417018715,-3.8079018875290718,-6.171025054283948,-0.6330962532686382,5.075502533074676,2.453606327584467,-4.013615571789071,-5.989687422318745,-6.1834539570095615,-11.171623135342536,-16.120602591583676,-14.272392103647338,-12.361404890917559,-16.804251501588936,-19.082874191363103,-12.954074758789215,-8.632251663217403,-11.992565769325484,-8.171098549782437,9.547215628353571,20.099137318516387,13.476072079960572,4.86951197458202,-5.962652330463447,-29.25235657081016,-53.56928937032017,-65.9534775173618,-71.05066635890294,-81.32445129816129,-99.24782061922178,-108.56159900683069,-109.14509426330902,-106.59936331402771,-57.0482094036071,76.8053975783002,302.7713410750394,592.4498203418982,673.9765021222455,255.04591988078533,-304.5339249568452,-388.5034653706865,-153.63020405751263,-103.91311738143607,-161.28786639536514,-99.22470759025882,-47.997875955470136,-69.74768636089199,-52.50193134591278,-17.225381274312966,-15.92992457988504,-8.913683327878276,4.036449117713584,-4.272933543546138,-15.227939218931908,-14.769258269584558,-11.720974741537123,-10.540388609653098,-10.773577398805427,-7.910736816619173,-0.8881873353725154,3.8691747403764847,7.992134951998172,16.8634187250879,25.30142755997825,30.05810542717588,35.9579489155085,39.09480775696345,33.8017099266301,33.2922220405251,45.14530336732471,47.881717146571184,32.656007996066286,19.311575185873643,5.625231539829564,-24.10566569329208,-50.62757999485588,-57.721710945745755,-62.260924220840394,-61.82106544501829,-41.07983762854991,-21.43826666546547,-20.123628696315215,-17.050609138324063,-6.575717911170827,-3.942879028741256,-3.8737589408619577,3.149414619005496,8.131011469705754,6.046268546161905,1.661393228309123,-2.197725245162424,-0.7540661629086749,3.893360740619322,-1.9087245922131597,-13.378049788551847,-11.152808443915509,-4.585261050046974,-11.868625027223782,-18.15178481573822,-12.390947041499132,-10.489786282298274,-10.070847750943235,2.8960275446507104,14.522235196268076,11.657981092583324,1.8775598219777976,-12.98578477936417,-31.74087910433809,-46.632952597881804,-57.24556973373349,-64.42053211764141,-74.83429768633226,-94.76455914434787,-104.83242127654735,-101.5908513187685,-99.63025991087163,-58.09596902016284,67.00207827090506,280.9182078917148,561.9257900667659,666.2398546805357,288.7220274163856,-268.235830403222,-382.52936979210403,-153.08874860649888,-92.9128268947489,-160.2359116107723,-106.13763208006878,-44.91268269463603,-63.15566152878112,-51.5186633640408,-17.0088099168291,-14.173148214925732,-8.191341216504048,0.929692065894324,-6.678982344009947,-4.506269923523369,3.8132241326950123,-7.197560175330928,-21.033281369905968,-20.925785183498324,-17.54210629467739,-14.294945229800977,-5.140151668610392,8.062417266255467,20.434714749972187,31.116652807633557,39.30644471852991,41.39073691233757,38.381648586106465,38.74307657646804,44.43704723371479,46.57258568721327,41.186884158503105,32.64716238755369,21.443639687582685,3.077742919004292,-23.578759887802608,-50.68904668121962,-64.16842638524776,-59.380352976444755,-48.06742373290788,-40.122256296657994,-32.38570957638138,-21.339836725101332,-11.245145928953454,-6.326493439446768,-3.234328954718265,3.2736916672922085,9.136259809034561,8.19279168531833,5.49773623115021,6.175074641993917,7.136178007374902,8.0807291579378,6.0745307225122165,-6.322267303528049,-19.468557045654222,-18.919664377390415,-13.362479607561301,-13.414771286533504,-14.496657607963078,-15.49911586384847,-17.657252384069267,-17.17452265048894,-11.804455880238933,1.7995199074428605,17.12586313047286,14.937476326848415,-0.1975319454878104,-6.967390531132827,-11.346114249970658,-27.54802863787925,-47.59702708223534,-59.97076655439767,-67.19126461061396,-80.18041710819492,-96.40373850543185,-104.95284513365112,-113.36704660976069,-105.42573421770689,-25.340382449718007,160.90604320084282,458.28833113147954,714.170153668143,556.5961146297934,-24.66101856528624,-400.2337165652093,-266.91910653329626,-95.52213698679232,-144.66297840389308,-150.79320529199634,-68.50529654975577,-59.76437776111297,-67.47473011873153,-28.40633074844725,-14.09568162553456,-20.481233951879656,-7.220221812593342,0.9461939779087043,-2.4207763924918027,-3.710956301212274,-12.534648428794368,-22.995021445539386,-19.098379665365904,-10.573392077840264,-7.935701359647956,-2.528805110003077,8.955602468148092,18.024875829593803,25.53987449719182,36.45433550289202,43.315489066547904,42.90929735470512,43.54922894039376,45.31155405353681,45.203498820869825,46.769643324647824,45.074288591295534,31.349864287958138,9.842693892203357,-11.518260910332852,-30.715648365347487,-45.21260181620958,-49.835593548232524,-45.149390460322074,-41.964079305746225,-43.58040576654716,-35.861757324025874,-17.444065354530142,-6.7892870852321465,-4.882663679635925,-0.05006236693698085,1.8831998762765103,-3.1507647076165846,-4.997090143125373,-4.257978193117676,-7.281290298046759,-9.232168823632788,-8.152935281051413,-7.728490744207486,-5.783677495937553,-2.305975385644837,-2.8161642345690314,-6.888114525704694,-8.959761950193071,-7.912387658773277,-7.13053407665279,-6.8122829575495665,-5.797709887888027,-8.240721237179773,-10.381010873736784,-0.6154549599846817,10.416692465630415,5.877187547410735,-1.1910847251607137,-2.3320817006985646,-14.303475814377249,-36.48157192544728,-54.374009467549556,-72.27712497608353,-95.62391445950799,-112.77902525922602,-115.67720507622118,-117.89207031551601,-120.52059394558228,-75.1020221371137,76.93905884003993,362.4143608431258,683.5273007830287,697.9678094385224,205.32401392474503,-324.18378768344496,-350.76266776870375,-134.81932917654797,-125.3204065485322,-175.0215992326486,-98.13198730716499,-57.31229120813613,-81.74259301699657,-52.70263052163709,-16.617334636087943,-19.019042989187735,-9.143577365937517,-1.5920783198876194,-15.956326340284942,-13.689362577955308,-4.2552551058682155,-14.88244625259247,-19.18324173687418,-8.597669279057943,-7.904636498230632,-9.793592090876372,2.6802854803107468,17.6438376690106,27.60205066887268,39.14059151346517,47.00201017460685,45.60631680144532,43.6611771043625,46.04419620994636,47.45956302694167,43.07488551745782,32.070950480024955,19.108574878518368,7.694311689491469,-7.956425248573732,-30.755500493680284,-52.71114182131474,-65.12451317942472,-62.09905403370637,-44.90560088404635,-26.930359471090128,-15.898908231623462,-6.9017952065257475,-2.5875035160750386,-8.503357242051571,-13.764667685483108,-7.95000782471404,-1.4312479530598559,-6.903984031842008,-16.205152340046876,-13.617461759108984,-3.9970185113063117,-4.090554323929791,-11.655999638188852,-12.81389813849155,-8.254982962010008,-5.848066938433885,-4.728581664238632,-3.1151766487938986,-6.933135485184586,-17.39744396597272,-21.084118268611995,-13.05252083109572,-7.505337731337992,-2.9615872603759925,12.16580311948573,19.29611352233216,4.587321015062871,-8.515064106628596,-10.08013169659548,-16.141743019934783,-32.272044014000286,-54.39586283551819,-73.54889626500167,-85.29091417477984,-98.15077136862905,-106.55594260940373,-109.8963337417229,-118.18476368050975,-83.44451963418952,44.179959258000395,257.6014713385281,543.600283121343,696.8672806531026,369.8890779753172,-225.63663122500384,-416.92109130220865,-187.9543610005207,-86.13652077143453,-152.09889156112507,-112.06611554531595,-48.80651279723516,-66.57605753750308,-51.970158712177934,-11.37314425555693,-20.547524945725172,-27.461296582191494,-7.72952361383256,-4.77294458914924,-9.118039926660582,-3.150468209809313,-2.598243667228603,-6.733993283264342,-8.257077567797415,-8.149840235937164,0.7976455134831377,13.340125439099335,14.092391493638143,13.575369204529805,23.051041980707577,26.195035331170775,19.687532599568016,21.032445671586814,28.737190720784056,33.62357567018737,38.435899396449976,38.631958473337676,31.272592550670076,25.685673524219375,13.838540445415482,-17.523590341691975,-48.114752764622125,-56.71558144067463,-56.61327925993175,-57.02344026534823,-45.798017677809646,-27.86862743078339,-20.32134922948832,-15.969222806102412,-3.80948926443655,4.38935326712671,2.648880018724544,0.669721679529033,-2.0462300120861947,-7.404861963371694,-6.260099841467035,-1.1478161490757834,-3.766616182494161,-9.820852757260901,-9.764101379401271,-7.095746344106361,-7.694363922923289,-9.681213920243511,-11.020490184168832,-14.13839870245917,-17.724314465914468,-14.97974510406712,-4.407781767884792,7.759832176431351,13.84118644034395,11.372975914549665,7.647650967041527,5.765424062360152,-5.439182233799283,-29.400726529416858,-52.209909416734305,-64.37871755735114,-73.47204814524713,-89.26449814467799,-103.447054445837,-110.92865752598894,-119.81151426555897,-95.2148749567755,11.475298491059846,198.11481121779883,462.8324664432824,668.7957225090222,467.0270904590802,-99.17683679160258,-395.80570719419086,-217.77467064924275,-76.3059565886882,-146.4641490160996,-135.1292614184836,-52.4265335449649,-59.163462355482366,-67.07548791061913,-30.973934649675115,-26.12601434593668,-26.341312792163116,-7.068263115462502,-8.878940779472654,-16.553356424119666,-8.659730509941532,-6.539238600286154,-8.498783170776484,-8.85845377817736,-17.118662508099664,-18.72102878083531,-3.181564220409219,11.853568377158469,20.316880813384707,29.241996108043228,35.52275558960134,37.368478526242924,39.31811197780148,40.61235298225422,38.70468490377982,36.48917042713787,36.35139563377979,33.513103776075575,22.30169861821544,4.33116669760645,-16.380196622281133,-37.60299127213172,-53.98346574583662,-59.34358893863295,-53.19861610931274,-40.01041583248947,-27.20540978509463,-19.812829659544217,-14.115264079207934,-5.509694547677146,2.384984168023429,5.173945705983501,5.256314934247902,6.818354222119523,8.462070529898659,4.320352823165187,-5.16795866719135,-10.891216325404304,-10.113112874312792,-9.720540764836388,-11.069506589704318,-9.860580201063996,-7.397306682215056,-8.133577449275311,-12.440053245672292,-15.56622165252887,-14.025115353099444,-11.590180827088371,-7.255695266633362,6.1753490217755544,17.449780115545412,10.85125971727096,0.7437608794988222,0.9880081991195482,-6.590532646735241,-31.276111514157456,-51.303548562453706,-58.92652468080464,-76.39434709395641,-103.28725637240218,-111.78806689257554,-111.74132843640467,-114.02061370123658,-64.28279201581788,71.91721062100663,296.462746841265,587.5376203584625,672.599755869617,254.01710442931676,-302.5756754214892,-380.35538262632053,-147.4184724814616,-105.83334540711944,-163.1467344193975,-96.14736301027354,-47.42193659909061,-71.00720533241665,-47.84020492114769,-12.629867872044453,-18.273880600491875,-11.552354590488093,2.0772451653556736,-9.704359959426831,-16.479764053824088,-9.65836379575801,-11.607781215514528,-15.029160545104276,-11.529769142976816,-9.410616732567195,-5.7713675272587786,4.487592064706768,15.915161472497298,27.129925645166516,38.35060723793141,43.439806403193934,43.61717187915954,46.4188121907907,49.31369428499289,47.6724905195296,43.92387651643678,37.30371786961258,25.975849229708675,12.951556479551181,-3.7060218106702347,-27.479865425258595,-50.1626362228362,-60.75877337846547,-58.703151492441194,-48.76135953348138,-35.0058901632367,-23.253312487868136,-17.55398717192434,-13.328105493116372,-5.350907723945969,2.9955503797462075,8.334047981962575,10.096737833085443,5.041271587746102,-2.37594904122348,-2.2481717455508257,1.4686166109855883,2.3737932856176958,3.300021054975449,-1.1083984777329974,-13.95576238964402,-19.420833844998093,-11.616995414446446,-4.229758305043344,-4.031662558481084,-8.625901243038305,-13.125265316370086,-13.34286647362136,-13.367037287180095,-9.569622834838086,6.420759968181914,16.331911248538272,7.54806126996534,3.992018760149028,9.80477304723206,-1.4785613862997273,-32.03167004774256,-64.43954704792942,-87.46396314273213,-98.64967461896114,-107.77202215310183,-118.34278006465655,-126.8707071493991,-129.06348616579803,-84.9429635884188,59.428358574307836,326.1282301284064,643.5364758703714,706.5436026839452,263.77898180826344,-291.09741557953055,-366.14706522426013,-139.16078252837988,-103.26443452636472,-167.7583519271854,-107.73042281260786,-57.83815770841219,-74.04450877721746,-45.22804420953192,-10.706083460691676,-22.69600295414432,-21.814106483566498,-7.478494384969093,-13.34019911660252,-15.067302754948825,-6.14544192420883,-7.912106164724493,-14.892208400321579,-16.45521604144519,-13.035360227970962,-4.150551286780404,5.962440695999784,13.769207868445262,23.244850153069997,32.945005550518154,37.798223752623095,42.566857562548186,51.38511007053769,54.72841743778713,47.95229011915061,44.23294045678042,47.49212879716932,42.508298162709394,26.062322359616633,5.040916221890239,-26.845339263248242,-62.27791238473253,-72.23280950668718,-58.176375427749534,-47.815798417522785,-42.100349102683474,-31.331905785683105,-23.337430785277817,-17.81987772830574,-6.950237674675588,2.0268773797297346,2.6150101529536016,-1.2722864815909851,-5.258378227766924,-3.7223533545114798,0.9931957912879668,-0.7320399518455467,-3.9041962343282623,-1.9522995357442614,-1.6534442062263537,-0.6200256886731665,3.90512811543325,-1.959778143194093,-15.474707653733333,-16.57245109796109,-9.195017554356069,-8.755916657698045,-11.875954907000683,-13.19514261710189,-18.325176707462887,-22.559345761006874,-8.88612404920625,14.061257474279444,14.53688246901449,-2.357337431264501,-6.2830857807405955,-7.776538823922824,-28.84177961522283,-54.059120548001644,-69.97434359573074,-85.41101294644805,-99.7519832858865,-104.52357505007684,-108.20096474696179,-119.83924964110447,-104.8202678497043,-12.222348132891767,178.06129669087477,468.6151791881216,700.4598098589925,511.9833897377506,-70.37152658764937,-414.45172649115284,-259.3113385487193,-90.27223186063097,-139.5068458548158,-137.54625502911057,-57.80878244426355,-57.44064081207581,-63.01608397383414,-21.888263293503122,-14.508057492370131,-20.458347760363353,2.671510526445747,11.48213914405357,-3.1232883141739904,-13.96451957375686,-20.073050112572247,-20.74481352275592,-17.200084913284343,-14.002142136147162,-6.714544109035872,-5.2246792802400135,-11.04868723650533,0.5236923417040007,22.80694987868813,29.984105803131357,35.17672226646622,47.88468801932886,47.44540719494219,37.64508663589671,39.23956390567652,44.276861966341784,37.701859084673615,25.157207782862464,13.359468637395128,-6.401708591610518,-37.14462644499026,-57.018102888016045,-51.51886943982443,-39.20872885978031,-34.0259112130076,-30.30271735427838,-30.170707306001017,-30.363410452540258,-17.17683913507468,-2.1359723494199017,-2.823149528616476,-6.332708193962429,-1.1008746614912148,2.3169579820324557,-1.5323626894187043,-7.563918436242815,-12.187294056728778,-13.384267763984276,-10.918541115622126,-7.018088256029941,-6.4021988206096445,-11.890967326771708,-16.74556786381372,-15.909856177600997,-15.234195064828931,-15.518419591313723,-11.507327047290902,-4.101623038843055,5.891081941304552,15.123735783560411,13.804065750158642,4.403025070675316,-3.2889972519865918,-12.970398675829188,-30.742809203225832,-52.477424255387874,-67.55978559002484,-71.81604375244163,-79.460403094508,-95.00429465871383,-105.98268720593015,-115.58368837756578,-99.91784719028765,-5.967070235826284,167.0392454108342,417.93641845463634,661.1373344833943,549.8363715596447,-9.568869913716739,-418.985053102307,-296.2573356354187,-95.64901025961068,-136.5754929385837,-151.03533240253512,-62.390776080459254,-53.515740184019464,-71.1718962928179,-28.879628103931203,-8.845563055623956,-19.153666926974328,-7.545893116147189,-0.35479719036217006,-9.816458954884261,-11.081676289391968,-9.463869549976692,-12.671790697425514,-15.5532714498923,-15.85849077423055,-6.147107865550258,8.6398164281399,13.107657897991018,17.545803064549265,34.467294919453856,47.91128452646701,49.16776181306932,47.694027967966214,41.22039495293045,29.642170954228238,29.533922615484478,39.43887155478297,36.3328424587349,17.145117059847713,-2.0625650336654555,-19.725316206897602,-42.12871862387635,-59.519877784191,-60.36592714429182,-51.622688636324355,-43.350473502781696,-34.176274688972995,-22.4507713958832,-11.153905778174842,-3.0522959991412932,-0.15070808357110543,0.8462982316233099,3.9729740576944828,3.9664232082939215,0.15352640382152494,0.14007018703921936,-0.589364099155274,-6.628725277413432,-7.5959391095289845,-4.079319523147925,-6.414094243635718,-8.326094828801855,-5.081078155594243,-6.014578124803929,-8.291900208256681,-2.3465179894954993,1.919310993351754,-6.226188576993511,-11.719134827361987,-1.2028003221074979,6.658729174362975,-1.2069849514957127,-4.303755663014961,0.8471604695269441,-12.893216497740315,-43.79874662278369,-61.99879573432824,-65.13736882730456,-76.89487033556452,-100.25594342470697,-113.4405320281569,-116.10505933950009,-114.67758072299657,-68.25998397222136,63.38166397197726,292.22025885401234,582.5193961898386,668.2379054239246,269.1215721886153,-276.9378365990344,-369.8975344114862,-143.6867792604982,-95.2707096837064,-159.24055025421973,-101.08411018010666,-44.99296339299592,-61.71215267103893,-42.91413563900723,-12.829018218738113,-20.18289548958827,-13.332921657182695,3.7004155584695457,-5.028973734181999,-14.96828811367641,-12.029822483232847,-11.463762247578979,-12.251344379860814,-7.672600046797969,-0.38984705363489525,0.7952941220354233,-3.6147953924582126,3.5948112071773366,23.35463540010138,37.526917669126796,43.48749332008377,42.1272421996862,30.0435587436153,23.51865351984855,33.31033679842279,41.895365396751195,39.358685989060135,30.19407818231353,11.918207662349385,-12.795621946215247,-33.688076726031966,-48.44836655026055,-55.837814333110124,-53.889032104926784,-47.26414515565236,-37.690278791090094,-23.987595279256666,-10.506512481603984,0.1516439746302325,5.709714620342904,1.4126384193222155,-5.216096779571046,-3.8658898294794763,-1.9413916300269989,-5.36442944421966,-6.966442479503726,-7.239081540034235,-9.842848424804313,-9.141410158316928,-6.007208514624338,-6.944609867568435,-8.231158825682016,-6.436282707822453,-5.70529042786276,-6.815438306206513,-8.144095501846916,-10.033387730797152,-12.518139471350409,-13.742007825936241,-6.302402345521758,10.06150179491496,16.56726842750862,7.557948005662188,2.263318476170383,0.09776704103841993,-17.526569101045645,-43.443053448479205,-59.53646262828292,-70.42647884857007,-87.97991236447909,-105.07032473150296,-112.08424108008144,-121.67308918270189,-124.00693093737183,-59.96399873891387,113.74447455322472,403.0857563797383,691.0030205627353,630.1899576424189,97.54543469700701,-363.7071307451215,-308.6052316345836,-104.58337080173298,-127.13431769911175,-161.9262406884868,-80.50061808464852,-52.909040974039925,-67.32724273499662,-32.89995781396128,-10.742182347831484,-15.251627498797117,-5.850951110321921,-10.105747746547511,-26.119487780736925,-20.53021037285076,-14.137602863771065,-18.945148974848852,-16.328507673734798,-12.00507778701154,-10.661264717302714,-0.9956138176486236,12.15384188839598,22.599813234163822,35.84681528504701,45.76867510156649,42.35522479837918,34.27819363978929,33.70506791834288,37.113422510926085,38.134526508129724,39.090360325243765,38.08205581149347,26.723840716841657,6.4367098044886175,-15.294808566740008,-37.2627500170525,-55.06716091385151,-59.84231808080319,-53.50291745135823,-43.66728693867768,-32.37659081706596,-22.24909952662484,-15.71884168660212,-8.696805608099826,0.39944037869690874,4.999758401692631,1.1959134545085934,-4.370871348350132,-3.248483361492429,1.2805052388501146,0.5824761647148335,-3.691588669868441,-5.817937787186647,-5.331847521483674,-2.658172812144361,-2.0382086427786312,-7.869703477073124,-12.282970105543527,-10.033436242797311,-9.886059760385587,-13.424699045098063,-12.871318145056577,-9.449792893995074,-8.509707440358806,-7.124952728916554,1.552388822739296,13.035578517244504,12.05083721513678,0.3083711570148484,-6.353025883084577,-13.54079494366628,-33.49971019049622,-54.54344683294708,-63.72218694912095,-67.94813939605889,-80.43736758049835,-100.3200059397995,-114.60105486517887,-122.66389797712864,-113.35939863233574,-37.85953060508772,144.50151622911804,437.61209389611804,705.5415604367925,599.9832004581345,46.90612975122134,-385.0042264952489,-303.04372277913717,-106.2203215665676,-131.90661481351395,-157.51571731764574,-85.11763308817375,-71.63921765841668,-82.34353235942758,-45.05133511587234,-30.514767260648682,-34.269315032414575,-10.126815524887178,0.1591926135992594,-12.800304232481842,-11.953068301167843,-9.477554156520966,-18.15594396229711,-18.203939322162398,-11.276889978756492,-10.495489191228312,-6.460339313098007,6.549529265346422,16.96927890662529,24.901804656392454,37.400972278765835,43.619982786972635,39.22714997529544,40.45265343522716,47.102733199615564,45.25290664408374,40.93576505329048,41.620445216464034,36.04393185718721,17.28400312307428,-8.716375603142016,-35.8208927559418,-57.88294585404319,-68.10422204451689,-64.7820060146009,-52.059033065564435,-36.86374156187036,-24.070690013507928,-12.884621705310888,-2.8681954448576334,-0.0613431124587116,-5.750500169123136,-8.488376438475605,-3.5781990203615024,-1.6632162170918967,-5.281460305641083,-6.592873761161584,-6.9120227305168545,-7.93867865680361,-4.632389374080967,-2.8280885168154875,-10.523799416464417,-18.016491776049403,-15.448067245911805,-7.976851876605799,-4.005846942661776,-9.029816717917583,-18.19070831779599,-11.97701343462316,13.13813968842435,30.122031624331914,23.895179263277594,9.59979874499968,-2.5096947960611704,-16.57716388893946,-32.667458656480704,-47.20721187247352,-61.44924266612983,-84.99125932811641,-116.31120478475275,-128.1237479753629,-123.31114172457183,-131.86549448263722,-108.05542605803473,9.314271590099708,206.6087203806456,483.8680755151782,699.891067341131,478.4456195558445,-121.91759160168182,-423.761215050004,-230.83901623966472,-85.19185756612356,-156.98901734843437,-140.24582893409286,-50.042421209690566,-52.94110424716984,-57.63663431836147,-18.479707166043557,-16.902460575865582,-22.120187464399823,-0.04322103396310162,-0.08101902330475497,-12.615731414402923,-7.210854750397701,-10.960425694066519,-23.292604237653755,-17.926591827121186,-10.968027864707427,-13.72660313394727,-6.883763802349932,9.014030545500349,21.111720755559425,31.84324051593075,39.52658500537793,38.8256402108053,37.11441500414065,39.71287012247042,41.90498349838781,41.08522025344966,38.36171912509626,33.8085811489412,23.72350988699744,3.324637641403161,-22.64300014658704,-43.56577797275043,-57.14459844217225,-63.002756145846746,-55.02897278444287,-36.85288554603137,-23.52752644374573,-18.02377416660129,-11.402133023642307,-3.2047958088475905,3.4474700886468863,9.47489659142048,9.326390555267214,0.7878667631018192,-3.8520817959011175,-0.17558135811447784,2.139206679938143,-1.3201829540344008,-8.301557363649312,-12.292230624534554,-7.900155375629378,-4.12088899118738,-6.286373219573971,-5.91829260723317,-9.453976440290443,-24.830729622956344,-32.970281659202605,-22.259256284175734,-5.339091354245827,8.516494011366664,12.451285127957572,3.7181043502316644,-4.310120743122848,-8.259863192265117,-22.27903572636196,-43.981778712054435,-57.093011798409925,-66.76758461719606,-89.18929033656289,-109.79838243540418,-110.2529926043822,-109.81864936368027,-98.36036537604444,-18.943935667446198,151.11177723610075,418.4681911369766,671.4534452581577,554.2097534888567,-1.7030181309631018,-401.009145181626,-284.7178466035488,-92.37144531775587,-128.32534399590102,-145.3158180552899,-67.88581739312056,-56.3526920547243,-65.5523949486919,-26.44456665615948,-10.86900341292543,-19.007499615835606,-7.365333337968627,-2.9846083573275646,-12.626343250619968,-12.63368961515592,-10.177851644142569,-11.528835237899226,-11.099037122652351,-12.035215894124367,-11.252995774836625,-2.015585919800317,10.498313236008489,21.180179672905734,32.471630408592034,43.545804500638525,48.50112762519336,47.53210957699528,47.420665113059314,48.568827645983205,45.58214381952338,38.350634799066725,30.692062254473335,23.598775434137213,10.299462270166835,-18.38705386653325,-52.118175720024276,-66.76303387049953,-61.51059651073818,-54.115019109984104,-47.25692512931914,-34.703414151416396,-19.875895853664655,-8.32831137383036,1.094154787520191,9.921091116572622,11.10739631182593,0.3248285642799136,-8.655956560201837,-6.56378133179599,-5.05840565409178,-7.7323141496868715,-6.7935020964044135,-6.701617102350445,-10.357615839983874,-10.302084673312253,-7.447661832771377,-6.512991589955613,-6.691873308237227,-7.140681587986549,-6.328476759132817,-7.0886687598586064,-14.008175965581437,-18.578895206929147,-13.75389070526598,-4.806448827671835,6.7463118540870415,14.626219907279353,9.113379223564289,2.4773604669892446,2.3058656814060274,-9.486191974265964,-34.7488392112372,-55.39054026372575,-68.24921715320014,-82.14274577673167,-100.54249143848185,-114.70012700454889,-120.03399261898932,-121.86390195146187,-91.11914009700307,22.486752371091626,245.91232775812443,557.4083701914342,720.6042053249636,399.99074892673997,-189.52607495561622,-395.3766761414107,-185.98634758377335,-89.97039474524401,-159.80679606290022,-120.76750016405254,-50.168946842287625,-68.32951967367148,-62.73615454037247,-20.493821151949334,-17.769638710137492,-19.187845651198238,-2.5973403618032904,-0.7239011187382367,-5.529078178613947,-10.713867322974615,-24.438563903176785,-27.60383519422907,-18.084788086754997,-16.070357349267226,-14.715148937018737,-2.5125219388027786,11.63789641079692,24.321176178228022,37.4146432601156,44.74989002375567,46.50490364278352,49.657200511783174,53.55456990993821,56.45061124307235,57.88519139081595,48.89490487889574,26.719225189148418,6.306028891821729,-6.83480379743429,-25.561830085510547,-49.26278135157211,-61.615200618916546,-61.155965676767806,-57.69268191985098,-49.82252349381967,-35.02102324164369,-22.601603238818406,-17.06285770514399,-10.371183613153448,0.053386373716342916,6.464582384077422,5.152769664749126,0.36582355217962714,-3.239647360274411,-4.381917798407223,-3.9833723708085422,-2.8781228643254266,-2.360962559046447,-5.123210166576577,-10.238200371132383,-11.586417343203788,-7.253496952111609,-3.479970039613578,-4.283675499213718,-6.206502898099869,-7.699264855099365,-10.50753786969424,-10.66326255493882,-6.40429609293264,-3.0696343128311803,3.627539223009702,15.303563903736933,14.142009409669217,2.5386191565451597,3.0247784238066338,-0.6208816745405699,-31.136031113739207,-60.990074227401415,-68.4515065984204,-73.25175309517877,-87.02332867416627,-100.78847315892656,-110.42114902883823,-119.72548437727959,-117.0999510001821,-61.462339646504795,94.01370817964853,379.3532445708566,686.8225143813504,659.6011493954461,141.32295400083788,-349.5069632119131,-326.19696234146244,-113.90261996823409,-126.18053776767177,-176.7955105444996,-99.47171489531556,-57.13113945277048,-68.63472589206575,-37.080118990440816,-13.401807343076719,-24.0654016695498,-14.869860784896565,-0.014806561808221375,-4.6779973499408705,-6.719764792778136,-5.869013670849743,-14.918433828572358,-22.531827344898353,-17.688204449892343,-6.648482141644431,-0.6678591421028748,2.1953392042610638,12.193998216145568,27.25870031245735,43.129992981526854,58.720633648955186,58.81408168984382,40.221870878384166,31.702859956733793,43.98674309323981,53.36111607115656,46.522826296822316,26.214665554992127,-4.363112002216434,-32.116375549341384,-45.96540887251875,-53.97125771715378,-61.778372477643984,-61.55947781280401,-51.78304039468054,-39.58220072961319,-26.700621414332367,-11.993857592599447,-2.0963655651642554,-3.70657846181032,-7.907357965529606,-3.0559405686093104,3.708750781952439,3.471417722059657,1.1941877496022428,-4.322945463729425,-16.03670348437919,-18.189931327030017,-4.890069367668859,2.3016883721905117,-4.8323114368023745,-9.283215623914439,-3.785161391730046,0.6871728612310619,-5.457065689638338,-16.399505541753207,-17.995342662237142,-11.73314801540003,-9.511086172812476,-9.501842561690154,-8.199771621769408,-7.321606700212328,-0.28684810102957314,6.9235823034429025,-1.77189948914004,-11.541973183228823,-7.8178585267441445,-14.76262535760912,-40.13785190138324,-56.17302252620389,-59.244253353284485,-72.36891494709208,-93.94850543985176,-101.68980332696033,-103.58212233492344,-116.67076783545335,-97.20800342400274,7.050863784211828,204.84940726600522,497.7601405194629,703.0944385764999,454.4312406500013,-136.42170703148142,-410.9673911338732,-222.92351135735987,-89.19989144787586,-148.03479792841097,-125.14888957045794,-49.4010447990284,-55.55751931497117,-48.876953544119914,-6.712816706150871,-14.182945493176689,-32.71573670251934,-17.89080398997049,-12.259838204521131,-19.770118874649206,-17.335426386914786,-16.06423955056902,-18.223184192453566,-15.833685619788568,-14.484288137217515,-10.498823558475332,3.5569945296152996,17.9119066162209,26.064291122762686,34.342703271211626,39.54532538477754,33.85726210262688,29.599124876654788,39.947026794773194,49.00814056076503,42.98845922427757,37.42274100303413,37.82529728883797,28.280876895510666,9.477247340982144,-10.523805869775892,-34.371655398514534,-51.193804447884865,-51.661263366368956,-52.940142965788894,-57.50021979889482,-46.56376431487334,-27.98077403496346,-18.274191155800935,-10.42497915248498,-4.064837210771426,-6.57680722770289,-6.996249777604689,-0.549789069240461,0.9698731516124184,-2.1549271013063382,-3.9199620158660426,-5.426417449711586,-3.8283877399380355,-1.946613531132984,-7.850177534727962,-11.232023458719462,-4.1273261200598945,-3.125378064218758,-11.517278436377003,-10.773954205751808,-4.44293071671952,-8.155508672226613,-11.814778067706726,-5.774972261815963,-1.9640480563229588,-0.5250165383904779,5.6509718558338555,3.912149512698047,-6.7855504668290685,-8.423890679461284,-10.401292386549844,-32.1848655010981,-56.50415071115737,-61.88210046229812,-64.45281973971132,-82.49847994330038,-96.85684531884417,-96.5656774962036,-106.10155506393399,-101.58130215096675,-17.042798175595806,156.68687899876886,415.7955356846068,657.8337988350836,537.2691431917156,-12.535433593731554,-398.84248410696966,-274.55123202563925,-89.28336090632844,-134.5886977638241,-148.8729270737496,-67.37828651260742,-58.57874655754954,-65.83691427720206,-21.51150406543314,-11.417913464581723,-27.17362021447707,-9.190964070571948,5.536343501282037,-4.9461022750638755,-9.174548646107832,-3.7365121851637895,-4.812006168594392,-16.646694088847614,-27.63004208941021,-18.749489027519196,3.2151410544446577,14.522349319901428,17.40639825087453,25.088501057460082,32.78858029410612,36.99757833794673,44.37233293597269,50.621584599212824,46.18599502362355,39.6232482336538,43.35343383432254,45.71559760439252,29.602497018738198,3.8330960367165865,-16.39489824123043,-35.537126138135534,-55.38229982034172,-61.75678378595572,-53.08062183960979,-43.38133010639738,-35.05217094600056,-24.850906022389914,-19.012087485966966,-16.34937656240886,-7.895116419364676,0.11469861121661751,-0.6743658093673623,-0.6368117507932318,4.901458289679793,5.452863261124528,0.7819281112353753,-0.9397708361590347,-1.9814358256530014,-5.0321182778500795,-6.412301283683739,-5.641678337519988,-3.1359870087005906,0.1463696768872822,0.6843660106555003,1.3197532429178267,4.698953379678515,5.979387308881378,4.586426186756391,-2.240838457568298,-16.40701921026191,-17.067889910067606,0.6281309987681638,2.2878257510633944,-14.662981301912943,-19.30579952485988,-21.022367156089125,-39.066295908952775,-55.25435991352607,-60.58822297720714,-71.62492988908865,-90.44428151512895,-101.9205525700838,-106.66181479872091,-114.64496460273845,-94.67602265854372,-0.9847656553000093,180.72284075564522,463.81521502376387,702.1041313207564,523.0845109851489,-56.65560220382751,-401.43308838211806,-254.25622875233432,-98.08419066832946,-150.7221663421156,-143.5699785011297,-58.55290367738361,-55.42184922288075,-65.09246419002443,-28.40840442768689,-15.738828159685372,-18.862334392187623,-4.022328667650571,-0.06558514023802786,-8.573786878376989,-10.751375476193662,-14.072746586050098,-17.417414935102453,-13.859737788998554,-11.341092731798165,-11.044156339281873,-5.256940020630404,6.540928416185425,21.420497586996404,35.95655689899782,44.13758263909834,45.79564681862311,47.52800103802622,49.82069936629846,49.71695920073333,50.58605501323676,50.69515161413718,40.94388259326445,23.040950412672558,3.7412317439140352,-18.551549524012266,-41.083544190261335,-55.818771981951,-63.1426717543698,-63.21424708317931,-51.56599888150537,-33.876096718788574,-21.658594360318176,-15.670158502984204,-9.222761876860254,-1.0371619358722306,3.774414481086179,3.61666042710835,2.838413050939149,2.460125395181155,0.5408482099349889,0.016521674325852942,3.7015507494660245,7.252465512712271,4.177053505034433,-5.607833975278563,-14.132416483186699,-13.957619304240273,-6.428244769501001,0.1977821896785965,-0.8803979196678604,-5.887860815770928,-7.7201691293765435,-11.590490923979278,-20.868630188351272,-24.725233822008555,-20.660744853995983,-13.933676933303548,-3.226975499307457,2.398146165448825,-3.7822423332863515,-5.219004423774868,-3.1410877657648264,-20.104705269294346,-47.08723547015205,-60.389427293610666,-64.97046516662442,-77.01637325561163,-96.91043983495342,-113.45349506250184,-124.83252505985368,-124.65184397626905,-71.25689558332783,78.40601632007223,345.265822560931,656.6089285196322,694.3098951122954,230.38508191988592,-303.62235873817724,-347.5269360298428,-124.80955514975389,-103.71469800117887,-169.2447496123525,-113.93799519502207,-68.24546294825916,-78.07804615070069,-50.800324914148135,-23.156389171129952,-27.85015069845352,-17.103198131879335,-2.5854798251959465,-8.260856095625165,-10.703972110141088,-8.928186899426743,-14.32291032115197,-15.205354758730802,-9.205212341611633,-5.745246781505571,-2.4659495631833472,5.769568059312151,14.746508893572706,21.64301371750537,32.037960324333916,44.39276297230785,48.435048675794874,47.063768228642985,50.01648385320909,53.48515063156649,52.321025432841594,49.43406522473278,42.23985916342717,24.073058373710644,-1.6122185191520026,-24.388570296151407,-43.36161906337222,-64.35982574706966,-77.8730142515621,-69.73979620928642,-51.29526478355833,-39.78482065475067,-30.28695588952643,-17.63788330067951,-8.678713206486488,-3.779081479380281,1.1345003130061926,4.237905898161383,3.5278933114536386,1.3449563211981275,1.7151056176156771,3.694856004337698,2.1540268404039864,-1.2419557762061473,-2.4595023143545447,-3.6154749730291016,-4.266974772593144,-3.3321795855109073,-4.99769421079646,-7.731067490672549,-8.759814328445572,-11.633236704634465,-11.8148112529148,-5.710074610631178,-5.3800125408896555,-11.742529669971272,-11.059481549558242,-5.468078158262335,-0.7840178145046011,6.668330774671849,6.427200650365766,-9.5620398552568,-21.248278429285584,-18.182101101332055,-17.71898753118591,-30.63063089740681,-51.70559577381766,-70.04048012346792,-80.2377800515927,-91.68465104949578,-104.67931221919548,-112.14458852079312,-121.28208593260852,-104.1960989983814,3.0233693802496475,231.2508844603225,552.179264434558,746.6998924791102,471.5220930219007,-128.83957011478486,-405.9250796967921,-227.5740873885863,-101.79895851594056,-161.23225531541948,-138.16359321604847,-64.73926938793167,-73.57673379430331,-67.48595918234948,-20.257576962534113,-15.92921135060805,-23.819897279526558,-8.202225151303946,-7.872179348501451,-16.923296435572553,-10.521419944569958,-5.822462064001627,-10.878815354547783,-16.07272597326339,-17.452781288925394,-8.228926527183622,9.8630529502812,23.45023608717574,29.978653705942254,32.16703990376519,30.217891724032594,33.242324855959,45.691597727923146,53.47591861284244,48.13033752140498,40.11271671562883,38.23624896196979,36.873887004655955,24.532996037604494,-1.0870354507042812,-27.95377009815752,-46.00458719433904,-58.6286283224736,-66.86850069542551,-62.44947775238865,-46.50371443822411,-32.24723587269596,-24.73944031581904,-15.819024660893326,-0.2513453871688718,10.839797321657759,2.4462616280555025,-14.978284748064151,-17.112673462905867,-8.711713666142149,-7.476992645809737,-5.081632162672568,3.496524377038231,1.3889242569976616,-9.111623465295953,-10.217319727173972,-4.515919379825359,-1.5774341850421933,-4.273933386237243,-13.027377267447033,-17.440115843367238,-13.247044690755047,-13.796862990874363,-16.578982374496885,-10.756843091662923,-9.06321381339627,-16.660603356677846,-18.193859801027767,-12.941741294433516,-5.2003649060042925,7.15242132702128,11.318974711076724,0.269875248446354,-10.78008665663125,-18.054141741602002,-30.586022024774167,-45.68633115886264,-56.72931223634753,-68.02071332369299,-86.89569502204853,-100.26146528953895,-96.89184681278421,-104.56948681377101,-112.48463522360099,-43.51403277217945,121.76942519124222,371.1548056809652,646.7041345838707,628.978637590011,122.3845871236804,-364.24769238570127,-329.9750819201632,-114.33514973007304,-120.77900108625214,-150.73633002696954,-71.46419264922122,-49.30520525517414,-67.7415138185496,-32.37178668640581,-7.153430467721666,-14.70990111073582,-15.053877401562287,-19.66156565153149,-22.053159901412286,-10.473934476890378,-12.753923847096225,-22.880275859329124,-18.37701385168593,-14.550838709608954,-13.772690412308828,-0.7064472356292353,13.602894740697813,17.303219588074597,19.21155641076323,24.43395698890457,32.6322827308486,45.84251420722901,54.86882242072354,48.06629571831931,39.517665446492316,45.980394060187095,49.15273105594071,32.14751273520832,11.735258112113591,-6.243474583608469,-34.423521682047934,-60.20854587235727,-66.35522165516123,-62.873822502208284,-57.19906774528336,-45.58315719717764,-34.20246493379315,-27.085513572063988,-17.84282364663957,-5.893034779455142,2.689824446130011,4.114763507812778,0.8243783200074546,0.7441017191392447,5.652019702900461,8.764131374327633,6.789488309642994,-0.1222126381252373,-9.631060211827707,-12.864735805510634,-8.360448930463335,-7.919295504639376,-13.929681354126085,-17.6028249480242,-17.95572385066818,-15.31748989636864,-7.696410439014439,-4.5469229410512,-10.183527558893822,-11.307214752647916,-7.798182864246151,-8.778329588664981,-3.060846190445284,8.822060914002616,4.2822841246417624,-7.779610880769704,-7.363925387668001,-11.82470723888479,-29.09019138288798,-39.810224741652824,-46.269817721290046,-60.52111416298243,-79.47280333509646,-94.74876363816063,-96.97505690921312,-97.98769558440934,-100.77876559675711,-47.05035788594225,106.93639763896623,354.05981782009894,616.8950232602738,604.4449959293888,131.4433841486083,-349.45605799032506,-338.74964468003327,-122.15433517813842,-117.14031714170073,-156.64114395772833,-80.52050580599875,-46.247055257205,-63.475717120757125,-34.17384965277989,-10.091916965959118,-15.53028408873815,-5.455273372345889,-2.7811851652605863,-19.083540465814515,-19.06450425428111,-9.82904772707526,-11.095314810113885,-12.9950510154128,-12.396139261498734,-12.356047010356917,-6.794291649049736,4.571500786401447,16.684906103622907,28.564992434931305,38.608366811872045,43.98952895846038,46.420525295058454,49.8641592149163,54.183404481083734,55.038295532443044,48.30890968805188,35.402824867251034,22.37757433449073,8.644125686267762,-11.802345631000314,-34.6353204728237,-51.315079009029084,-61.669616101960074,-63.09809033488486,-52.71531387585375,-40.195627826831824,-29.613176947261856,-13.123479486395999,1.8133038008703224,0.9747706684757489,-5.752499513148834,-3.314344397397379,1.8007701646653267,1.9162089682328372,2.616492598724907,4.169346130713494,0.647787734876065,-4.156060868824351,-5.574651074506054,-8.055848702452135,-10.92384111249312,-8.247299525697706,-4.664860022534471,-5.98633899001744,-6.238284652968529,-0.9085774939750397,4.5344812199936975,2.3955731487267684,-9.076871374217031,-19.766801676769465,-18.73444550189486,-10.475169193879758,-4.1464024453090005,-2.893469723227348,-8.21756853271188,-13.884024406133866,-13.082883839170405,-16.944379163968144,-35.396537689292416,-54.614943691068724,-61.914926198298545,-70.97373150164634,-92.71529856524344,-108.23366728323899,-111.7023512554719,-116.83860190113286,-87.96178283607779,29.557484371869208,253.12744675874933,556.8995755914108,706.8749793060588,376.3996933062758,-205.2728176214555,-393.873880542794,-179.77328086669056,-86.9599261940955,-156.54535753240498,-120.89324187561037,-54.34686772358381,-66.0382729801392,-53.14242767346298,-14.226818733914246,-17.886267233555106,-21.535231135676316,-6.8826995504824,-9.038770739460897,-13.14424694723729,-7.113004987072975,-9.062468171415212,-13.299046136575978,-10.990995260405224,-8.485325117940988,-2.594428489628031,7.658375399709843,13.95959573530997,19.455239195339857,30.439008974479304,41.40627297424891,48.26583513382488,53.00851348227287,53.090619398227396,47.25765785202288,42.983587057559234,42.789198326584994,37.175982066621565,19.6959758621266,-5.198117059712815,-30.510873396088456,-51.43977688558712,-63.89676749676691,-64.63293128438107,-54.271487591085126,-40.34884094422545,-30.543338447310973,-21.87861064069327,-9.067854677425046,0.8184339091069077,-0.23409545908408802,-4.597117262860548,-1.7986145471579142,4.7733796228648036,7.390319387354032,5.812400731053231,1.7015898645479748,-4.916060659394773,-11.219784756686499,-14.689782461141109,-16.108577848770807,-14.082376193206755,-9.078654461241218,-8.276376979407056,-11.015648603142097,-8.143825894011037,-1.4569216285689883,3.519553098223648,6.559543670893111,-1.5181173172149869,-21.257105793449078,-29.39579213932754,-20.53203103093513,-11.031394415927537,-0.3608277282947441,7.962577459865265,-1.623821131145391,-14.080457553000365,-11.3591708327635,-13.046315642741726,-31.57263321420213,-51.099864307549666,-62.55960431475717,-73.07213714482857,-89.83711599282705,-103.97343656654633,-109.47836427688188,-118.12312447614154,-100.46313779389624,9.102267902623367,236.3328726888841,547.5859773470169,725.9546205702085,439.6125318003924,-151.4230647597661,-402.38727080732497,-208.1140093612075,-86.67053223135048,-154.85702105803796,-137.09122157514324,-64.85453964730077,-69.27491303558588,-63.04095142513542,-21.5640094293459,-15.835646212556359,-20.8034033046722,-9.709024557706483,-7.953443263214151,-9.30217848890544,-6.018958663046048,-10.377678141618082,-15.518224688412012,-13.987967370505793,-9.946113774138151,-1.061735460629835,10.055783729637461,14.735371959929818,17.653052323588952,28.09877323010484,42.3235537830428,51.24558304103331,53.13350455146421,51.306919198529414,49.099927662436585,48.701828217823525,48.72310739176995,44.603856058140096,30.13754742728397,-0.0693826595708984,-38.19233277331901,-63.32256119954546,-67.85101551515942,-64.3623560307493,-61.37918495772202,-55.643309261652846,-44.47881688046313,-29.910655148235165,-16.122938490890732,-5.536153186995584,3.3590911530314287,9.97822496333354,10.392452368826532,5.520836643480283,0.5392026254004723,-2.3958202468749263,-3.877417311133268,-5.055371272981812,-7.754008583154878,-11.524323421893751,-12.4694204628411,-8.967667537392193,-4.955992545420429,-4.461655554782364,-7.001707644317047,-9.974144388536903,-11.646347702409258,-11.956804982482216,-11.302411499715399,-9.083055997555476,-7.6739164282666295,-11.07383331103727,-15.050068234955187,-13.849444431368354,-9.23196343665834,0.9868777222633085,14.405073423096972,11.216048782109727,-9.068774940897903,-19.087620087332365,-16.936166593191096,-24.498262876666338,-42.298392354051025,-57.46487003980579,-66.37310661722174,-74.78934308908947,-90.22397461296296,-109.1356596122753,-122.6259130187066,-113.87329359915321,-45.62287861554199,115.11809402295367,385.41180652342734,670.2914931405072,640.8567493934867,139.1011923718728,-348.14160393404967,-339.3403863700023,-128.5146398191431,-122.78878008728586,-164.20401633379197,-93.97319741767325,-58.46361211633642,-73.14544512708254,-43.939052276034055,-16.14679940809167,-18.604807864762904,-9.013554877494254,-1.7459807136164898,-9.863859475837494,-8.734473318658104,-6.31598442802748,-11.90995139333307,-8.527028461965738,-2.5188057108244504,-9.095388996012014,-14.464102857162162,-7.086349721401637,4.052451714599066,17.043162902560894,33.92399599442871,42.341683168778815,39.6712198179757,42.892455623360455,52.070372933486816,52.03176127995413,47.14309142757279,44.77280088618119,34.314961302758384,13.445263513361015,-9.734428224691644,-37.019447386003776,-62.2071184567659,-69.16217280586413,-64.21115028074726,-59.65677864673185,-44.89459358532701,-21.628923238653407,-15.609848193364087,-21.755521527081036,-9.557366224706593,10.138996352872908,6.855750182134441,-3.39018478425022,2.2158409638009395,3.21581424395999,-8.328686738147443,-9.16750708719331,-4.965982986983676,-12.193606054078117,-14.700513606662499,-7.267482040767394,-7.113306428049434,-10.496447702578955,-8.887939076560002,-7.662901181848881,-3.0506349473681524,4.860831770712979,0.5238466068366456,-15.352042320639708,-25.03871311157686,-23.7396722548898,-20.559206386692818,-17.04722416461253,-3.4661293325151874,13.527366936273458,10.689477916377955,-6.440690546907511,-13.300563171816549,-16.71020867675072,-33.81162472409315,-53.699907569344035,-60.97319329478602,-66.00353427624813,-86.0566014427624,-105.67090310892677,-105.44040894752044,-104.53823609447521,-89.97089174075762,-4.424358974894815,167.16552891723876,431.2635388719312,679.592174793723,551.4767692299777,-11.215773021183907,-401.8981276026586,-284.5448760523973,-105.62093407956795,-138.72109314517348,-142.03874036707566,-68.40150195734464,-61.11345201194489,-59.86778960981611,-19.475377250639774,-14.530672795751236,-24.328662135924063,-9.885118353453704,-9.326296893293142,-19.620548141212844,-12.77823653692564,-8.757452646298274,-16.796382088157756,-18.29543534420502,-13.188042767518962,-10.357451690104766,-5.5422648486953445,7.83795280134677,26.149662902205517,38.4257281323002,40.75282403507844,39.767476208996996,40.830362834022615,45.068583846633516,50.17941334563037,49.36517503316654,42.551527665187756,36.59766923859982,28.168979829686936,9.629190957545484,-16.521456456145856,-42.23853860253417,-55.561679453751935,-51.91889149052874,-48.535129904675905,-52.91321828142241,-47.44972811072671,-32.912299489161626,-25.728634452829446,-19.392334910235746,-7.4723506149656345,-0.644356731255538,1.625273147763778,5.272201000023669,6.494776673129458,4.731817714240439,-0.03064998009776687,-7.60777451834274,-9.016582552858038,-5.934897164507426,-9.809845904042513,-14.599549342077792,-12.805599310068537,-10.936492188545571,-7.610326236395208,-2.9580524097126393,-10.91657228086818,-24.58685808410604,-20.567235813024887,-5.5558375997079885,1.0673253775423284,5.01495932359116,11.274038874051698,9.34561681240806,3.0635571171705163,1.8237179687104739,-5.521156402105682,-26.37105318421202,-45.789590459514514,-54.19000071856398,-63.182765768994585,-81.2210167990018,-96.68347107131368,-108.45877611184446,-126.77051681060279,-112.86577792933444,-16.292628783747965,162.23215121098897,430.61929603734677,671.9372163961416,527.1821217186424,-30.8533835127177,-394.3563614161287,-263.06314611504024,-92.1444720729696,-133.9766891674863,-135.88202991488555,-58.253483829622624,-54.894237157767456,-60.34683594778646,-18.130531323938374,-11.024548744127316,-26.13815555476122,-9.969601970722362,2.294722794906159,-5.580635501581112,-7.35504451769026,-7.147891748531535,-12.339261618184183,-11.089998027413642,-5.1016433925350535,-5.636937786812362,-8.463358027590054,-2.0898584749885325,13.165390369254524,29.890178358815888,43.554683473562854,50.20433124028379,50.21689635572302,49.78989414606366,49.830835140753756,48.78206800780771,48.7006829659869,44.08848166700866,25.691658852130196,-2.1278452012543676,-28.057837322593883,-47.38852307187279,-59.50700936583429,-64.86642576590758,-63.44832356810845,-54.08155554358967,-41.16799114682486,-30.72717472699922,-18.75375096450644,-2.64944256802951,6.542131946393287,3.78392238951818,2.722029048408489,11.658096136301879,17.91619598412387,11.341554586538546,2.2586930311451674,-1.1620063803067282,-7.193671169099128,-15.340584369062231,-13.422312018370311,-6.483305792664034,-7.2434669486922125,-10.758433990075627,-9.11763184715219,-3.984408699724394,0.7897636667517904,-2.0244537414680543,-13.31908309248033,-20.33822825725137,-19.14986098886834,-17.511216344631205,-15.775520417689094,-11.907035224747204,-5.532816943778638,3.4907376720814582,5.214288815177824,-4.122906082070012,-9.567467474423662,-10.201479251086589,-22.618519348290196,-44.47299560213392,-58.37316074827182,-64.03909799110868,-76.96643779182409,-95.96928984341196,-106.37035637624115,-113.38099731830245,-106.75517327180938,-36.534925575258164,127.68427874282594,397.55908456886164,674.836959949017,613.8423762094238,85.09087388536778,-368.7242259170399,-310.3213190217067,-109.1171574699924,-129.83486628652304,-160.97411191739775,-81.82180865616435,-56.438714637379874,-71.01542356357587,-37.37592162113566,-15.233462261782819,-21.15872871137575,-10.268530387504542,-3.6615340136187005,-12.523658682812641,-11.749345486914464,-9.465938689160062,-15.31104696840555,-16.37083522960735,-12.960468690125554,-10.198751442347264,-2.8629865856718677,8.834012630625095,20.85787641696832,34.32920149082155,47.604720765349086,54.63645707649728,53.433813723008036,47.34268291857583,42.521346271024214,43.73775691160038,45.916485124499545,39.38053808877004,24.977219815823048,7.514403596043593,-14.994339264838558,-39.732072093389256,-57.231436884214645,-64.1638212976966,-60.65260975362773,-48.39787800764371,-33.98347620260871,-20.39554636645186,-10.464828866290965,-11.153453629144963,-14.46513597810506,-6.067608081630597,4.8721235181170535,3.807971363948047,-3.703464991601244,-7.77672014977874,-6.067533569489701,-2.152262178249135,-3.953333316021304,-9.858208593972442,-10.65953753955056,-8.848554194416502,-8.855600056359407,-5.412593455997024,-0.6869915010715566,-2.6722316419869827,-7.387127334505777,-9.672850647201841,-13.328100884728919,-17.929169501648445,-18.719767944634395,-16.511788917673716,-14.296201368529054,-14.086346266028144,-12.43396024333091,0.22116411114489054,15.48221947834201,9.990801718860071,-8.738756908780564,-13.856036473602646,-11.941895910166638,-25.223070713139627,-50.63635567751826,-70.81520799524817,-78.57055960199287,-84.52010540045251,-97.10881986676034,-108.40420622170328,-118.27593231444149,-114.45445707771732,-40.84134175204709,153.58015637995376,466.5549356153486,731.6341870269208,593.9862895750897,26.630413607428466,-382.4910059367362,-290.217561432968,-113.06274613322826,-145.85236285329762,-158.15199961296975,-79.97877148378228,-67.79015843664322,-75.54990246201328,-34.71514668752675,-19.105644281588958,-26.85368554743871,-11.121435533184433,-3.2846180166286416,-12.835380992730894,-11.305273340086591,-5.329809091148235,-7.956623014729784,-14.479636122305617,-16.804464783231566,-8.179294803831324,3.5524024837953583,11.454003380056704,24.886611996937383,37.058943987815354,34.72529962698764,34.065274642299045,44.31517493966885,47.40071595214876,42.38805857669903,42.913427902943255,44.921950478653976,42.23302250675986,34.83415529898529,14.828430285286842,-17.11915552880206,-43.05627806039629,-57.15875752848632,-69.14079324980239,-74.40036872875812,-61.53208869738333,-43.15761048761252,-37.01840034454251,-32.65461556502108,-15.387541343830208,3.4394864829952,8.200075969305932,1.9794698958866803,-3.651675093016177,-1.994857741505136,3.664113265288856,3.166921554542837,-5.491104284146083,-12.178407477889053,-12.755479100580068,-14.370596320926147,-15.979922139625948,-9.572231178302257,-4.02546655651253,-11.294028788721612,-18.016680111723126,-11.235789800522529,-2.8885652323530095,-0.5876346182399566,0.45665948733786266,-4.139253213586045,-14.73958761799804,-19.158656885874933,-14.351432534792163,-3.7104640089419103,9.695328529605405,12.815657469763252,0.3611774466198554,-12.789688332761713,-18.705239102177114,-25.461566548593552,-40.99100950962295,-60.62504983802318,-70.03466366509117,-75.51895326606424,-93.51116334001007,-108.19842461583234,-110.02835008163034,-104.30367016377508,-47.47070829454697,102.04446245682452,341.71651744592015,611.6566129430048,638.9320175125386,194.64534777717478,-325.33265847166274,-365.6526368659738,-132.01118581443205,-93.28565163723799,-149.2008423863736,-93.35388879717152,-46.92875655899358,-57.39414789330819,-33.596753359913635,-4.853461961501118,-10.424089848989382,-10.190457942397668,0.14953661262377338,-0.7111315019893709,-8.924308403205835,-17.473466232029377,-24.00507925810933,-30.434292796975097,-34.47675137205294,-25.91511557375442,-10.296492742509113,-0.5861915665610891,5.432580281241057,15.31523780732451,34.46803983731132,55.801508485608665,59.18349472214785,48.22303569135986,45.21629668920214,46.89881332041469,40.953156173596625,35.427228029486955,33.39970440173863,19.36115098808248,-11.620019022861582,-39.81460371240943,-51.0978051010605,-58.44448919008691,-67.09814005409329,-58.778538287097,-38.70456130230165,-32.20104061764202,-29.6178528876928,-11.401600568066517,3.8678089280237415,-0.3543513821692983,-5.427486564945887,2.614256946674656,12.72485262548785,13.236189057963522,3.953070651163733,-7.514819428881427,-11.874240322000091,-9.932087781115944,-10.915287489384514,-14.4728262945257,-12.750967849688791,-9.168921915927472,-10.748588148953523,-11.267456826544997,-6.480209960586301,-5.819723523075066,-10.943630304602756,-11.544017456965218,-9.11134667235156,-11.177039172541665,-7.794878057710243,8.727924553062484,18.802996017746118,9.209963531852523,-2.0006015255302536,-5.590412093750588,-16.894362634635364,-38.46083632282629,-55.800112453456194,-65.36959939592646,-75.65921530038804,-86.61263425523428,-92.52737841630483,-105.18594153613269,-116.82872548298954,-66.67595757091411,75.9056719870559,302.5707371069426,582.0546472527744,659.7844356692469,253.85304407099082,-295.3261544730903,-384.11344193429727,-154.45889539294944,-103.04881334087501,-158.22518744776517,-96.33137613164455,-47.04253168810325,-66.52180260275473,-43.211714651408656,-10.361909459654182,-16.871614254442306,-11.66006029634645,0.21962434133251385,-9.371534940026176,-14.934114025524812,-10.297294446295762,-11.078016059605929,-14.701431509373922,-16.360857319700024,-12.772318897236254,-3.9575102808896183,4.8038401925006955,16.22945760394003,30.373665770219915,40.69866262302928,48.335941659839605,52.032170101931975,49.30951163536504,49.09545608266377,52.44441358187431,49.63211084198929,41.64878044521993,31.05808671351416,12.424141870185593,-13.522010386912287,-38.69896838659649,-56.87296875235192,-66.55124523064711,-67.49433426249074,-56.47727115643409,-38.73010877721497,-28.425238296869473,-23.3054443907057,-12.569776042513219,-2.6690897814335948,1.0620680322310676,5.681461027372954,10.60672650492193,12.602644077850051,13.181334733869924,8.373294710618019,-1.103656030056623,-6.555057503859864,-8.650212095502223,-10.225887366551131,-7.181555920710167,-2.8483841714843994,-5.735619133301039,-13.602895247275889,-17.125950897111018,-13.251441018981208,-8.94661671037731,-10.954319801669254,-14.928872758925387,-13.737583996198163,-9.430499503546594,-4.140222616307579,7.518842321072492,20.428345771036184,15.59737810666552,-5.51041559686708,-18.529493435722106,-21.155938699244068,-33.06235382424938,-53.206536516161506,-65.7945364953375,-75.36154139431713,-93.31921240372614,-106.95288125815284,-108.21074285412463,-115.12317597891524,-107.95523930406533,-25.237091431632095,165.07228617494354,462.4900267212254,712.8924176101807,555.6821821611935,-15.81628197846534,-389.33777373261614,-263.70277485729775,-93.49623438785441,-139.39236114287039,-148.38236962425012,-71.22801329406556,-64.03531543516347,-69.89264590203653,-28.10829770445192,-12.782459152050944,-19.459683870522376,-8.946922907818271,-7.028254689846545,-13.546627452807193,-10.064160180799602,-10.142995536485335,-15.51412254264598,-16.326745228490182,-14.98928884304858,-9.607338471963198,1.254414530955808,13.00471295424303,25.876861435676332,37.7757208832147,46.31031446450625,54.80286793031897,58.34093868426517,52.30559472168924,47.79173756223314,49.4277250452467,47.489305086453555,40.030110021649634,28.80354742758003,8.991454403470009,-17.884815372994908,-45.06990209061745,-68.2459407103844,-77.32818932559735,-66.98057175795459,-51.902779704839645,-43.86221139030426,-35.553321502092686,-22.47913738319245,-10.047882863920094,0.5915321892736554,9.415585708271104,13.378328011697434,14.167475492718445,13.408284666224478,9.107493991180746,5.751380040462383,5.114183601655805,-4.187940247541242,-21.243817277673692,-26.362669412587316,-17.212389192649503,-10.953077784389755,-12.51672003422977,-15.370948202273276,-16.361777412531108,-13.959846500316036,-9.05801756595351,-6.471896955371093,-8.867010125654687,-12.883679853326719,-13.203248321855156,-10.500739698627617,-4.532787093628819,9.630324203180463,18.02479234501176,2.132745571888158,-16.721541274734534,-15.044338451155989,-15.533260334225943,-36.38889045857145,-58.96921511640416,-71.512018915577,-83.08318543791704,-96.72769455358389,-105.52972722553775,-114.47452734468452,-124.50666558998881,-89.99013406441735,43.42304245337931,295.9794654545978,618.8922485177364,737.2319411873389,351.15673633689613,-234.50470458190892,-387.4666312413263,-175.02861987322564,-111.76039851176807,-178.0127001178467,-121.49096172127064,-55.24310360273059,-72.57873302257708,-57.14856296942051,-17.23832286525595,-15.708676877528198,-10.300727460253778,2.5637462997674803,-7.0359983107185435,-15.200557744562126,-16.892875292094367,-28.39584969047454,-33.84905625410575,-26.717476390924055,-20.369953250281032,-11.408606735048702,5.291320698767851,19.70678856216374,26.610736951006153,33.57150322331887,44.479561994223175,52.63821389131925,54.50628485374461,52.80038336391514,48.66161937244577,47.44574304629122,52.256204771403056,48.39881404008135,24.665131972498042,-6.504134324984187,-32.029191989386625,-52.7978591633285,-67.63731931908092,-67.42657637540493,-52.48198920353502,-41.61857063398605,-44.58682211423378,-43.19565372477545,-27.392594501286545,-12.705011008064396,-4.1387960339584495,5.482200240132434,9.219009699421996,2.1784190132540147,-4.196896047635338,-3.838579116821709,-3.823475142967851,-8.684580198625614,-12.73834034276534,-10.976486283463728,-9.023549262072724,-10.906826225542105,-11.428843828427759,-10.086787729151201,-10.663121714615432,-11.602960917618713,-12.289224742081398,-12.027335603255366,-6.939180029855034,-2.8056207813290825,-7.142402080084807,-8.555036554753087,1.6774048300572844,6.461248145298992,-3.7888761706803002,-10.703586250537402,-7.92972187213212,-14.840299042821552,-37.19387068708605,-57.343734950049615,-65.11839205451545,-70.82862810246523,-81.9760353826533,-91.50905028155219,-106.30207962956959,-124.76621152531668,-89.16481243360676,37.14872372324726,243.29834131765514,526.8634295542652,690.1638569789739,383.5566431702247,-203.08637936134528,-408.64049627422,-193.1580829884606,-94.52241636799936,-166.90724511219264,-124.4312488051994,-41.90662756688252,-52.17518080877153,-49.80680294093423,-12.36411493849642,-10.029189404506258,-17.422397100728922,-13.89862007369667,-15.253535642845584,-10.774528061737225,-9.147034464466493,-18.259944528761423,-15.654054351778331,-9.406801523210703,-12.679388296822854,-5.8084887291611755,8.716589479614134,18.24609665914129,32.97039807487697,42.87458249112869,36.355697423227184,37.38926840913627,50.317923191144644,53.88153990202877,51.10679096034623,45.71207340145126,31.14116225557001,20.252682205828005,13.456004194631028,-11.086723266233689,-42.57887937555379,-55.5580902197526,-60.44368041162136,-67.99787939457643,-62.61783663247465,-44.003695024188374,-30.901014851100484,-23.63710872701787,-13.543252795211423,-7.5737433983262115,-8.304051813645543,-2.5610185949263347,8.11911650659109,7.244964223856137,0.9037232904880259,5.945973088060933,12.116134505007391,5.845179706569695,-2.110605136902178,-6.020969299296883,-10.672280678777682,-8.850402562888485,-3.659778504813932,-13.191784150231697,-28.36325150728053,-27.28095141505144,-18.365950098788005,-16.646028418910664,-15.021882981931293,-5.640658137435665,3.9115108022644804,4.718880071195812,1.9564739452902629,2.1875248628388384,-4.357395263533693,-22.04341636606924,-38.096442160583535,-50.28458728638766,-64.57734497325991,-78.20919695891214,-90.34504320490043,-103.71916831849379,-118.82757799767126,-116.6889140475838,-54.27317416483709,87.28150056585278,318.0792222932321,599.9483166449803,646.7231573037901,211.10558058976412,-308.6566074270298,-352.3545222328959,-128.69745969267805,-102.95215080199667,-159.9777896777579,-94.33530313089454,-47.41901200269279,-64.886741833931,-39.90253139140948,-10.605375875644992,-19.77412708519344,-13.398646461307202,2.20128376419634,-4.2533940269990325,-9.895912238149883,-7.6484209111825034,-9.933284918781778,-10.263983465065518,-6.105892771547116,-0.5514728546187502,6.928302888865814,10.50683055531042,10.176997292878717,14.787926746553916,23.999596060890777,33.22834043602149,41.55297275497508,46.924454358913735,50.16952555715491,53.18600301757606,52.81360346722013,48.061510273713075,38.23516734408807,16.937950882429636,-13.837369084237118,-38.92578300165539,-49.97363412366427,-55.78047827543851,-65.77433364915993,-71.09532467311404,-59.46095604644167,-40.689676020704525,-27.983465095694072,-15.926982674095356,-3.3559690446608954,0.6279676379164947,0.051154638026250865,3.3614219613580456,7.369860523396905,8.443206890645097,6.421097714830214,1.531164556759105,-0.5746183832344549,3.982235716931976,7.928146320551335,3.251077847674793,-6.776188631991062,-12.176473273025712,-10.468714937041877,-10.424223129550017,-16.228385696600483,-19.959239628068172,-18.848769859246367,-18.55084987837579,-13.430792241793231,2.9801933649446894,12.97495627171314,3.3097990481514508,-6.707149189475814,-6.464017143083394,-14.252671444229753,-34.66324565149024,-51.945558775154545,-63.09403972922869,-78.63257717698576,-98.56552427117074,-109.18779165609367,-112.31687446111975,-115.87559347308965,-82.98079797786227,35.93926019708104,263.4498388648442,572.9017154565687,717.5963949341124,378.12671888137334,-199.87342508254702,-383.7435561708181,-178.3338660029752,-94.58018196840469,-160.52938574102885,-116.12600955080205,-50.03201070169611,-75.30938779847042,-74.08356399692636,-30.287985526913843,-22.290579613039252,-21.460962138342236,-6.911629703239388,-10.331556471702168,-17.093748633247085,-10.99674022498889,-9.259038546681174,-10.177294829628071,-9.060716483421055,-15.582037552591359,-19.479498865273946,-6.358090464682032,12.88034317770783,26.94876243507042,37.781253350598504,45.38312616298909,49.95544826052525,54.5834838819727,58.23603833363769,59.67260731311812,58.321080502108416,51.201866457674214,38.99177611235592,22.196894493761448,-3.415498778637285,-33.23007168461829,-55.91079758392423,-69.6967115217578,-74.31847946415321,-65.53934017563924,-49.55839956825011,-36.51281928718029,-25.847600621272065,-16.060508224537067,-8.890206512972625,-1.9676854003905468,4.066981310994839,4.480212540027814,1.7801300144250725,0.5227490597822015,-0.10682947085894945,0.20124186635447217,2.342747143269831,4.096443663245434,3.73271965649497,0.6634505199545053,-2.509482653382511,-1.2085220867529696,0.36059695315483964,-5.175920526110888,-13.985717141044379,-18.923662585887083,-19.411000573584513,-16.399749202646458,-8.081819796331093,5.462324236766488,12.400921725621725,3.3304187519591313,-5.0942228199776665,-2.4215564187851157,-10.531138484757665,-34.36915027653154,-51.67503157227834,-61.54386065433789,-75.16299410882675,-88.95390841929425,-100.65942815514464,-118.20895265747274,-141.00289888305704,-130.09671360242316,-30.750618889737908,180.21078958624418,498.32194430860676,756.7041395938592,581.7256262777848,-20.681421944628852,-406.41730644934546,-271.9284948865852,-102.22664838994787,-160.67737657570507,-168.88259634391449,-80.97226365755836,-70.45619500152243,-73.02804876446066,-24.57161198320832,-10.865884735938408,-21.000939620859004,-5.597194412963978,-2.0370144862421995,-15.906873146128,-18.279232963336074,-20.84280570758563,-27.424704073345154,-23.749689914227133,-15.645256941670432,-9.109706468120597,-0.5564186544687044,10.049782419214043,24.244005321148464,38.91051218019461,43.78667237388363,40.79412984873946,42.05212795021173,50.61599618012613,58.59291166787671,57.346638618665935,48.87163679737684,41.82080918746928,31.533979520263618,7.2078051206525835,-24.20304192909169,-48.80349579483189,-62.157919785400594,-63.036068607831524,-56.307315683340704,-50.74392979015135,-42.966978893689365,-29.67713697774633,-19.577548985666112,-13.112568609182915,-4.680120566096093,-0.26758909277888066,-2.318529551724989,-3.979134574045746,-5.021867340739515,-5.299704120660547,-2.562499150650673,-3.2089256232533803,-6.059744378301129,-1.0727246710495422,2.384076898400634,-6.320675370114007,-10.184489778046075,-0.062155512561837156,5.684891178942017,0.7848225806003306,-2.34034917258089,-1.7997491823385054,-4.24450975445674,-10.559597393048936,-13.282978232341005,-3.167836834309501,8.051194908768633,-2.2458289146883885,-21.127252685743763,-21.549872309061783,-15.223792698015409,-21.943926337223544,-37.94208081007702,-59.8394122483643,-81.16116633861886,-93.09266790023554,-103.46008088130205,-114.31536661330775,-122.75948594363746,-122.29148785866279,-66.84703583219215,79.31174924441073,315.8226773959974,601.275974060016,669.7348921226428,247.12545608850638,-305.43781180639485,-382.6146519385959,-147.97032919952883,-103.43335002561999,-160.93467854458166,-94.61611362376416,-45.33578255569012,-68.45405046315241,-45.197687815429774,-11.191845135147563,-20.003026515692746,-16.65018775056611,-1.8235848048802996,-6.205830859541869,-9.055016927642004,-9.560141055558901,-21.056490778595602,-25.503595117178826,-15.587746344162849,-5.759739793220968,0.2641987924824529,6.093708299711228,11.995529814178814,18.830602585381044,28.56234169831078,40.869020547029066,49.54013049076717,49.045923593657136,46.2159630921593,49.004977649274196,49.95507583353683,42.00261441168814,31.883742552776567,19.10148250742371,-6.737807593349931,-38.632187890686055,-57.63191892146326,-59.42692571230559,-51.63581588076492,-42.364387342092286,-35.97404327368241,-28.195430369238025,-17.00473224314149,-10.54165010131928,-10.451612501323439,-9.480920247361787,-6.128592693546548,-2.2031702736159495,2.72798315787146,8.4857766878624,11.567168857034353,4.569229969045505,-9.3287101739684,-13.431158030557153,-9.5709336736553,-15.368096309461272,-23.513530476027228,-18.5655085932782,-12.994432767642792,-17.10121887424543,-16.13997052436257,-6.64779615428262,-3.6474273590928448,-3.154939169381917,7.121453493771956,11.490943501468026,-1.393966073642872,-9.482355480409804,-7.995525105590028,-19.792078805759658,-41.82268477744453,-55.995889071037794,-64.97454154855295,-75.28987929905242,-86.03831127515691,-97.18766206974743,-112.79459550435115,-122.82910068647232,-80.69953695666788,45.66390352511986,255.79265105552327,537.1744049456663,681.0140970556116,363.48491942878013,-206.17258936338533,-393.3596099988106,-179.029247241576,-83.62228572971104,-154.5407250593089,-122.14739664048848,-53.67792188517606,-61.48228415410658,-50.41090587066061,-15.85358550888937,-18.416896448921644,-17.96424379990954,-2.1274751056622243,-4.910367262357779,-12.09101262405145,-12.139573899699132,-14.41708048394831,-11.776183725796448,-7.650768435230483,-10.962629651995,-9.440941671390755,2.2793062913588322,15.383389868911493,29.11830910327945,44.68297042617379,54.86533876094522,51.688639078145705,41.441863559203355,42.618379209482256,54.16997115570173,54.80598205984169,44.44039150998408,37.543145100059554,25.65280473314441,-3.232763965160542,-34.59897180739835,-51.095132396279666,-58.430016739957814,-67.67291058142158,-71.92137153414464,-60.41741998404261,-40.837089055112855,-24.610531096750016,-11.14391727539271,-2.9386037765791713,-4.859863765646633,-7.447716729796364,-1.474364911200702,5.886378988572979,6.471582880599403,1.8501896500096002,-3.4788712849344456,-5.614839142313233,-4.2231125131279015,-3.899460022546256,-5.51101314826488,-5.258912054218513,-5.192359751684666,-7.880083654161298,-7.235247272249488,-3.0340289752199343,-4.174947420281482,-8.607396471974937,-8.72845825114327,-4.246697372726022,7.451002545230919,19.816633960635574,12.696369209164793,-6.727237294074728,-12.512350153455294,-12.869685250226244,-27.90635412545152,-49.517707307716314,-64.98207356611903,-75.77921209293831,-88.49380409755932,-102.39292490135279,-108.76940235213942,-114.57500647003096,-116.48680506971502,-62.87363748796387,92.11685490756675,365.02803300826247,669.7807992316131,669.8310397436147,172.1354776046515,-335.36293320364086,-334.58398199664197,-118.43082817288902,-113.01899353192879,-154.6935835019528,-84.42816626219688,-59.62007024648928,-83.08134382466659,-48.800209080926784,-17.37993381035518,-24.572278209663576,-15.261824389105033,-3.6484181430235836,-14.492080028795712,-20.4747309630512,-17.987196726563713,-19.625149217831854,-18.862605000846834,-15.453710923760948,-13.226503118971861,-5.540527236284268,8.952878622832547,22.802896889249784,34.17749910624221,45.63788324923914,54.5389440539325,59.13165260033557,61.39727644336105,57.144124070828134,46.72329789811184,42.956170924545944,44.89696099019395,36.14674501179322,12.843210887695463,-19.35290440963739,-52.77242143266394,-71.82320968647963,-71.41045766581684,-64.31219343189032,-56.15111871846864,-43.68346762307797,-30.416036722108245,-20.75567853910487,-12.626257330333353,-4.434568773214444,-0.5281563361835353,-3.1878498819746,-4.624117301491982,-0.8227428230643827,-0.06983257745387661,-3.794203958308545,-4.733558463633141,-4.525613488379175,-6.154362078146052,-5.464543691995409,-3.182909544445989,-3.811877411707318,-6.055535096916195,-6.6363801812393355,-5.171092878813024,-3.3223563306414015,-1.4913888636497479,0.5445648525286924,-1.2059174726751252,-7.077908175080854,-9.261777986932074,-6.308355537002225,-0.6446379621453069,8.374285122861014,10.088118644878303,-2.5416943639343543,-13.292073123257968,-16.72288096468629,-26.782415040212,-42.46232262853111,-55.69542837634382,-68.46279523704915,-83.98267089671577,-103.308409084559,-119.3802544485042,-128.70888045663466,-131.85893036780672,-90.02129861156948,51.06911998383494,312.400435397461,633.8085198191715,726.113320802248,309.792272879719,-266.23487229395334,-379.6562898809042,-150.491305957853,-95.48965909429018,-167.09531803319766,-118.00585352791683,-59.94540456348541,-67.85481408411992,-39.68495728948315,-5.726250344986244,-20.490296969595644,-28.268130341429647,-18.254016730930367,-17.922874001386795,-16.084472519532433,-14.643395879380336,-19.848421963731482,-18.70263068837847,-15.779050484420237,-15.531650774241404,-7.071106921350345,3.35041369681345,8.913941026276397,20.449036043983515,34.25276344840543,39.94455040031066,47.24828751249761,56.42361137264975,52.99304137379062,47.31059217867857,52.41687292586414,49.780436506602626,31.306828825292556,13.573864316457732,-4.938786262946727,-30.937565339610252,-50.08249223609375,-56.600428719655056,-57.433071100309036,-51.367013379750745,-43.87189744912092,-42.11881548652239,-32.61092357127473,-10.631516799611667,2.2208009309176973,-0.6564136059540857,-0.40340114375555025,8.904594555716578,11.912533971752712,0.6329839927051921,-12.725064762891535,-14.422414504639427,-8.782599708647382,-8.488995115731477,-12.70266331114333,-12.032063006017502,-9.128258391087904,-12.293277398728009,-15.502734727117595,-9.39655519677267,-0.4169271790567102,2.1919837494758347,-0.8104259897708879,-7.695666814182502,-14.920688332090151,-15.653392204984012,-13.448942677137378,-13.931343308678635,-7.983615287817916,5.669663189607711,7.487530943253017,-6.032793189086519,-13.812711886635363,-11.39048301960541,-16.76034431925104,-37.4583741512149,-59.807884408125574,-67.41782869524181,-68.57831990489518,-82.8478604462387,-98.13198737764837,-103.4810646420406,-113.6879052166257,-93.03735490091287,17.909709973388615,223.35140781729888,508.83690078542423,701.0130537277657,449.21494410558006,-141.92089536613088,-415.28499353792,-215.94278123536196,-77.59362132648951,-154.73532112834965,-148.0288685507478,-65.0815818344897,-62.10238097489784,-60.48584457448249,-21.53208058715697,-21.952801031962885,-32.38849892934961,-10.106189039050486,1.9927510775100181,-7.473891556996662,-13.419236913969868,-17.792282233395973,-19.8535807279581,-12.030713148963512,-6.899983292918912,-9.097853761046533,-1.726297338491936,15.174316789916848,25.032698886918958,32.97997865137192,49.02184136807269,56.711274890686454,46.551798987462305,36.99871768836922,37.118027390609406,38.721075895413705,40.771533162557084,41.20402957966021,27.969817422900643,-0.26334983586821004,-29.41387071545613,-49.9722273632803,-61.582562080745646,-64.10220987865812,-60.23819673532207,-54.56470595448873,-43.85667941048085,-27.806650118859107,-16.60364385307024,-10.238003465921231,-2.075351716956611,0.8519532325116224,-2.6988024284519163,-1.376048922607005,2.4211355130336187,2.7426893324326453,3.2117440758351847,0.13679178528354363,-5.306104093835508,-2.6232968875344955,-0.8519864775596542,-7.714264010688863,-6.8982717842405865,1.523666158945188,1.3558798803619645,-2.927384847328149,-7.775786460254537,-19.079812459771816,-23.84201201428987,-14.240446364244882,-4.375955154230738,5.338458584232528,15.892736684719265,6.880911853892197,-17.756944874013705,-26.985772289958202,-24.007383748678897,-35.679485799541276,-57.90538100995566,-68.69492729818663,-72.08634071584444,-86.56172787727891,-102.69906360945562,-106.38572543885687,-110.03978333487376,-91.23099494539585,3.8678304979644196,187.59318231177903,458.42504582342923,680.396311656174,502.5432455444726,-66.37536305967717,-406.1502510264627,-253.2119255868868,-85.85786266373755,-132.67996742637257,-130.4801848200231,-54.76914394196706,-55.913003117981816,-61.860498425272226,-22.819747880270405,-16.390392308000642,-26.382598409149,-11.295182564465504,-4.078068086656579,-11.759079603514483,-13.665348494338089,-12.527481129039097,-11.101282455680195,-11.55932092249767,-16.310342923075744,-13.84372808069808,-1.775926313224417,8.966621001056271,19.676589077444298,35.60351840646317,49.48952497249915,53.38282779796654,50.663611455683714,49.25394047784676,49.96565365101216,48.68861326889002,44.98687897756519,38.63883039350438,26.1832177483043,6.7269426111616655,-16.978610074828126,-40.30636480658806,-57.05719328016573,-63.99847029471972,-62.15320413475237,-54.09922290137395,-43.917468487872284,-33.357868244476165,-20.816699890154908,-9.29576333541943,-3.800987962063534,-1.0273214355842875,5.190220306746656,12.285515240535705,12.657048111005361,7.271530882914645,4.9443778583880675,4.141741625930521,-4.547563144799286,-14.815681441439448,-14.238174964763058,-8.655462379347405,-7.217599177363489,-6.758122086204386,-5.387906805572134,-6.304732642660017,-11.208388190816184,-17.47634040674403,-17.12858422094975,-11.247502811055613,-8.039616992809988,1.5293152687977187,17.920638601478533,13.977197154033668,-4.454003611087437,-3.576045580591737,-0.9140702479864551,-26.67672465578829,-56.3437991865864,-67.46404023881348,-75.26388140617378,-89.05965652804026,-102.20887217989548,-110.43600252978337,-118.32418763423533,-116.01398168011282,-59.598502123991295,87.89918763108017,345.792489015107,644.3711939528703,664.2703281581164,191.73178946027775,-322.161019814147,-342.46105567922,-126.73417338972628,-115.4517870858064,-160.63568586334176,-85.14935346933287,-48.91203033721858,-74.73857672693944,-47.27507198877881,-12.86765952844695,-16.598101721971695,-10.453036340172044,-1.5544327707870966,-9.583405730118603,-10.001020335587215,-5.42805655997873,-12.032238255079978,-19.637660321128088,-20.43224312463763,-16.261467406475195,-7.753950212985113,3.140749037046727,16.490836383632036,30.023727422090914,37.50095186038463,41.682504816661364,48.84055307950371,55.9397996989581,59.083336868532655,59.013412465107606,55.549846464971786,49.278757475375755,40.83372177126283,26.00718310933559,1.047260223863507,-32.13406608767153,-65.82053468308024,-85.31889037210924,-80.77699824441133,-62.02645018285678,-45.716571795209035,-35.51391562755343,-26.371905188412946,-15.751252270041284,-4.806882785511323,4.989906835609748,12.887901880245025,15.76002339308538,11.415652842777018,4.827466260083291,-0.10452952779143132,-5.284071640016732,-8.556528230863831,-7.501891739073013,-7.2876686950758796,-9.34458395932177,-8.967487708559688,-7.001784698179229,-7.10053392929105,-9.671951654567337,-13.625669286771549,-14.605172293210146,-10.381164705296769,-7.909650926090773,-10.47602187263482,-12.742033077738323,-14.749021375110654,-13.972648876016642,-0.10518043739219074,14.669689775098758,6.393703382950012,-10.721903459990425,-11.517341114369547,-11.073735412639827,-26.919477922948428,-44.787297706316195,-54.67822293137283,-67.09809826543965,-86.82227911389026,-101.58012298992446,-108.52382433161588,-120.94527233293859,-112.56600524308027,-23.314531416658596,175.3959787313441,478.4461636055834,720.5317997952862,541.6691333069441,-37.641722482281594,-393.1153559302726,-254.32813620183592,-93.85365894828534,-147.71294632268592,-149.63160075577392,-67.54414003036956,-63.74177878231528,-71.21592412651232,-27.995238342773035,-12.326360072084416,-17.745735083406323,-4.226389571837837,-2.251523851854923,-12.880766561680817,-12.87797437270396,-13.017709919361138,-16.66606020574972,-15.811733385998494,-12.872374206844011,-5.263970634544258,6.917696363034549,17.21445112732907,27.974979037561727,36.96333656539228,38.83768084693502,44.17424480739146,54.6936132791734,53.07645669615023,43.646033502242155,46.73266335992125,52.857759240143565,40.643602881796994,17.894011582706828,-0.83811968576794,-21.407287887239356,-45.072789309867076,-58.31009796458157,-59.49192814028788,-55.29882712009221,-43.30801295827898,-30.75430213027991,-32.53014765386438,-37.17631907364073,-25.67075492121925,-8.678083829723438,-2.032261223918262,-1.083251632382023,0.9035671065485111,2.2227355793004477,0.7665557085456634,0.05845757598269152,5.260113115682255,9.031905129652682,2.1361757159318557,-5.0728600605008936,-6.263799340737627,-13.946210510616453,-24.91880500007763,-23.013167972279636,-14.625697693200479,-12.946391339743265,-13.854597729521867,-11.184826945446552,-6.127856661615386,-3.9924879062098952,-9.874417869816902,-16.056020871154328,-12.989613971063338,-8.528039297381792,-4.805221691127031,8.005558230791511,15.916436273276403,0.4437834311501234,-19.218055554967837,-24.86594835641175,-32.495602556430214,-47.85658351554843,-55.74907706911972,-63.0505337372782,-83.18283963017308,-97.65810339161929,-98.73839238592035,-108.44814580374823,-102.13487586119524,-23.250703650926127,145.2079894996548,418.4812324210951,682.3108027171695,570.8690610587715,17.592893776836533,-385.87275814637184,-283.3412914379229,-101.93868808798393,-140.829837000513,-155.4878774297796,-71.13398787416057,-57.34390292101084,-70.48200978320331,-29.453620114077104,-10.174660914409834,-20.02114956404926,-6.00037709855148,4.123824681583342,-4.999294571088139,-6.038883194564594,-7.865120053637849,-19.84208269536172,-24.363365610186825,-23.06856445836906,-24.204086681033694,-16.264343753551845,1.9688331843198452,16.704260021777735,28.171116806679166,40.2649768778301,44.2655005500979,43.17162468547869,51.82422371779212,59.66208573182133,47.03370983108995,31.080048449269565,33.96566692604513,34.70800286524832,10.762355017963568,-20.317495458385412,-40.47814487199503,-54.89934162676674,-64.13244463311796,-62.30115313867783,-52.674501698674874,-41.36383745121441,-32.07976112392915,-24.85397790571629,-15.934479003428088,-6.857816813299678,-0.6023293469847744,5.002193549148373,8.393190747107163,8.996405398237373,9.79178642566633,4.741134894361277,-5.0515799058431785,-6.013995200449358,-4.757390015873838,-12.720653343974611,-16.310029830259694,-11.110510015767199,-10.177659901289452,-11.22732947323508,-10.555191038478565,-11.70613223289903,-8.783961396129296,-5.672075484165539,-12.091280222827237,-15.642540162389787,-9.574188621855484,-3.2494389315521843,4.958832687023456,8.965925144581263,-2.1803952875427193,-11.669793020704274,-11.87681230497552,-21.092613670119917,-37.76901307265179,-50.32384307728354,-60.61514687858694,-70.26672878110801,-82.34670817539806,-93.20054553589058,-100.66958441934173,-114.51418757672214,-94.39107817673451,17.39840497817893,212.7773841517622,478.07322664885,669.0221482503009,441.2582993479343,-133.49113918216594,-412.78461062437674,-224.2370473921489,-83.80105227619278,-143.1312353743339,-121.3783218696864,-44.25510339206985,-55.95901669127639,-60.70163469530206,-21.698183815975753,-18.6530223021702,-26.071169439464256,-8.959447560599553,-2.570094184472701,-8.176648075350979,-9.566951956267811,-16.280394144827497,-22.43212382835371,-15.262154506742302,-4.799185058660923,-2.364096159961428,-2.028012451738556,6.701874325795349,21.41308184457422,33.11724739259955,42.471767544654554,49.87398399056377,49.639770822477296,47.409353763924756,50.861778770448154,51.81201263019729,46.30037474958111,40.10086822446816,25.52153268618363,-4.14655382542952,-32.91909843779242,-47.3861503372933,-52.24404633061194,-54.11050183720715,-57.425481008525175,-59.472389648819004,-47.40521249511776,-24.733316223660726,-11.615478417177247,-7.178875133965821,2.167254485370627,9.301109193104956,4.46066274682981,-1.666886363638211,0.9911404475394097,5.535291580806238,2.9255695786283287,-3.6500925784109093,-5.468685934885883,-3.211460680318023,-4.803971081751346,-11.062245000758578,-15.113521021458244,-12.362803143920559,-6.159919927149302,-3.426269265042322,-2.7634451906848625,-1.3975932497761647,-8.900210063570903,-21.975196110188637,-15.817692762454865,4.9213000429580696,8.191665891224515,-3.1312001398586453,-8.197148356507512,-15.255497305836306,-31.558587634351333,-45.48747519957127,-55.409798486601375,-67.8469001551961,-84.26050053494698,-98.86145239661663,-104.63105820353087,-111.18902579868369,-108.87660681603509,-47.75519006826398,94.66002042833328,331.3846582153501,619.4559796735153,650.0062788364,189.01302864214887,-322.39557329533545,-343.35226668403845,-126.21142832749594,-111.9374373516158,-157.60562840650846,-84.06004061467775,-45.19355111353535,-68.70154621583322,-43.13729205708965,-10.096530699155924,-15.65428052987901,-13.214314989126223,-3.9908961465968815,-8.80080035940165,-10.231621400510345,-7.90201386371961,-10.076343715867784,-10.307270182503,-12.394771971141477,-16.960220202434193,-11.115928803949497,4.34916067823508,19.808777779823984,34.534174552747444,47.16961002267031,54.34356257628478,57.01816626141173,54.12625130778615,46.611113073280904,43.38496532753679,44.57980594360617,37.83916891110348,20.868424977102183,1.8636433648612605,-18.535097046471456,-41.39076146338341,-59.4219103174107,-67.63403022018844,-66.98201893178587,-56.731406470060755,-40.17960235338032,-27.80555600289919,-21.70139854026737,-13.375971694480295,-1.9396730649658966,5.758737432087798,10.058999568637446,14.691945313871933,16.061281332867377,10.173834667278182,3.907087261501614,7.640782791704925,14.955136977375762,7.731383519584586,-11.14328585211254,-20.921240378635094,-18.661406686837562,-14.187232045884478,-9.728928926013637,-10.688623702003163,-20.470150739348526,-26.90564178181326,-24.113263665135108,-20.165731646654336,-17.971719771405372,-14.860729270534353,-6.431308821356794,5.886230002437511,6.195556647384965,-5.509951469658823,-7.462094103063018,-5.722469461251411,-22.15544122693743,-45.4071947568688,-57.45054952225139,-65.5717869496732,-80.52765472193116,-98.21898048763072,-108.85184655588783,-115.42668137644473,-111.94535108179403,-55.09293052182668,97.92421584087687,367.56744150704736,663.4444245949768,653.2549771866517,160.0520223827181,-333.55808358247737,-327.6119806308718,-113.89949924578056,-112.70274665293626,-159.53417423641866,-85.7465934510899,-50.62488038681128,-76.49420477584323,-53.92166252790595,-23.931442722069992,-27.502557597372594,-20.198238206904417,-7.927284208405755,-13.021428479838821,-16.223234468327668,-13.861170357317036,-16.544102901152822,-17.639051427360293,-13.09685073773933,-8.663432350310392,-3.5816990445140524,7.3270552393913,21.490919396581365,33.677749986126926,45.248828247019446,54.72858318166995,55.532770414304665,50.13640326596973,47.67423256922271,51.245771204788426,54.78505562060123,48.39373526311806,32.23281323387379,14.300478764031118,-6.756986009303229,-31.808912663945996,-52.39028093898227,-67.45238900749071,-76.03912448088948,-68.38805438535854,-50.59763162999046,-38.195509733019364,-27.995423383880187,-15.133758025695272,-6.712610917831654,-2.690274102439485,2.073649229154837,5.786062585453893,5.612188988817941,1.8198862798486246,-0.23848612500318112,4.877405144992653,9.910237223980296,6.76426237195329,0.2634298204137817,-6.984636295446702,-14.342413067668478,-14.069087140855974,-11.200254724952341,-17.330737062495203,-20.450013775740807,-11.322556536961901,-7.851463938400954,-13.68050348120802,-12.761130251981577,-8.50817112672421,-5.412904361342193,5.230835439006075,10.342908475000709,-0.3972834347012366,-4.323284835099429,-3.442777963804355,-24.576427154885184,-51.2558672568571,-58.10075151605925,-62.21090482463565,-78.60995850733954,-96.69738045022333,-108.20728767435642,-117.21501568088212,-120.18590927082437,-81.72942131685275,37.314055012745214,261.2570730855441,567.9692366914597,708.7633813472725,365.59381956970503,-212.10167447938477,-393.4634436205187,-184.3327210583954,-95.06921441891167,-160.618159119873,-121.6740044903778,-51.674118914373196,-62.14572689348059,-55.787775928188914,-22.143620837979277,-23.825179703303423,-23.0543349973062,-2.507184707521164,-3.7756609945089963,-18.65046818178966,-19.9365528127124,-13.995491572387522,-9.250052118710276,-8.052057943865275,-12.014625912813857,-11.449314605632326,0.8913249216453822,15.838014282087215,27.49740078356878,42.80858753991588,56.31641266822974,50.46699077022552,34.05945072305497,33.685040972251926,46.60090545737376,51.9288353391259,46.83412764281631,34.81988627386184,14.444567052214321,-8.53763559643293,-27.593514286339435,-44.40075139220836,-61.665906227168435,-76.30912069038632,-76.48197706786655,-57.13957249146764,-34.99916227826452,-21.584502304378766,-10.928709701449062,-6.346120844550285,-8.22057778921167,-0.7778999546899659,10.891887716575622,11.552352584468613,11.324101061963717,9.347866608949007,-7.817705470784837,-15.867283119467007,1.0868908251390579,6.389609454489918,-11.086668875838189,-19.04198803040732,-17.97324703251507,-22.60832157807806,-17.1825149321325,-5.247120076586501,-12.30385952001761,-24.725233935611065,-19.36718843229313,-8.238833258131043,1.9047775056791671,15.275347107986553,15.084899783903712,-2.6804556972085436,-13.944852299037976,-15.476477347915386,-27.190324858037783,-51.363320054189685,-67.8124302203193,-68.88098241305698,-79.01309700707363,-103.40384504182576,-110.50960477148001,-105.66388162593016,-98.14114222940766,-31.24147487831594,133.13530844036507,391.42015487689054,654.4312561722537,596.8846187826811,72.7016441478863,-386.26354062731684,-322.1611931865972,-105.64747604998723,-120.7478045326923,-151.49086394916856,-70.340063997433,-47.90459284617447,-66.16880734203794,-29.694934294826034,-5.08482781116729,-13.865873771398036,-6.454572913663116,-1.557590750902806,-11.574219729645499,-11.157355110714619,-9.369347219928411,-19.183570646754568,-24.7195776186594,-18.12544843434938,-7.4295994705715955,4.71310675401324,19.694100954858108,28.013146860292842,22.646859715068523,20.94378185369571,35.100398630948604,47.644765966191414,49.04839214924604,50.50920590981028,52.72645983323226,48.031163493525185,35.865564821861085,18.275239455920797,-1.0674552375052002,-21.735665487469724,-46.881743801397576,-66.32147728453106,-67.34117464991512,-58.553229163105726,-50.964745706978576,-40.6599828602702,-27.573030926655637,-18.44296193241179,-12.126060590974795,-3.932153494255047,4.622145894890217,6.658800800597561,-0.2836909680478996,-5.14392926987345,0.8278253749098674,6.065959087651866,0.25344936262189854,-6.448118433294775,-4.968489161878967,-1.5142231494157077,-2.0575658069516933,-3.2725456901337893,-1.5680130956409748,-1.46780277059203,-8.436555654008089,-18.14548309867901,-22.06622591575038,-15.044888344985575,1.0478001383968731,10.354559243370165,1.6380371009302763,-9.17968738404721,-8.907251421557003,-11.427846563309716,-27.78961345119697,-49.05400952511033,-62.093660866400015,-67.63180472937836,-80.19030229028579,-97.3368306965205,-105.67909780986011,-109.72957832020026,-87.6246744220712,5.128775663439683,180.50227895561852,447.3562448638264,671.9951367988509,497.2617620035999,-66.1839434432387,-394.7562663387569,-235.05190728844946,-77.34778321429795,-143.06196548496234,-148.74512993169571,-65.24948273049186,-57.8736937433286,-61.97932642060695,-21.96010773534184,-11.667298089636766,-15.763141382287074,0.4038942536376169,-1.979003289204499,-18.575640900014935,-19.337995085520514,-19.312339117668735,-24.82481338019023,-22.728205101020226,-15.915198037082792,-8.905650328228896,-0.4578589657883077,9.718069741796278,23.512874232217868,37.33422316220463,46.4847981823918,52.682402425280046,52.76825254124093,46.241916495732006,44.93931148189129,49.51567310725434,47.33367034726694,37.026024616633556,22.042337174913943,0.0004982832816784466,-25.034668412307262,-45.22068701702752,-58.89407829571785,-64.0356181648403,-58.00696558763784,-45.434251529787986,-34.21343852732051,-26.06242075895934,-17.096988945011624,-7.850916490706291,-3.0740880351840083,-0.31762175579226337,4.473426463676784,6.481299790718801,3.7917417999225655,2.379513015943594,2.9353416066796747,1.3456944117893102,-2.5490908606871585,-5.5145558838669295,-4.973605660268364,-2.9650430959715646,-1.8866314286701424,0.43711333456704615,1.4037670162346902,-3.9818427082196592,-9.742692539841679,-11.158987788613373,-14.132834354276286,-16.899870513801844,-9.237962380517175,5.330824812883421,9.556972705927212,0.04838411434246659,-4.964145645013131,-0.8147258854031012,-6.884429970579774,-26.04136734530082,-42.88403630659377,-58.50900779805461,-80.41554961200309,-99.93364010366828,-106.71296908206554,-112.8815465524558,-130.6688923664082,-117.20598731226211,-11.017898953292473,204.60964151430636,510.7078253984947,715.9203446693805,473.87766743847675,-110.03216566575266,-395.9806575538368,-219.93175345445212,-86.25220922208459,-150.44722100955366,-138.24061064477436,-64.16056144706874,-69.4401661493537,-67.49749188961168,-24.481284210773055,-17.968086753893,-22.412014995559943,-6.569983334350587,-6.228970890910137,-13.878357355709063,-9.502178142094717,-10.77110696822676,-17.201567599236817,-15.919708370702278,-13.021267620172786,-9.512309171812948,-0.1649465365849334,10.786392244757968,21.276118428842565,33.09300376822274,43.04882758021199,49.87138121333304,55.11089852049053,55.84573911350772,52.53131545816596,51.820948145583024,51.81424260848778,43.93802284492071,26.98728140214323,2.9067073653168753,-24.846752699998376,-45.900004920478175,-56.537418223295376,-62.34641205185792,-60.48020318079615,-49.42682358743927,-40.3632387354194,-34.52170438874773,-22.875571870561455,-9.573746976454766,-2.4954040327640215,0.11897815715519044,-0.0010642516926928636,-1.1369796854166427,0.6367743484651172,3.522883658909292,2.8982389042138887,-1.1480477014409907,-3.700220736521695,-0.6212312773575128,3.796452289002289,4.811205912273022,4.857845799433335,0.5169194115844107,-9.21237072836455,-8.70317873547366,2.614098022020306,4.485655120632403,-2.7252662570548516,-10.258443387168338,-22.87829127428078,-25.433686483015638,-3.009872719301626,11.362567216029849,-5.624714333582215,-23.052514281051817,-23.00130041670738,-25.65343900777732,-41.04665652539731,-59.884917171528386,-72.5286166477226,-82.7066056510657,-101.60383883629471,-118.21168072175283,-121.31615040920443,-119.87504987875212,-84.29206830050006,44.32657152929207,294.87261486165914,617.1901232625842,734.4048251517972,349.22330844291366,-233.94418069796353,-387.3651036493743,-175.03023046226392,-107.2422008738207,-173.26021567841684,-121.46603091646811,-52.56620527611101,-66.93651344024225,-59.893974065832644,-26.462969417991754,-22.21946885474474,-15.634477943259169,-1.0339762468765912,-3.735735326852698,-9.74296573848363,-13.871100576401584,-20.551254993021765,-17.69168918971042,-12.953045827845852,-18.819604456608577,-18.455707393095743,-3.2030842430233886,11.20538106809233,20.77919312555298,32.79149923803693,43.01043183945435,48.04850681965914,53.56514057759314,57.46777590155021,55.242006356764065,51.629532950116655,46.19796299107206,33.90515843844595,17.28101543942416,-3.757049715830397,-27.498243923418766,-42.83830080864,-53.5448110042268,-67.31456107926226,-65.65382682763673,-43.952338349854244,-30.233017612960293,-26.578113674356263,-13.803264029901438,-1.6935669948741428,1.7286681322569848,10.053064567532193,12.142614936158855,-9.489467861401486,-29.087097857990646,-22.86970977605724,-12.149774671270272,-13.565842596333006,-13.781548326498406,-10.425481833960358,-11.995463141419684,-8.744721272974118,1.4478080046929058,-0.33958614599803383,-8.542015605077317,-3.6006411940360117,-1.4520425840944817,-13.394923919378364,-15.748578671644047,-8.780559166985828,-8.053897820114226,1.3945249772982926,13.76622561736795,1.102617114177587,-15.960342036679517,-14.955449614275441,-21.740646005510655,-42.5276766827386,-54.88658883830943,-59.69113365382747,-69.35297955872731,-86.49640909000573,-100.64042813247877,-104.99423170075136,-113.7297683745108,-101.01601700012685,-3.1554164671052263,193.24567536882108,472.83572442587024,690.4597142774286,499.6492357850159,-77.88136284845653,-413.5514430126597,-254.55663800985388,-93.58941791916938,-150.67888205502953,-144.64614649517011,-55.02844170622449,-51.7477178523943,-64.05618506626506,-24.7666789166045,-9.291595604526773,-15.475029743365504,-3.2770842517316936,1.6313030104904556,-7.835409657545856,-10.252673337946053,-8.396463014180128,-12.805837812606018,-22.401455985807377,-24.405887789721437,-11.101324615191384,1.7838289439572546,4.952686469978846,12.753099968498269,27.318114348559906,36.00316366011383,40.00983347711462,44.76268264860646,45.917269095167285,43.594424753266296,43.98548917345451,45.32240629265164,41.06174237316444,28.571616220963556,6.098668958594768,-21.468580504895275,-38.04988631209642,-43.269618879935756,-57.58947770675445,-73.65383482399244,-60.56557801810892,-31.995649970145173,-25.914708484054692,-30.341978004353713,-19.052393743450576,-8.613226811384727,-9.67843348172267,-2.7963698357318094,7.980268619618382,3.8940678538647724,-3.33256196924086,-0.9949409653515442,-0.32058179789957286,-3.307488304770853,-2.011013266429952,-2.470055874292516,-7.591808840137116,-7.778202471304574,-5.304173917444995,-10.77669690824423,-18.85110255891128,-18.867827864149827,-13.421295556817558,-4.473646041639679,10.659894979125468,18.953526426489407,7.438215478389415,-8.60828800021831,-14.240160555528755,-20.7547501484216,-37.81298161764793,-56.51607615784414,-65.40559295393959,-69.71560730790706,-84.86136740919974,-101.02086051503267,-103.84581007649943,-108.20935416643364,-90.23132183191098,9.898049902171735,203.13157166982745,478.4143142477898,685.8186205273428,476.0263649769449,-104.55960284159086,-416.3218100051993,-240.93324721451617,-86.31606738993779,-144.4519762312464,-133.65702819789652,-56.48140944085431,-65.12007487337085,-67.75991345488377,-21.312623780370828,-14.137763975001018,-22.723680866344203,-6.647729697915127,-5.594326614468871,-15.118409796434257,-8.187644429991966,-5.689788822367412,-15.402376300447148,-17.825372440008785,-9.962623057745382,0.9445910017040939,10.974623158488047,19.893308964892114,31.635757050523377,39.93604315906288,34.20789353044077,27.431269037812427,37.5168910931574,51.40337837225956,50.684542680332456,44.28852178914982,42.47669436040383,36.300576326629766,19.55896952433049,-2.328502871707305,-24.62526497328837,-44.60364768683221,-59.395405926831394,-66.26535393622171,-61.450592404696756,-47.27324483211301,-33.36422406885318,-22.83050089974852,-13.529648613513722,-8.306581517933818,-5.609183206785458,1.1944179387788836,7.1138283598682825,4.111869131178114,-1.5264609534791411,-1.834958112864701,0.3379523605720234,0.14973540335784818,-3.0024168787621743,-6.496606409078083,-7.346667217169772,-5.811820795985227,-3.054136730010784,-1.358736571650505,-5.088667807654799,-10.096091435880531,-7.7881401206581735,-1.131894071529027,7.380879880262961,18.322967344140444,15.544705226447032,-4.652349825177787,-12.871351143341569,-5.6706772423133,-14.604391677856752,-41.55848384427408,-64.04730193419576,-76.20281402933938,-84.71149654070572,-97.37592025565745,-109.2078443151605,-113.8653798333693,-121.0508217662103,-102.02535522223182,4.132154720523786,218.28969316194096,520.1899794864512,716.8182091924615,462.12932575790074,-126.00507847281962,-399.446752588036,-214.18142622846418,-86.40017743330169,-153.47409950007724,-136.00924952019096,-59.863673341424175,-64.10044447410745,-59.96783301517487,-18.461148932287518,-14.413288744187888,-21.060738901326566,-8.955692388011451,-9.108050887463438,-13.249860517016337,-5.020730678583963,-2.9161119652166736,-10.861351508578345,-15.322341938110892,-12.66476723990132,-4.228851400436062,8.503214672357476,18.364928094149747,18.7598348394676,19.624159697016836,33.48742824588226,48.07143239957672,49.56791533161343,47.683433605984305,48.3634551663621,46.00268331571333,43.16445788407527,39.2434456855806,24.074200127081184,-2.8448205475169246,-32.003452409721405,-54.32055392475226,-62.8415427571613,-58.23590872566241,-49.047281278865,-40.7531813890798,-31.65255188969738,-20.04443430084457,-9.024587946716096,-0.8389112356252859,4.663910639312775,3.7552523203816772,-2.9285640473736443,-5.0438259879874465,-2.0825993031164245,-3.6844480874311074,-7.7006759174385415,-8.358766258316868,-9.47382981089283,-11.058053807530609,-9.02306068116999,-6.01651743665181,-4.427954875831368,-3.549767978090971,-5.524463297782754,-10.351109028596504,-11.895584750152885,-7.251891598696574,-3.533472048949811,-3.640560869321776,2.631372573273893,12.11357925072491,6.742890546598666,-5.352196820181087,-6.6973446417956595,-13.113542629769945,-36.76246891561331,-57.54687074056022,-65.00645396640871,-73.2593499635783,-92.35989419314022,-111.63819097665011,-119.14357436781626,-123.22233481826976,-108.83650555121866,-18.572719199843505,188.387188056279,501.8002568177426,738.9549185407337,546.4958426337546,-35.57014908144535,-386.6305972389538,-253.38354471334517,-106.06331420218764,-165.2296596429706,-163.80875927704375,-78.49123771081922,-71.80131358745366,-76.02723269111549,-33.63266797787807,-21.186987155762253,-25.591269463959602,-7.354034043853719,-2.6359918150505095,-12.441701502106799,-10.334609610221882,-10.402927922409797,-16.616362280938237,-13.173085710104617,-7.364993388039272,-7.8621318757262255,-2.9820052022025334,11.934193997662886,26.89600931598789,39.64404128083311,53.478240491980735,60.420699859383234,54.606021413672906,47.12587985541408,46.37785039566967,45.861355314040836,40.6010215649721,31.775656736057226,17.055487860787288,-4.679120392992539,-27.50344809361214,-47.39939324184168,-63.56900255773544,-69.37683246813943,-60.08971851618185,-44.33275003211271,-31.19753315513629,-19.564697263954066,-9.303016823134566,-4.1852205879098605,-3.565694851621725,-3.9297854960159455,-2.830189375248022,-1.114420026661831,-2.6470917219860475,-4.774597604874636,-1.6557834561488622,1.6278079878292608,-0.4869003688913853,-3.995199668098305,-7.375262085194269,-9.087552477241427,-4.753937121566512,-1.1046767161311983,-4.5142938110938395,-8.203821259906462,-10.176660327937379,-11.566751970899178,-7.545649478817866,-1.5977683670762612,4.014924331116482,14.343220095814726,16.01179278632639,-0.7413684962011189,-12.510521296935849,-8.963180657256272,-14.13512563843894,-40.2421046794457,-71.40083876823918,-88.9537019241507,-95.48550517646639,-104.56616726403439,-113.02859690872148,-121.42272044998596,-127.57013302229855,-78.46115040220388,74.3526683054759,333.14514024942116,632.8415801545435,686.474374992855,245.02496308530243,-301.5682065014368,-368.67990625202214,-141.50372554198555,-105.51793469389311,-161.57673497278222,-93.7284894286452,-47.282563247256206,-75.05278688460743,-54.47544616747862,-18.803191091688337,-27.223009576995665,-26.520116401126025,-10.087153865876923,-10.737282464206984,-13.78356492819691,-11.026095850278885,-13.758867642294451,-18.821543358465366,-20.453470970895477,-14.295238337694437,-0.7182951585211765,8.271144413140433,12.08272966912337,22.4982397465318,36.84492004153512,44.44778744579344,44.017038410650855,40.86510243600362,43.81617813098218,54.36866553647323,56.93721937936715,43.03452264939497,26.533764263878755,13.082501264382612,-9.88797232079888,-39.38985429786073,-54.79332961778918,-52.57418366453981,-47.94416350641612,-47.648350597959656,-45.383936693534025,-36.07160196107033,-21.671381094246485,-8.812314912451011,-4.2034162416533825,-6.471035181664369,-5.194884234752124,3.424425511808682,8.962549235907757,4.486173538072329,-4.094620045038322,-10.90232792316333,-13.570234859338477,-8.801952304191627,0.5256269834103247,2.7656347041491003,-7.575249292497187,-17.35637078122373,-12.925477500742591,-4.6386364479696685,-3.451132629592747,