ECG,-4.816097145280736,-2.109911530091848,7.002291415370915,12.049855881951762,18.20476053590354,19.948737084825616,-5.399069857513487,-30.803526773226224,-20.39944620245902,-6.292743795510535,-15.24435454871898,-21.4390536902521,-20.692565066170086,-29.87461521267258,-34.2439175361231,-20.6561540526946,-5.932469396105542,-2.9177666810225844,-6.046239808188819,-7.764479630199077,-10.317438452664906,-15.213278377575211,-9.555723980167594,3.979105087497887,-0.15288621820103998,-11.54899012473966,-0.9503573812104253,12.742419685059605,11.89895853301001,14.535213192726875,12.281563641400663,-1.7931450844377945,-2.1075852323234407,-6.61044848209003,-36.195881217753815,-47.29705205188821,-41.3462490016758,-59.86808024976355,-68.91339656021826,-53.857112470433826,-58.87712157894002,-67.64846948157168,-50.97584381380578,39.68177849346874,287.76824792933326,476.10762149873324,239.09143720641885,-177.3199815948384,-231.50793795136715,-57.01211406436847,-57.18924593060217,-116.04915266941869,-52.768295362722455,-12.909492310616727,-36.905824831812545,-15.466592550590502,8.997147228789508,-18.138318628576442,-26.27968431709425,4.453947365153766,16.447262494087802,4.511412488022103,-1.1329786842600669,-0.8151734338274519,-0.43499861982351185,2.3512062669504816,-1.4246155765233004,-9.241068279677544,-4.870927621323738,1.2925546866723936,-1.755674959576222,3.8975524663651435,12.447486014123486,0.7132640408135345,-10.44342999648792,0.3376475149415392,10.171203067039867,10.605366088431067,18.318162313887516,23.805296235324484,10.400236078777597,-9.290412298246345,-19.018435973274467,-19.93666004053108,-15.51828740639871,-7.075244075117549,-4.335486007880306,-16.770072463437593,-33.00033920090485,-34.39776433361792,-23.89698960740966,-11.461322577625602,1.7198311253772598,3.3049466041074034,-13.704048715912325,-21.701008861514644,-4.848857878282859,9.044261311110642,4.671573126036446,0.9590142709732437,3.2541270358584438,-2.1130462676035418,-10.691777591274167,-6.316141735453245,3.529683294864391,0.17118900819144223,-6.493699215095422,2.1267929418259595,11.34816459903904,1.750253660946111,-13.209900674015998,-14.67430927212607,-7.195013859629899,-6.135718488345766,-12.850708003949782,-10.634363490471694,0.7300822074690405,-1.729643023892308,-10.959825139533695,-0.6936152382616445,8.814560123565574,-8.874553620073511,-22.936828078700078,-8.194614811800488,6.654010335117035,4.447220899147476,6.619251171865408,19.957671111332683,25.521027912660525,14.567332012122725,-4.96735449151473,-23.510786557268894,-37.68047049826327,-51.779678276530916,-61.6685021681359,-55.6574046128395,-50.23812783853063,-62.420264312461796,-73.35811871132421,-93.02064367028409,-86.11783364593168,129.7654829540759,493.91979002598856,512.1880069761518,64.46564706763954,-258.96267040882907,-172.50295918344708,-57.957081227138715,-89.87071659784911,-80.58275713046012,-36.21876304876396,-49.055766432825756,-50.07411743818908,-17.48780145734461,-5.173568138016286,0.5300201848217689,13.534737472090715,12.633252972309029,-1.4372250815426177,-18.492899598943616,-21.22840763561201,1.6403336842088994,15.513097111330705,-2.707305706373827,-21.466770168962366,-24.143746058448464,-22.866941614760137,-13.30240330824001,3.0727494251596585,6.205871190878689,-5.505597915557056,-17.467108915382497,-17.61003288058851,0.454711744566473,20.34773684912984,18.322037505564825,1.7808244322798163,-10.200567602899277,-11.920241714253297,-0.9625939556875274,9.609606967794775,-0.42509942087669295,-15.649900381776007,-11.477365884863227,-2.4696498024837528,-7.156438941183284,-13.08745213619091,-9.063976826376326,-4.804391406435656,-6.747060680927513,-6.725888265266127,-0.8308416383739008,3.6898992483813613,4.406847993207534,3.3762527828153583,-3.008356020661413,-11.992971643547413,-12.632064678032181,-5.257741276926799,4.068246351494536,15.368478998880626,19.62442047777509,6.578664383449412,-8.314369673419339,-10.97849190603704,-16.14348074398174,-23.742381706868503,-12.96970919064998,-0.9378078149185782,-12.866957158554094,-20.767538061939742,-6.548290451475143,-2.5937279139096123,-13.707356995642174,-13.08738293195699,-5.792288723767548,-2.1307901455791303,3.4057073521648995,-0.15882218869030673,-9.798180316308828,-0.1923505206178442,11.940439740130381,2.0066201051580137,-0.5269564923202106,15.929114786515079,19.230454909091932,11.515814832427564,5.006164892883351,-18.24964080405244,-40.7744789313397,-31.01918196453169,-22.588427056316092,-42.75703809752119,-58.81092395777599,-70.36586407289488,-97.50556970377805,-97.57980345050815,-72.37778329596628,-75.38897010366638,30.049099223411062,364.3036230699017,557.4854852094663,243.57235830940536,-183.95963525650876,-218.9671115050027,-74.39606732829954,-79.63456038834343,-110.45409327702254,-63.971120464794176,-42.78143235309486,-41.77374843545572,-15.47797817866129,-5.225931745503409,-13.079583148474036,-13.952005036374768,-19.894001302902016,-21.305300948872514,-2.369776669761091,15.246275713487627,14.028317049730735,-2.2862547688233192,-20.601259733060218,-21.370559572495424,-6.6518599089837345,2.593925966813652,5.4515170080515425,10.27913258159144,15.299344961236045,20.754968654332654,16.200316546092747,-12.083715108288583,-36.34998101224275,-24.996161848664464,-4.517155236991357,-4.648745660201094,-7.0050841769185315,2.724278309094183,8.786052046877051,2.3836508921741277,-5.807910060404389,-5.845739256091354,-5.509524241006826,-14.033770031910452,-17.616185945748686,-9.354508007505984,-8.071709300316519,-12.99786724110005,-8.089442641926642,-3.067521253072135,-2.3926086507108373,3.532246736232601,-0.6046258556153266,-14.937577512699459,-6.666388170988909,12.58090875847428,10.599877249070673,8.047683863761332,11.923936891608353,-6.863996183390329,-24.783575033271685,-10.741948405655647,2.5776970280395943,0.40040930374217076,-2.3639663178295223,-21.164700675997103,-40.68867220641688,-20.952078647140418,3.4276896836274737,-5.004525997006835,-11.58858083232612,-3.874796819601464,-2.8103605484174317,0.2577999726246105,5.7563336165530465,-0.18457356042471496,-7.539272536060155,-12.953761747570285,-20.90188864103247,-18.132722442312037,-7.531501442512452,-6.000657586882486,-5.946532369321403,3.1947791488718886,11.65488793155793,7.014034320079276,-9.087101006447469,-21.62822218032803,-31.31710589445535,-55.81358030360248,-75.60138091861333,-59.49013260533762,-38.00935422190268,-43.74109168358937,-60.17045751620008,-68.52530853744204,24.338550709014385,316.3116486983538,542.7751659176445,309.9357135029855,-146.8481710724454,-266.8172531175783,-111.12623189906688,-72.27198800983247,-116.64054528266837,-83.10648373214153,-49.67208609315608,-45.544447286500876,-16.84534638317721,-5.087621726731232,-15.670546433778014,3.545351810829237,19.77232187578728,-1.2653261502581685,-18.20593659162563,-10.297677479347215,1.1454513857827209,-0.150404740134082,-15.240276342547256,-23.761624296771526,-11.509818418090676,1.6939133534034898,3.751829499535508,5.937284926039846,5.517220638424945,-1.3768929975551716,1.051674598261822,12.55450800883424,13.7702299989194,6.007948530663687,1.9969586859620818,2.693287956067851,11.813749925163858,26.88641307292012,22.881774899689052,-3.984530534051718,-20.21328782363213,-18.75005596617403,-22.178103876790775,-21.46658303731827,-6.852597065222714,-10.666456580127882,-34.904777203932895,-35.919995934000966,-16.16495940158519,-6.503700925116773,2.2730341110127323,9.947649790010328,-5.486781902099505,-21.461371628835916,-11.873267876493463,-0.16488753943759882,2.2472681855907286,8.099042522683874,6.9607624165155855,-6.0955360335032545,-11.191033962308857,-2.189302016122687,10.098751246881616,11.74769845336611,-1.8814744111795978,-10.128976611147504,-6.839876132579416,-14.999406605189712,-23.17763563577331,-9.389941602001546,-2.6286013740619243,-15.364043851902405,-14.466559900197574,0.337482730573301,7.418975666575472,7.980674124672811,-2.351060140990649,-20.889263358903086,-19.535581219293654,0.8379286660008969,10.548792531712536,7.44090049370587,4.842130915328799,-1.6843453403824356,-16.94887635461387,-30.396238775220414,-38.66644172887455,-52.720784505253235,-65.58489089707652,-62.762864225887306,-58.51836958975635,-65.74942598611727,-82.17118740180376,-68.81203838945729,110.36377467892636,440.02867122596524,515.4578222017334,134.97839148562815,-215.57700305643107,-167.09244441470236,-41.4518931065487,-87.04802988189363,-108.0592165806946,-48.10161015519237,-42.640560140358446,-55.32273358389811,-22.296254640285746,-2.3068853745461446,-9.85317316633919,-9.359299273822018,-6.564839764115844,-10.319324810164915,-15.878712054688407,-18.675474932788234,-10.579541405499565,-3.1466466714413563,-8.908082895443904,-8.132580462090921,5.938098021976007,13.207244298642905,14.24884191935815,15.589537343837279,3.3100009165292636,-21.451142785743937,-32.733160534981934,-18.12193852606853,2.930524659439551,5.3694149830434394,-0.89347775221432,7.409972326264205,15.043004622964473,7.771180602426434,6.62251682822505,2.6264237727610187,-24.239922418914468,-31.950354169037233,-7.341688724290027,-13.226669691867254,-42.27845156533777,-27.28214967970899,1.3812004242238967,-10.302753042342522,-20.787952346685316,-6.109215628779875,-6.068464515062443,-9.24225023668937,16.001456691312047,31.10049101026189,6.828870041045638,-16.08757198205733,-8.622182421951928,6.91949669811578,4.471485168124268,-13.507966741002935,-20.452201811264487,-4.2982706914854845,4.974681422354083,-12.575793712447314,-25.102934281190436,-11.296470790785783,1.0035002455474284,-3.0590529115663934,-4.503631540154141,-0.9434248595279513,-2.502146664974447,-2.3925353083717296,-0.49956273199497225,-6.00491579040091,-9.786494529191614,-5.497862224360801,-3.751888855718164,-2.0471615893537702,5.86941895190428,9.19158643796101,8.774345789907116,18.919144261725748,33.04559085640902,31.842496209554056,7.538874571259356,-31.413421876386415,-58.32373648922693,-54.9457800517601,-43.009939122635956,-46.13537713984132,-51.52318374746969,-55.46316423806244,-72.45438124625268,-80.41374952975083,-71.2719020684104,-61.1219035254599,62.96919998620936,361.15639986826676,488.00307844972434,169.7427030393325,-189.01390421706367,-176.3030104554008,-51.64833919467834,-77.74543759929344,-88.5048311473585,-37.780455676329076,-52.906695264139216,-69.78739848913065,-30.275644002028397,-23.8671875084044,-43.36915246697369,-23.94549683679749,-2.223242540687494,-5.974472669158757,-2.984893985105934,9.208718310916009,10.243678359884587,-0.48977982883199545,-11.192989126168023,-12.1393661429016,-9.34068962671294,-12.45848659179585,-12.112936456885611,-2.8698847739125366,0.7346264330320071,-3.826008666825002,-3.1104431578097262,0.7384403590057094,-1.63014071187256,-1.2423988596519013,9.631045321882576,15.298792419817707,4.22319317960639,-5.5499039182375745,1.3824065201941247,7.425605490661426,-2.474295971676151,-15.551119460176565,-25.308107296589085,-31.33142994174308,-19.359284763217843,-1.2722366133027787,-8.25050876849238,-24.857161554720026,-21.177548539905914,-5.380246171774834,10.598207000809422,16.93542776216068,0.9913382178748797,-15.262462466582297,-11.888260240937466,-11.114985947497305,-16.002363686760045,-7.189784965809258,1.9854415664177267,-0.95580836146463,-3.908513308381819,-7.296068923149765,-10.551398743242551,-1.5128877507844543,6.209631797680871,-5.821797198871202,-18.100389272978056,-10.45289653844118,3.0111469176143633,9.897297644241712,15.88939538650014,13.687447403277433,-6.8321272717552155,-22.213129379709844,-8.930367579259737,7.025412297214125,-6.449254370146857,-29.522133019820018,-31.025021527479474,-21.576857270275152,-17.421943723031433,-5.791639428735349,11.798213918522872,6.450552496442487,-19.49438199512376,-32.742014989045025,-31.239928053635335,-38.53786324188566,-53.24655149948093,-53.433603427082986,-43.821517730736694,-54.927758630840565,-71.83732830521166,-58.23511348354873,-46.125252375219475,7.548068103006457,246.92194741324218,478.17209744262385,281.421966483344,-154.70770915206703,-251.64624577936837,-71.86532992954875,-36.52158682006517,-87.26943549871937,-45.822187134935646,-28.855702941110465,-57.81738467776955,-26.822999459469113,2.6675771180383876,-24.975520408824345,-32.10838193830022,-6.444319328463388,1.7101428528145242,0.6157157646523856,3.492111426199209,-6.854468576826779,-19.900592113928255,-6.829434556242514,14.86483423655751,3.6214511968236422,-22.638875392848274,-20.540169960071633,-7.875918181198122,-7.044839000916271,1.064803496514882,3.2050029553615573,-16.913559866403602,-15.452802384580597,12.254329591780266,10.857785531640385,-8.032802469342336,1.7670836243681576,14.267185561445377,1.7049826396142436,-4.227089428989856,5.021842498502419,-2.833346440435591,-23.771303742100578,-24.704537999925122,-9.138593112658388,-7.689379982533374,-24.692100847042816,-32.50551545721641,-16.604453400245188,-2.3913404527331714,-7.806787364291424,-6.585320351793598,9.244438373681144,5.812968903793134,-13.4885226335674,-13.689707134453393,-3.0775536186149584,-1.731760353335007,-0.5864682735604951,-1.2785449512976648,-14.786785995676986,-29.406642618880213,-29.85993800270184,-16.231130440332084,-1.3846246478903197,-1.2686953291666896,-11.93124539300025,-18.276950877799948,-20.750470689732445,-18.938675822835545,-6.530360118577846,2.216843697514932,-4.172927682327364,-4.279344541566422,9.935290005380383,7.465378406080932,-16.90689366238692,-23.858407650858197,-5.534072426832296,4.306640910759796,1.1077991308608919,4.9764752466463715,7.158086837596219,-9.282162776992536,-25.809590767790894,-18.61305413358942,-11.944503365912936,-37.30816103201193,-64.66925875008232,-64.81055460402405,-64.07124405428146,-72.4121449794529,-77.22952617309008,-25.342795140281034,205.4183218998037,482.5340216053381,372.0988028400592,-83.41945656139517,-281.999171105041,-116.63872946033503,-31.84850476532762,-85.59250618879753,-58.13478394477356,-18.914856522717166,-46.450852390491846,-36.89916064859951,2.1074038274087634,1.4756504586611854,1.6263573978784827,21.927509447836016,21.612941243074374,0.9966596953445119,-16.779716608415917,-23.188407137955586,-12.303945409642441,4.011334336664369,-1.3809690859527137,-23.043169205813335,-23.694150564281962,-2.31166615192393,3.5531743303085577,-7.977971524343703,-13.137723378111957,-16.98559326516782,-21.213288882858393,-11.419693566041266,1.0725794888882412,2.6771583330234208,1.22751729124154,-2.777765202039717,-6.072285034200087,0.45161638300599627,2.0804989818720134,-7.546069998979913,-8.313572313315113,-5.634778039859864,-15.363212260379777,-18.640256788615115,-9.46046892163802,-13.644153012456112,-26.218248437195623,-21.599446806139284,-9.7457173501755,-7.0073235237099,-3.734966072862285,2.143495079692258,3.567309800407161,7.470830607620087,11.328081761741004,3.841381281430682,-1.0300216228956733,7.773495290880362,10.121740996418726,-0.9917091849155977,-7.431052758718551,-7.239694495929324,-10.588284988374939,-13.69353208072226,-10.787599097634153,-8.076983689112023,-11.522426917650487,-13.79881475708838,-7.000071520789783,-0.10202715459870504,0.13876047508954859,3.616344885140202,8.123305533375516,0.36148894974639845,-10.629567772746555,-12.078462386845613,-11.45262296560796,-9.109718375801094,2.208941790389879,9.39662361418368,2.847843373641294,1.2783070190193238,12.650074703719955,12.726868323997856,-9.969318157232681,-30.591550406465135,-29.514415003384066,-24.91829888311642,-37.84300480548883,-50.431279136626515,-50.90069295084812,-69.64247034307236,-99.63425796991532,-102.53452892823731,-82.85882438390152,47.610536229077994,385.0493582148647,598.7829581537903,289.91210412575583,-182.31677578426036,-244.22981985787746,-86.89148581412138,-88.32137316797383,-106.88730112679974,-35.957784179318615,-41.255045313980794,-88.81266090985659,-54.67401518650479,-12.9061606312302,-10.43135008127934,2.708730863258424,3.8876535920501425,-21.36461583251015,-21.619059359232438,-3.7288898479261547,-6.269930690031366,-9.374181757358512,2.6151525451835287,5.51351218231142,-2.051791689807354,-0.8656568589978377,4.082965279220003,0.8561624358290469,-4.094888511797469,-5.096674175852943,-9.67469399463005,-17.25698354558508,-13.255972656893338,0.6436068666945314,3.118287849921634,-7.227767039606471,-8.743008230986307,2.9547348629636874,8.951892052154463,1.1624581399297007,-6.612903641652171,-7.90799355176326,-11.748941189620165,-11.67379940553123,2.6618672258581677,9.416588071298722,-6.990314569023223,-21.64898474693991,-18.61875370358564,-10.845840270900538,-5.913110916391162,-2.751377553564671,2.4434321512156965,12.340243096688004,12.048943715368955,-3.923822254845983,-8.089314207936887,5.388918385915317,5.590107233668826,-9.30078673568461,-14.004012709649945,-10.147760238495724,-10.766695725299993,-13.433886202910141,-16.26847640319749,-17.33049895458598,-10.628873316037087,-1.560621692425249,2.406434070851602,4.588597763583888,7.752110807548366,13.127107609245206,16.9288578813796,5.097512763174306,-16.411066979872377,-21.405749699246684,-12.429276469303163,-6.230727648554306,4.731709704593833,14.043411171780209,-2.9673547449729654,-28.894246864313093,-30.958266849816663,-20.032252936377873,-12.505519376971172,-1.2628710450701899,10.65886060303438,13.736468195410806,9.105294061407402,-4.905993322168246,-22.135897568904973,-26.420795894234264,-30.225177527938282,-52.50079082304712,-65.37984243610099,-54.700340516472,-62.87243367125771,-86.35102577582157,-87.18072237270614,-78.74111218600234,28.471390268036032,350.25720533460566,578.8509274688491,309.30097887001756,-145.92806662864746,-226.4542287786126,-71.94667593481905,-61.38070668021097,-110.25820952182222,-73.18658875879171,-47.88954009669156,-63.016266790364504,-50.628412890978154,-22.28318572343931,-10.24705651758837,-6.547802635844199,2.1647039099625687,11.079312033027325,5.7997859384465915,0.7350955764748477,7.880949153884014,-3.1092382901479567,-26.344752478451362,-21.569314485671903,-10.839166393076239,-18.892222545427483,-13.762464686399516,2.7624650375950885,0.6648949679981904,-5.307397127438694,-4.129660103980829,-6.322175846403123,1.2883329390622413,15.897767751357735,12.342376810884108,5.995873744692156,11.078219344431421,0.7149583204743077,-17.561133535397836,-8.698723483826544,10.085331540734328,10.207066747318331,3.29232042745173,-3.1280546956487623,-14.13355684365721,-18.904368357428424,-9.637373060143027,2.563468761403959,1.4863432036338988,-15.914118306814956,-28.316970234729567,-21.0844411796244,-12.51540751110463,-10.312514816186594,0.8041684420262403,7.585560993940643,-10.487832986080246,-25.53273846762493,-9.729071910618478,12.720537048742687,17.82305143378487,13.241705104946897,0.5243504398820455,-18.372701913487745,-20.352241149228036,-5.2614540218875,-1.6924163896903526,-8.564805579851468,-7.0333273634077775,-3.5448220755628954,-2.98235557156379,0.18179687061289318,-2.2451780626086144,-7.22105006583593,-1.0949098046569183,1.4496871990326223,-8.833078797148884,-8.765959344946642,3.954274406508852,8.397016686930334,5.6161734458115085,3.4434217655016877,-0.022967089260605533,-0.48566539250767704,2.3924142453588804,0.26187294499990266,-6.91004263677552,-16.23384621196348,-25.987776364218817,-27.76563321984736,-17.76118324600239,-3.7149782852138458,5.190584488200287,4.903707197386977,-1.5606700382159069,-13.466520046342179,-31.71201786436969,-42.20009342554725,-39.40571311433408,-41.54822219540222,-49.83553866353152,-54.36477133767512,-55.94481006329858,-51.23070244431289,-53.413252922441046,-10.739044117049517,222.61189650270182,501.4438129580347,382.9252742529267,-65.0211021389813,-258.5592744275999,-124.31707200599462,-64.49623441066889,-105.8779412824536,-74.31578354483854,-46.50492842544698,-61.05628588779312,-31.614703301461155,2.590568929564405,-9.081840844555806,-16.97486559265263,-10.44660713619047,-10.222549635343793,-0.3600870266255427,18.011904109449414,17.71472155849574,-6.293364506325652,-26.69678062658577,-19.093909324618107,-2.1718937314880407,-1.3302104456578174,-3.2670377885150366,-0.07266860533489883,-3.8804370766187937,-8.386409366015968,-8.192773871157113,-8.684037469396348,-2.800297906192636,1.8916328805458065,-10.177517965115891,-17.41907774978933,-6.4878812978208735,-1.5751883298130807,-3.5960265585019364,-1.1185061145104633,-8.027260993273336,-15.728436780292242,-4.886601686891753,0.46675654587183324,-8.079093496572586,-2.1114666983541923,1.5814281184941734,-24.75572313712156,-42.26633485883852,-24.581963620878067,-11.018477495082646,-16.994062113154015,-14.119614982734774,-0.17938076928564328,4.575096724614468,-2.843858046520573,-10.29846943186973,-5.288041260043482,6.000370755725427,3.272906191922104,-9.069441728377065,-10.896619567205619,-6.318752300658851,-6.940937350905019,-9.513870362138675,-11.010841214484715,-9.546615797122154,-3.9899763156787103,-3.199678292744725,-7.74651128432342,-5.684975377335148,-0.6291035567791301,-2.3637837537969766,-3.363354804052184,-1.0416077872877096,-5.366091842190784,-9.240304274923332,-0.7770988581955081,4.629001919153513,-7.732823898244508,-21.3215389026687,-20.404193609039037,-12.755964973805341,-7.452551573784106,-7.694537956978355,-13.025650658725034,-9.412136435281475,7.758817434023417,15.26862431155803,8.620965518754517,9.148654977043616,4.5829224580532575,-22.134766599024662,-39.05641833667005,-35.85899753159405,-43.25856993851571,-51.967839860578806,-54.279104150563846,-75.70343622478906,-88.62223589077239,-75.25036666465064,-42.561601187294954,133.8149532055937,430.10099147029,419.02488238245724,-12.740365543964025,-294.03405513906273,-162.91124166324425,-36.68596038595072,-85.8806105366763,-78.9448846701008,-21.604797315884547,-39.080688035527146,-53.08285784374288,-19.77780168733027,-5.66585347587214,-5.946455025461212,2.0933915972248567,-0.38536615131807395,-6.415562757675993,-5.904904868295933,-7.940244563476021,-9.30186808867467,-11.392828859518723,-18.671527675153854,-19.104737159146183,-13.3187179248436,-12.405528663342313,-11.624438905635332,-9.8957110569253,-11.45058909809299,-8.876418757353663,-0.23872206327313172,9.442691876452436,18.91025620143602,19.13286291635464,5.472259106662718,-5.458241739469571,2.723940885196654,23.91303687616361,28.048552913250923,-1.9394986840431798,-29.570198237602142,-23.155155280729968,-14.24632375944791,-24.250761056128635,-26.9726624911071,-19.68277360211389,-23.828980582177223,-33.33347226091186,-30.95539112263381,-17.178302607322173,-4.882022430881008,-2.9304202395061907,-5.997798360427492,-6.791366430520359,-2.6125527932130908,5.947982196996085,6.959465656044506,1.540241345481066,7.069708134998749,7.418434439853023,-12.057301466303514,-16.08213453742464,1.4605965759066661,5.847784561529712,2.7770518556230464,-0.5710986461648844,-20.189596127307365,-27.835052816198175,-4.599052129035773,6.428187095165356,-3.32369174803676,-1.4470108218554145,3.944785541831063,-1.4141097698729261,-6.47927397950558,-14.873381287717006,-27.271363682949836,-26.269800138619843,-18.398460421525588,-18.05123565545783,-10.497336410983184,6.475646646953004,6.626649219303488,-3.9138903535119134,7.2670655312078605,24.575565905604368,6.662188791955913,-30.181810257792492,-42.42886366136938,-42.55232370904334,-58.1582986552163,-67.29756483126329,-62.123184356071405,-66.65072098240164,-64.5035192731273,-54.414355882908325,-29.89343345955878,152.90730110185245,454.1685387307855,426.729546800853,-20.75800750772582,-292.80560525245374,-149.78218781655946,-28.454947782069087,-81.00005936579969,-72.81699457399132,-20.68896430143058,-35.184195050762035,-36.27707672556309,-4.963824419633465,-7.247893413343348,-16.584651097668136,-3.2260602814343518,5.86577226784795,5.640064939429124,5.361740702220461,4.07067415926514,4.885562175797453,6.901122845927691,4.961554176835453,-1.5363573873166088,-10.12556407139958,-14.15641805430948,-10.769331695966853,-5.316152102413255,0.23934835284110134,8.26126147294361,17.167663833446753,18.643567635740144,8.450487006673324,2.1056605413547023,11.057250530534178,18.31442454229847,17.673895121079756,21.82648031783465,16.20409979057846,-10.12168644627528,-25.67775792873946,-19.307542125985123,-16.87799651163491,-20.716520108775903,-21.58984204887011,-27.930473072298177,-34.79505904949313,-27.43724509939829,-12.144052859283988,-2.5519192775658723,-2.817481658427729,-7.28420768061209,-3.24642790283088,8.880811977911304,15.595488474557788,18.317879015609066,21.12165979359518,9.059813771982915,-16.886946468319266,-26.75997602731209,-13.50874854616179,-1.362984173379508,0.20771195763281547,-2.1763452161606534,-6.6564564099742185,-8.982031943318589,-6.643399548694003,-4.895389452165597,-3.7011023577937063,-2.9001629812008582,-4.118207855073354,0.9794570153116045,8.432441954904604,-1.261501316278057,-18.441933093371723,-17.235266061415388,-6.384779572037047,-6.3510321835414665,-10.474219020960215,-6.074952548679912,4.017487821737204,11.16045454196313,11.710368194745591,10.9435307221701,10.45090421795269,-2.200324064994426,-24.045885447617945,-34.64659910660711,-45.4415942597084,-69.71466954083691,-74.66941033399547,-58.98886950707703,-62.119301973820136,-75.83023120830401,-81.14471344012432,-14.226528198299462,253.54315046067944,534.28379451568,374.6397422960659,-94.64517905875306,-252.41138486362445,-83.36836947235038,-36.96222748078856,-101.89773489994286,-62.569652646689065,-15.83560933237571,-35.07942030509075,-28.285870328576166,-8.500928037851207,-23.853264266592483,-34.3010694192376,-23.15679333281394,-13.328818085991838,-11.365054887624478,-14.474602104367182,-11.533104001820963,-0.21766161249575156,3.3120174520203474,-3.23917485505077,-10.98472587983607,-14.34897644650372,-5.258869792354721,9.643529835896478,11.989809700050165,3.3982019813604145,1.4630806230731417,16.631457617838333,32.788552134978715,15.737625776262217,-24.493966812476053,-33.56196618761918,-8.265481657353476,3.2471475557554617,-4.400794264204446,-1.8246644036658335,8.258478902033957,6.647454440829538,-4.63822980418583,-14.890881963660553,-22.03035620878639,-26.184896559677988,-21.420132215512684,-7.842517091545305,-2.8609084034665067,-9.964283220800864,-3.281680651545962,15.697440456519569,12.237060014408046,-3.52046997486808,3.5251637243467058,13.1459945971421,-0.16933917561320477,-11.452819856932546,-7.374019236196601,0.37116234440191676,14.706344358962532,25.247421696964885,12.592269438419804,-5.689274455689555,-10.192151543358484,-9.007732870911576,-4.51594170652323,2.739592772865352,6.433983451351148,11.116620902142198,10.11834274424447,-7.78950696957326,-17.179120176812454,-1.007866897321716,7.69720292353545,-5.22962145005121,-10.503187552652077,-1.6796793634403357,6.01925604165177,15.560715556981663,20.515201347888677,6.086989649989107,-5.696593352047967,1.0967953439927882,-2.7097619135967523,-20.811510285344784,-24.828970949268168,-20.884285880242505,-22.580125182108283,-27.528760622522654,-43.755750655881684,-58.79498073775589,-57.852385941022476,-63.525921509958835,-72.66176618355054,-78.14860814725135,-66.31803706193789,109.84867638995856,439.01384247843833,480.73951830508844,75.69401439888065,-234.60022623965182,-155.90531332035886,-50.726246831120285,-87.7591187153921,-76.7369371437834,-29.482755190285147,-43.56907917300104,-45.69379346970622,-17.57697913660384,-18.477987923881074,-19.151490565257895,1.3532897617684583,2.2770890152198504,-9.429725553161138,-2.531131352952002,5.4044026167526384,-4.34118983677406,-10.389100609457204,1.2937257326110139,7.7990818324732025,-2.7035452670407487,-6.88622813020543,1.71586865393974,3.4302330353337283,1.4504408719144815,6.389398383637207,4.851156596596063,-0.5276100264477268,11.382798812553114,25.41264673385861,15.046281011859108,-2.792692328887724,-4.7276743598464614,-0.7134540321656768,-2.099726712167653,-3.2902298699607235,-1.2973328242626012,-0.2776364941853213,-3.9221485247353662,-12.945172026769345,-22.36592003795744,-24.55110631756619,-20.037170831713496,-15.65211041401736,-8.394697742076339,4.38244544921093,2.7989607119991575,-20.142862299408183,-28.33301181371876,-4.479448096470131,18.29840682803196,20.217226648441017,12.09618936096595,0.1043723223469275,-8.570008174252912,-4.610486115770001,6.668469343985821,13.701887932622206,5.572067684505958,-14.926907807435743,-22.391103070883712,-10.524299359477606,-0.5874702301226016,3.8258378198633833,3.7297879947055943,-9.327169174164675,-16.97179681882368,-4.233919849129606,1.9796824008523117,-10.006365540152709,-16.44598523505339,-10.622022560780003,-6.128034461723063,-9.48182425825106,-16.40358472861708,-17.751154959403554,-13.809671838184043,-11.900535929047429,-9.960922360088414,-5.680813861056475,0.3041216741511139,11.782081627977089,18.272065488163314,0.868275320905358,-26.233519212754636,-29.95322273999137,-21.285902981328828,-38.666693761625936,-63.40902622196751,-55.461178297166846,-42.956464286279555,-46.119482240045954,-45.61028020414682,-51.70913430363227,40.23547751802158,348.8139623557413,533.0329731794101,205.09515028516864,-227.5728596734724,-221.24033490328424,-46.04911650001673,-71.18320734304814,-111.98800226843144,-55.92186846092322,-47.57407691354124,-57.187782703708706,-19.446498184017738,-6.861089250984662,-13.984391488081357,5.766396159452402,14.151439884321736,3.017812218305844,-0.15017643465804653,-8.705318668287642,-20.197092469197415,-15.149686572947628,-9.90168127940809,-14.333684493477575,-12.31218546142763,-3.829409452711662,0.21956373308064325,1.5351284049879972,5.602394468713491,9.528804093875552,4.607732087652589,-4.968384950621209,-1.6232914656757127,10.991268124205533,12.504327620725997,8.523852552416814,13.983066698220096,19.360272485434482,20.097803935018526,24.681781376247795,16.353832760656868,-20.675073708026645,-54.16764164240155,-51.450902658298105,-30.58611699544383,-19.856397637963433,-19.856214504096645,-19.73442275248523,-11.832249860472679,-0.0320685346812386,3.2932952809829246,3.4309160853707237,9.938411341408798,4.730399228442405,-18.216936629584424,-26.240784154612903,-8.414438263097146,6.385985070902871,1.5918791222669082,-14.093179475936296,-21.188898987983837,-6.687653103031446,6.763652932743396,-6.410879545818478,-20.916006124510403,-11.25713697840525,-0.9737895634539004,-5.063005495735029,-5.590432830051535,1.2649329971409795,4.4825858398535825,0.070429220751274,-13.361780685786222,-25.42901598910693,-20.494261363674536,-6.299737601212216,4.404552892713179,12.360230388582103,10.648829140648058,-0.12384036842962232,-2.213294408167071,-0.9618521277530121,-4.623709769356289,3.3578295347789435,5.279695171924516,-25.568867161866855,-39.67740320247748,-4.624731015439126,13.509695075550841,-11.567867922654816,-22.184134585733027,-15.970907916337845,-30.75387324473434,-40.526527068644896,-28.178089606874565,-32.71799779568884,-47.188591205753994,-40.58040674440943,-39.36700567451343,-49.12999820082191,-45.23920932042644,-15.609702204298145,136.26812580782936,398.4236588641442,404.6758258250934,16.735754401457193,-265.78130702236757,-162.64598250776353,-37.50072762609883,-69.05809696581804,-63.86829583650805,-29.90271284855939,-52.999416827639706,-44.756684294190926,-5.323177368131962,-6.413889069174807,-8.003843517175518,-5.728739221792868,-35.715412337592944,-45.00582543506572,-16.5749898782625,-5.4282811103747335,-5.437513914690548,1.7643251729052807,-7.458515202664291,-19.947337671791217,-13.100721088084253,-7.152379990377238,-6.537464283923738,1.5297235828154605,5.107063528267085,2.460114967219921,7.941482171490889,12.415502906926893,8.10476095337773,9.012719901141379,11.04986295911791,-0.4544974550176981,-8.871868004679492,1.0800588912677753,7.567261243674929,-2.240208203193445,-11.883820704353871,-17.97884783166161,-24.841443591750675,-21.64671478730392,-11.234828913189315,-6.725982078547439,-5.492338562616176,-14.770575503250342,-37.47380751106418,-39.093675001208524,-17.296730761716546,-12.89470274456875,-9.142268328055598,19.88410816121161,21.73620397679116,-14.023859008866053,-17.405373915651083,4.448307155807694,-7.036106949290254,-24.86959409780242,-13.153417164165672,-4.980354628220812,-10.257454726416645,0.7163892975825297,18.543980324892665,12.268587027724653,-10.314131997424399,-19.288243732756648,-11.44038804914048,-6.822127101513082,-6.519168963418732,1.477884433485059,5.802133915361306,-2.4302725305420534,-4.261424692825527,3.6633017598878688,4.900828562386822,3.50576789559846,2.352010572286739,-10.828187025422508,-24.582633350802585,-21.29808601025808,-9.131071135971041,6.637724601902653,16.220059859637566,-8.107385533512236,-48.51925279909572,-50.599335000862155,-24.418447999601273,-25.29016508974365,-51.84784734374153,-62.16935789170408,-54.074218072830256,-47.05952281472674,-34.265879328342336,-35.74679875040511,-60.780711279954915,48.17214977437965,360.04141204605617,482.6176704224721,121.42143780708608,-271.1421920689067,-238.5513381352353,-66.25383862300902,-70.00183683946277,-83.69009269516064,-25.826124575628036,-26.585805292746798,-45.045317727310575,-10.466017363826968,3.4197950158265193,-12.068495802269787,-3.6216631405609068,1.0788235872148384,-15.29865876201741,-19.27895225357001,-17.53653017846701,-24.26810715612458,-18.525183264085292,-6.197799001242444,-9.162416611098436,-8.773390706503296,3.4996892375656987,-1.9884683141639545,-16.8047299639805,-3.2949272616549266,18.073437846536343,9.700193124888703,-0.6246342370348437,17.411504873654675,28.585562188230366,6.815702463391675,-11.114697345505427,-1.269104648250888,8.201306614039831,3.2103946853239034,-0.171970174014918,-6.694508445913868,-25.409453207728024,-32.97134441294095,-19.270113093887044,-12.69646953637966,-22.69423437464973,-26.165241998969577,-19.298700273876303,-16.926136231307968,-14.385515391406742,-5.853442591757439,-6.712891856520038,-13.838049650663024,-2.8280305750302723,12.978868274098337,7.751379889201342,4.55050161709031,14.165177581440105,1.2494594376736892,-22.715883308576124,-16.699699947696924,-6.246102777322042,-14.390491904845613,-7.516332567241443,6.636715186696675,-5.953983687277564,-17.397930848365945,-5.5771620431519935,5.10706467899346,11.150906137819824,8.313003158651135,-19.86586988550927,-34.60127475954336,-7.483970759555037,5.553177005741086,-17.929510437113603,-25.819048086756563,-12.487103242071413,-12.082260105679936,-13.738034281725634,1.0309944824130284,16.73623230050571,15.230902834785034,-4.399358962017596,-21.896104778138188,-20.974816057425762,-21.017562442406792,-30.312171673630957,-28.35884621632941,-29.053700397666507,-47.24722701905508,-53.06787782860663,-46.07046881065105,-44.336717554034955,-41.99780991908267,-49.222113532370415,24.93088963141024,305.03522814186783,508.33851330063516,236.8633146217165,-200.91339635532097,-251.45946079490176,-80.78957418772315,-72.85325289041161,-110.82261316404349,-53.04445457348599,-27.29258228658916,-44.111433473506146,-22.228161331319484,-4.978892641634882,-12.854473600867543,-0.002315370971004427,21.14383672067683,21.466731592437757,4.446769505558748,-21.963505503092126,-32.52945176494789,-12.535590089670444,3.7140304995044824,-0.4817868819305282,0.764937997318631,4.548958812866859,-4.610289032160001,-3.2747569250073467,12.593473450154328,15.29891600928455,16.61542023602324,27.12933801640847,16.245584702341844,-2.8912156268230187,4.824130401187176,10.263777599389414,0.008126056002572213,7.10410225372833,8.692174913679281,-21.55626001851956,-35.352957044787566,-20.33408202084366,-21.671297240716722,-31.22405716646194,-22.7899721631285,-16.46258323913751,-18.25611333736091,-12.891227677648594,-7.491420905468676,-2.2584333716695273,10.652887026017064,9.469158015251113,-16.275314310552012,-32.15863561887434,-17.58949652077631,3.053308708163428,6.997248538519093,1.4404905915865847,0.9668173824624215,5.376967269016848,7.2955628986680345,9.478298476639317,16.268815723054107,13.678558387220049,-8.453125573700124,-25.36489973879117,-16.38303041251781,-4.530849965973685,-7.254979149270336,-7.318092141558022,-2.1277453132280257,-4.806745585971019,-6.778616310780395,-1.3069394561416452,1.033121489683145,-1.7226722635565501,-6.267820967385057,-10.130664505856931,-7.327164178034994,-3.5200433710579926,-3.974657128700139,-0.36214294025839955,0.019985212528087715,-11.096342341292708,-13.608656040660646,-1.2021687740603415,9.280780320005599,16.31831468152369,14.787406825536335,-7.488142434835099,-29.733966768017666,-29.087979543463227,-25.00956794889318,-36.007176374980084,-44.51168038687945,-44.704244340048355,-56.12159842700261,-64.06228266899028,-60.41912331045245,-73.67191081282087,14.45588452560429,334.9699424390388,553.9223484461402,267.45162978198397,-170.0171763533425,-215.11395594280063,-66.61192037272781,-78.4439643738432,-115.36047779935603,-66.35337410845929,-48.47806874961793,-47.32682924580443,-12.291320875704528,0.0166378907382132,-8.521676521150635,-5.008229681986915,-10.164373056238672,-19.731022910307175,-18.710309797974332,-19.89873443341299,-20.389305327008376,-16.235210345795412,-13.405129459551077,-3.932044279976111,4.152392414652525,-4.155695019022302,-9.163228962882531,0.44401652362458055,6.76071559873148,8.750429974627561,9.5574275664396,-0.001777757275059244,-5.380830393704875,7.56159644908702,14.628176704154967,3.738157234524899,-1.4450055265867816,8.011391151632338,14.498066443572364,3.6301870569732024,-17.0792108253496,-22.30246426050647,-9.178837893253004,-6.945112591557244,-19.00300178719104,-17.604201975457254,-2.8993833572052328,1.2907757980365169,-7.869159261857883,-14.070734659002948,-7.604923562806654,0.7719597992506939,-3.205941741255515,-8.302669766765508,-2.2034435274620616,0.9307842054583837,-0.515984449425881,7.4355077118127655,9.856671331597372,-2.206815216897155,-1.2006534845057049,10.867808411834652,1.2812253844144479,-18.43467529861571,-17.973413760028144,-7.399673923547212,-4.087585464899167,-3.062241668527162,-1.5734990998392995,-4.507980963414017,-8.750030209752069,-6.802590609748798,-3.0823177551088854,-6.5037772309161905,-7.267293545904135,2.6123179873812017,5.517085373834293,-2.267683640037422,-2.4360888767111133,1.3484811083493753,1.79828174593596,9.207022565526481,15.435894028093548,8.236218593665496,-0.8660106338455726,-10.189688300630493,-25.47158048315704,-31.183952807195595,-16.177422775931394,6.64809516594112,12.995165766033807,-7.265380455439125,-22.75106548837474,-6.250177512597499,11.546865555843443,4.624521274925101,-10.58876894567311,-30.0449282554659,-49.091853588474734,-45.847641996596536,-40.34067056354389,-56.979796181182394,-66.05945256096679,-62.580389027059496,-71.71231607381102,-82.40360744577626,-84.00618902820094,0.5662183283326385,291.2745230909864,555.2545305725657,359.82173744895516,-105.32997305591013,-249.50424880507663,-100.75833425681677,-64.03366168754039,-107.50937641817276,-65.39952453675245,-39.016226504673355,-58.37330463916915,-30.971802574621627,2.4084276315182365,-6.090879662113764,-7.7829024436727465,0.7797574633668232,-3.8307132757559312,-1.6663190732209472,4.366117297012218,-6.56373934469042,-16.040033638434906,-8.953526302746162,-2.4105511742005934,-2.3958987939087795,-1.3666912141745993,-3.6730570286980875,-7.762563338178234,-2.6782244414994363,3.6979783239728636,0.0533867845947702,-3.151251531459558,1.7505146378780438,8.63945877073197,15.18964408404556,17.815170938204137,13.021973136897044,8.000723302552203,4.1580782586335445,-0.729793368244636,2.9999022040729693,9.403080738356763,-3.8927338063099555,-26.13088055983233,-26.401150113166793,-8.877005177756406,-0.346153254463232,-6.676264879387588,-13.414438642358181,-13.217867966847482,-13.601042318628327,-15.721558449709647,-10.688742989547949,-3.4218929987766344,-4.777619621984334,-9.022529872978264,-7.7675651099762,-0.357934527812767,11.080755978687302,14.505126141012637,0.7039289709552179,-16.11032838103619,-16.132814088024332,2.0840428727158464,18.65671993459395,10.783666640084299,-12.323248408410418,-22.68480461344842,-21.931929159307117,-21.76785320521983,-11.287270166000148,5.518550761729759,3.164891935116108,-12.668614279402254,-14.05488273862927,-3.0539102012092894,1.3148756520231863,1.4324823292481295,3.7670149459216073,-1.9586015369396783,-14.148887060266137,-12.166744218215765,2.0161094839285916,4.071633358172608,-6.5764526586076055,-10.180438787328342,-5.32139847680439,-3.102768050742398,-2.5124240616962368,-0.45100327128741036,-3.7049547457895606,-12.93289520918012,-16.846884178842885,-12.826576292695774,-12.131837840377084,-16.021063697275657,-9.56659112718439,6.408782961877405,6.074213165676538,-14.824693615742712,-20.96418358003165,3.510769778235722,23.494029704637242,12.741723443289382,-4.500410946231634,-5.0413070373281315,-7.00616325971334,-26.650855807976697,-49.26665694737895,-58.94913387988262,-55.94363385307382,-55.11771416722559,-63.55236497856146,-58.11168512008033,-50.09309340573595,-54.77738951594592,71.6591979813324,386.88982775956634,509.828483805658,172.66138843016864,-196.26472807477808,-190.09075627588305,-62.59047204670622,-79.8627652786893,-105.97100194811736,-67.46420638071208,-54.836878770764244,-56.25686728717914,-35.078637467111264,-22.81399442175465,-23.700793587184357,-19.64935692690679,-9.824052481632867,4.54286844391417,12.141964082431889,4.380584454839179,-3.842129496588276,1.4443953570868864,12.607302436106716,7.9374763720954595,-13.471597741745473,-18.023031561827874,0.9584791887893882,8.497021334932937,1.532969156750863,3.147087231082764,8.529049825807482,9.307373467604307,6.509820706210917,-4.213902112755725,-8.46608581947924,4.760804913053757,9.146863158561503,-0.7189418290396725,0.5734439939752232,2.9223549745151587,-9.494335060512082,-14.888007141514537,-6.757075650372065,-2.2982596619499276,-2.641624668086214,-6.939230986741848,-13.668489928261694,-9.922136156969017,-3.0241430490683037,-7.839039923463897,-11.316401966083948,-7.053726201357092,-6.840100748260252,-5.732598295585722,0.46469248755400816,2.4678299153371874,3.6727705234236065,4.653352211367212,-5.120564826660795,-15.821092104607894,-14.082443652363299,-9.012028360552355,-5.262962343398865,1.067468931333142,1.514660385928737,-6.9802162408562225,-9.92089023459616,-3.153092324519614,-0.7891818401330042,-4.729752021445952,-1.1660467962313525,4.7744167871003125,-2.905219832542219,-12.95542331380828,-10.139227139971357,-2.898277534884917,4.064364942415136,5.914333210834924,-11.690023976637423,-30.044284919412437,-20.893768813966055,-4.24359106124389,0.8047650700453346,4.490189106869893,-4.542337671892845,-28.363509044849806,-30.571654826828844,-12.005626943509721,-6.765630748361,-9.375704978766079,-6.7451878546751125,-9.050689483256502,-10.883714222906056,-3.702216307516272,3.2622816238609182,7.058108450530428,2.5693114965310286,-15.511998591891086,-22.354322191010866,-5.2039311491347,3.916376196789102,-6.066132978407511,-9.265287500840103,-3.927840703145213,-6.1660056438177016,-9.727208214612567,-4.022179399005477,4.681597503787975,7.654551477289623,5.408068234392887,1.4808528839634167,-7.529100354307149,-22.562348245678535,-28.60528659638109,-23.605167662646444,-33.67583962980681,-56.0617305601577,-57.28635225641065,-47.646064248767175,-51.93441790366866,-59.84101643333415,-59.769778838136745,32.79532150690763,308.54293795287856,506.98284843489535,261.63446895071587,-164.44837241073583,-238.50322767805358,-76.66066742531001,-62.11025478167232,-112.95385239821356,-67.92464321973938,-34.609202994315005,-44.60031309866939,-25.52239792462726,-9.262257860342253,-13.246033599785012,-1.7656406170131493,4.064141146447818,-4.1222330974581975,5.028691588725314,14.11981769127325,2.374242173928309,-2.473058956199459,7.712189409010973,12.569973440266477,9.622872682617828,-0.6788673543126826,-18.557677756652097,-24.36124453208356,-12.31210506847274,-3.413166106030655,-0.21087348139777085,3.766932590045039,-4.061868876516625,-16.78368029076399,-12.37564481136052,-3.5939370617661197,-1.014272161079056,12.619766649587676,22.62034064078523,3.659546499524616,-15.477922791015526,-9.02816312639551,-1.1628116866586087,-6.712715538511095,-15.937559831625535,-26.070273734577892,-31.936629383738904,-29.477470690727202,-26.3477003934087,-20.515234107483607,-10.698257161438061,-10.267562971844487,-15.026382551069322,-11.541953642489442,-7.860516068383205,-7.324738861883649,-2.8235256297307902,0.460397250534756,2.365423551418525,3.824016602077247,-5.11388095530382,-9.57464852532917,5.949863379328477,10.338267957030954,-6.4505675873875425,-5.691949634182242,7.738380329493175,-5.4390100580762315,-27.662997438597618,-21.666982926484174,-5.447121851302857,-9.929462708471053,-22.17610370159808,-17.50827405414826,-3.9169575356678976,-4.33100379524635,-18.147562162842057,-22.54411864783227,-8.950879446222704,0.9054312923204382,-6.089236957430689,-9.067727845657863,-0.9230081507172265,-4.910112421577491,-16.13829315017661,-9.69353387650632,0.6346517771803377,-4.176451235889207,-9.000398974350258,-7.849907911317111,-10.783240735457113,-10.390823383731318,-1.1912168321851322,5.858383267555464,6.175391348449405,2.4629681617455974,-0.6022699181775018,1.9330815622459578,2.283482514923577,-2.126224933395923,3.9369797092867262,10.204652602745943,-8.909986603373461,-28.220288136071915,-14.038347545960214,5.056649141342724,2.156356502058367,-6.363960704127532,-22.558894185251226,-48.014773091867056,-52.00549282317894,-44.175701560627246,-52.9022430357889,-55.320449819611795,-50.09678039709303,-62.15232670481618,-71.60300355787592,-50.878903754557356,75.96514812369837,350.0458559124768,469.80047945536387,152.74014293202538,-221.2310163754263,-205.25714603984645,-54.64246231838605,-74.11600613218639,-88.55526588846132,-22.43658000891414,-25.057422923641212,-51.23535847012801,-15.156023418491468,8.605159055156847,-0.9347841695546357,0.148000917984632,-7.363422671718169,-26.04007068365097,-24.384033398656854,-14.655180984507815,-13.369004158456852,-8.473830204773762,-0.5128992720178402,1.5311652452685376,-0.11066664521813863,-4.303133848520126,-8.063052769046525,-4.62384828439756,-0.9019417641825882,-5.112481086284568,-5.534015094371609,4.136592092937981,10.112942744907908,11.949224937892314,18.333798442808785,14.51382460334693,-2.7365668153721847,-3.8238263996827246,8.725523669297672,0.9246339924694844,-16.00906647948122,-13.807843481170114,-10.65712284018926,-22.579922619785908,-27.359822249324136,-16.04067673311351,-7.525708393822482,-11.130269710522823,-17.176727719169016,-16.734804890704666,-14.78444323395486,-16.73223980954475,-13.449557660533086,0.719154715184664,15.29053516938815,18.83061269297348,6.900945139976142,-9.555445731432783,-5.65122193293881,12.600215457448598,6.455990148005069,-18.908878056834794,-19.08277091095202,0.47863540254755055,6.016918836658211,5.7209199493168015,3.858075654265818,-19.92605120137852,-41.09199895255412,-26.167061114075118,-6.845633985686392,-9.785105796656964,-9.792421874145953,-1.2749592466846273,-1.4985549304812444,-2.9936614268583828,1.6108606081367327,5.993228846894146,12.148899470232674,15.170613372765326,2.1129325470293168,-19.158889541550913,-30.08908760013879,-24.483645728151558,-10.781771167580644,-7.706925286000796,-16.78197981218038,-15.10631940335562,-3.7849690374232097,-5.433498579937638,-10.171856996898228,-2.300053489426805,1.380729687078782,-2.1077520474115214,2.0972526904128737,1.9319794631218024,-5.401131552672261,3.6766082439184604,13.724929455533458,-4.368622665792412,-22.970603066669963,-15.269526263499609,-1.553408258240136,7.346734203596178,12.144998140244189,2.7467812734020853,-8.252611577993875,-6.563305089193612,-8.88225778724912,-20.456213946700604,-31.115877234273025,-40.156059892550694,-46.361903985806,-57.594774548387875,-71.9070256819821,-75.48147091044699,-76.83145712148043,18.86286531444952,326.47586864396607,540.6520567798407,258.8655768389867,-182.7650472557048,-221.937528475099,-58.07723799205162,-76.5357575681314,-119.79244544941595,-49.41208966413218,-22.94766659637108,-38.32315578966896,-4.230408587261138,12.279739847661604,-9.927213207010272,-6.379784887521513,6.299392749506014,0.766699320764344,-0.012584461948254244,-3.4935323222738894,-24.514073915302667,-35.36512267000407,-21.237118724873913,-6.048756381926875,-1.5495259386872036,2.9049933283621083,4.470915087823766,-1.954438348064496,-2.773427253348631,0.8291715709006713,-5.276698677109421,-9.772492754610461,-8.264190184326095,-17.31203829137285,-21.367286047863086,-3.7304797922110993,6.749669176981734,1.9525962008135842,5.367112919468536,6.024905400145345,-6.0389940076975,-6.990913331186516,0.49011421240304287,-4.121845475095533,-12.587136134507574,-17.959970715363625,-22.474602679557346,-17.967112454254558,-9.676315015002034,-7.579475846536102,-3.9794341512301603,-2.232158492881805,-8.076033802752715,-6.412813723670562,1.3105034604760464,3.0777662981682634,8.550144386442968,11.530497206685958,-0.5999616836270762,-1.9286081773738293,12.753096699681834,8.379158589885208,-10.12375095275643,-15.786820651751318,-14.805531059116463,-11.538707237594934,-6.478534429416625,-12.275880283632592,-15.29129471002705,-1.6666286749352315,2.6713211999851465,-8.342186972631898,-8.468697226786063,2.069071980088072,11.610156477361981,21.457222733704512,20.472617765895954,1.5517931442237707,-15.061074561717646,-15.90862562284703,-8.854317348066573,2.1012820386553956,12.35014805828193,5.597068375416205,-13.406021510016016,-14.51726056433779,0.5110209295381116,4.2789991210441904,5.006019698403003,12.731109983691237,2.143858817345995,-17.93050103031908,-9.112480396437645,8.837254389259119,-2.1196054808322806,-24.085597928962645,-28.861023300210533,-19.348039119852935,-10.933273094927637,-15.699218045491847,-23.46044817257532,-16.042246807087185,-5.500291126634751,-5.426946650719316,-3.686679572279635,2.718477574561817,8.712330553707236,17.38282171990804,15.816282239572809,-4.659881915982622,-18.76184536216432,-19.5141082958162,-36.191179978876356,-63.76868717846815,-66.74501898974114,-58.30523519889692,-67.0761167474595,-72.91372611480506,-75.49235616765225,-51.86647266072423,151.7215547137439,485.7326644640605,499.5797481454532,75.27106745326134,-233.6401463349827,-154.49332948612388,-54.93604061760843,-99.83216117039517,-96.89243907278492,-44.79442666408965,-41.39479673945789,-41.65021358045665,-25.70519577757336,-17.41271517288736,-3.859788879434088,-2.3428933107760344,-19.128774757188896,-16.971747695440023,-7.206200476582424,-11.854517692675605,-7.942836514304858,0.5623412778720365,-5.209584345990027,-6.144217876178834,2.9546585289944325,4.262269105392768,2.857280979702683,1.5493739583962434,-10.934432239515546,-20.19510593835749,-5.536601749073229,17.424471307106547,22.558912830893227,13.745197150256605,13.649013451238503,25.374562549329664,29.561347452750333,25.149802321538363,25.923138177306775,12.454473867993514,-32.03853013656307,-62.546111139286566,-44.6677087504776,-19.527133710341722,-22.088613025551673,-29.651389012272112,-22.25888771833315,-10.320335624625457,-5.605835325136468,-3.1025994289229875,9.564285780180969,17.975059812327473,-5.56920427394142,-36.60557786038872,-30.12551093205782,-5.25435300718774,-0.09721461578842394,-2.8201637160413,0.4420543200129856,-1.0893544394775407,-3.8037709634132195,-2.826575381615953,-6.420519511592888,-3.909969054701162,10.707821999290953,9.297886464068421,-9.285579450656186,-7.226160677177446,9.323477306084001,0.711662699077678,-22.908059793012065,-25.672113516544528,-12.129185383199726,-5.519002908069196,-4.570792328503424,3.1495969321862187,8.510793041490702,-4.559084228490677,-16.78813158385164,-5.064083544537394,2.500099734272558,-13.564126922839616,-16.483946724931727,0.8549387915795243,1.0395104587057222,-8.981430679862449,-4.606407626321507,-0.7299820059189273,0.07146920902466292,8.039609690168534,2.6303962652230846,-13.633203976959683,-8.435074093208037,3.3919262138759287,-3.43527746268931,-5.116679730927832,9.526790983076976,16.22875003827695,7.549596507799252,-7.759557155621215,-17.457037291555846,-9.184665128256324,0.9517025584405463,-5.076719152734864,-4.787651167257723,12.50276039771244,17.595732327809976,4.8859151677607,-4.5808530355878565,-14.00298805909335,-27.27703382037167,-28.471352122941624,-27.63735884636688,-41.38537495452354,-48.99584816010098,-55.02134821368798,-83.1624274162601,-96.16988072385747,-82.53679480396858,-38.40871877713751,175.61054344719946,492.7159801428968,452.1714451811728,-0.5097112325642001,-263.4594125285416,-138.27053983213966,-48.72966281239999,-103.30302545629942,-80.4686271229804,-23.42145428338022,-39.42105314349368,-44.25037205895114,-11.676624670431778,-1.6749309923385667,-5.975296335477694,-6.555493665856968,-13.53537262036753,-18.57235928390346,-12.56201912755214,-1.1279498592911743,3.036012899205968,-7.853441663837039,-16.430273730957946,-12.256022410775469,-13.462969729062443,-16.617902528220462,-3.9651418591172485,8.477703198629843,7.837527099380292,6.700213265471346,2.459303484209996,-5.763729746514889,-0.14516195349757988,8.80767972794054,2.03507796301471,0.43518714713991535,12.49544835770504,13.761292723302354,10.144001696875048,15.88933054361323,8.703038516175072,-12.90017373026739,-19.245045562625375,-11.784441161644962,-6.701614589906589,-6.14380008480863,-17.90277440113022,-32.491825793806946,-24.056984392089422,-8.110233482897735,-8.46230325262645,-3.930942294435342,9.465031471276555,0.7037415032493328,-18.407695376643236,-12.640024685761496,4.309828336955643,7.294753537311406,5.322741968182578,5.095297975003373,1.196603520215593,-0.15108824397511533,2.0753157700917426,1.4158748412425401,4.184245894026129,3.9314383731061007,-14.49768779683437,-23.492493342916458,1.3178229584112469,18.870512434777254,2.6812126675775687,-14.84359848552267,-24.46657493322774,-36.34788067195473,-27.299377375737116,0.6550574894831858,6.498397094440561,-6.923510800958084,-9.870561755194014,-8.363446178238902,-10.673666405915853,-6.410565539257645,-0.5498978402231831,-2.964359477942608,-6.041571100155307,-3.759666829407947,-1.6880025208304854,-3.373424009984623,-4.351788616955012,-1.2911350783731876,-0.5114560466856908,-5.814231895043253,-9.044114471347644,-5.83988590194839,-0.09427668870067762,5.083502416300944,4.57446530565521,-0.9843671256978208,-1.1493593277282717,1.16435710313975,-5.515619240983833,-11.294567993782191,-0.8132246716163127,13.308678400693552,7.343898912134077,-10.513057008812122,-10.06695637052071,1.8437971024444453,-5.028944116494653,-19.80249367696787,-30.0612895885859,-54.02259912782025,-69.3873510354823,-53.767501258471114,-49.41578807465857,-62.62859003524513,-66.05174785909794,-35.912715580940905,149.63231319954969,453.1707185030826,455.52080203593795,45.500130674312,-238.5510092198456,-151.17049111104615,-61.0369797371671,-108.0567067200251,-99.92754350974843,-46.578083739806914,-37.44520039044344,-24.559818539289477,0.39128386146362004,4.807209974350503,7.519194342219057,10.718758798423224,3.5285629827897225,-6.794161221339046,-23.44465081503178,-34.76777322912766,-23.49767081551745,-10.865678491662576,-8.385998846369286,-0.05179788602758073,5.36092865641039,-4.038772275801227,-11.382691995837973,-6.461155853089159,5.413248338791896,16.250354506387232,9.799981807961894,-12.24249906747474,-19.512019155509165,-4.702545956413051,7.8074003921547686,7.269961930814482,-1.939429544621536,-13.097830563856329,-12.306547883712271,-0.8226724161157772,1.287849807602683,-7.082710023072764,-12.810811084575537,-16.27749354288303,-18.459863826022463,-16.142669421742823,-14.593423431713186,-14.325069082638345,-9.72023265161197,-6.892696705455709,-8.740417888022808,-5.905152264838753,-4.023289564755025,-11.825803861072774,-9.823259976905817,9.468116273128093,14.515190955393914,-1.5709637529703002,-6.842479599108627,1.116122164635465,0.6285768962077718,-2.913757567487572,0.04704684114092483,1.8651495377711393,4.075564876735583,8.600872110866304,1.5961384111272352,-17.990816798374816,-32.20318113307161,-31.912311518987032,-20.865186864185937,-7.079587595004686,-0.18923391414532276,-2.168546585271285,-5.320572081415039,-4.8726347570214035,-5.728636425611164,-11.311819032388012,-12.181968621445186,-3.3603171532159806,1.1248642312409416,-4.434539087750853,-7.117526021165993,-3.637096580049757,-0.17502457314568964,1.680767249954993,0.1600744941041352,-0.6592008080178324,3.7336705553152747,3.3633601211986948,-2.7033181532341324,-0.10420472407533765,7.278567825268063,3.84029134377797,-9.309590945820812,-19.751593139410204,-20.72352100001439,-16.44087478012151,-7.361235529674868,9.38572586755306,11.86066686467202,-13.824723471707806,-33.712500449958156,-31.87887486510537,-33.35705666738842,-37.781656119305126,-35.057387586889504,-36.436026339156854,-43.22008454261344,-51.9780910659671,-58.75014048656202,-62.18696187290227,-51.99101138465027,83.00075885922558,368.1857911298072,449.39889803024766,100.30385183939269,-234.3543226939051,-179.3736729219506,-41.94406737132926,-75.8440703931729,-97.2393898333931,-45.51563612607288,-34.84640171145888,-36.02367714609526,-14.080581037334339,-11.157028188591909,-9.796287189207224,5.821472805767602,7.266246546975714,6.60693240411905,16.67978599383763,9.189996841006726,-18.095479002106547,-33.733781013373395,-26.358202433876563,-14.637358189998693,-16.28425584077967,-22.136801243392554,-17.53542260706262,-11.61916602610604,-10.502767148288441,-0.8450605421753945,12.3813533589353,8.498665608693688,-1.9520930279095339,5.343606153171919,19.52246278196827,19.89657888742334,15.882705239853419,17.04287499174275,10.222359201133903,-6.592156997941874,-16.779514909959257,-18.507834500553415,-22.21555803904721,-24.792685207050038,-21.892758811028777,-22.363428909533283,-26.233108795841066,-22.69107606139957,-13.665647419542456,-6.471659717869095,-4.789438352881689,-13.506335776080473,-21.133553701940716,-12.397506824760097,-1.7198838055092356,-0.08260349813114942,1.5333261034640042,-2.8565410356422447,-9.996676373778891,-3.19232345000281,-1.3230790159212198,-12.363416248872506,-8.362438733965266,-4.082134582770639,-19.88339852696997,-21.779333491197804,-8.518159541869325,-9.463625776980486,-6.343852832015116,4.345220962133206,-2.459664574715436,-7.881439892168075,-4.858471936072533,-19.371314169153713,-28.62937094711932,-10.780952107967519,0.35161318523680407,-3.719859640166227,-4.077718741053959,-6.514149737019842,-6.619904620895973,4.429842889988035,8.154630160198787,4.129498619989388,6.259009913945475,-1.2982099792285489,-20.262378067140634,-21.73512255168419,-10.04357922463103,-11.775340303855376,-17.160825202504512,-7.204482349336347,3.8627813962647686,0.7744167569052944,-7.696987658392112,-16.62294904882316,-28.453350447884667,-35.56648858494744,-37.04093970142121,-43.0888323738694,-53.24415157238858,-56.66907696390827,-51.25249574932163,-60.21292315793519,-54.33470833165873,117.6470654450971,425.42643982102766,451.67292336170345,46.14439534147748,-266.69610219058933,-170.34536131922408,-35.44187480496739,-78.80987862676221,-83.02616753510705,-20.573602644213096,-25.71071638128135,-37.81389433137003,-6.937691041673471,-0.008832057770945312,-8.831789053673418,-4.91691704907057,-11.396638294347046,-12.489578199585335,3.4083313787946157,4.698449606218632,0.15135597964460246,5.772029781542583,-5.899905855802359,-26.998179505904684,-20.911302541083444,-3.7238103803486453,-1.264808981490864,-0.05642605963143321,4.888259044395672,4.075168787069967,6.955040004061937,16.500942037475223,16.088081349198816,7.795618235118301,5.708952947193566,1.4287049861970962,-8.834260030104414,-5.615219975655107,6.710545144956851,1.739845073939989,-13.083445230477205,-15.893227998759201,-14.708621867091765,-17.851750931145695,-13.904982321920127,-4.831913430658453,-10.214546989971456,-32.258419094361216,-45.74788675915907,-35.06747554030426,-18.486786537237812,-10.957836639753904,-3.578100822262396,0.8910532046165507,-6.365286716685098,-9.878961155889193,-0.8521221229593205,5.648574059180984,5.639162189905939,5.6982378279773656,4.105087577451863,1.949105199412438,0.9771907380331317,-4.322071288524278,-11.434401499032505,-12.566278315236147,-11.444153557286697,-13.709477506994645,-15.901386798775125,-13.042142139927694,-5.634641891997543,-0.8732570218707085,-2.4447391455067127,-2.6064734214564833,-1.6158697088878373,-9.405849785557441,-15.281375875955636,-4.802231123278556,5.5016269946809615,1.0936048806190755,-5.647416949102107,-7.536695889801525,-7.488291257990982,-4.292436625371382,-1.605809117405979,-1.0207486800016472,2.269248769324051,2.2952773208253348,-3.6530527306348315,0.9010787188436797,20.826281760229385,31.97301280244129,15.090015583236381,-13.888130063370328,-27.605198605940956,-29.748550544899768,-40.726206046486624,-54.87897269176287,-57.57124665936006,-63.672490958568225,-81.97883695110053,-81.8114345692926,-68.17066835034807,-61.41357071604094,65.43163020311917,376.39847458380075,510.88397236626065,177.46763631512897,-210.93870483633867,-202.05344265788779,-46.66644221911386,-63.621044260737456,-105.36180140357915,-60.92622331820628,-42.205441456362344,-47.08031167138507,-18.575440793301293,-2.4567497328353127,-12.994632334180139,-11.355745459991763,-2.728544647113303,-0.22700041178458186,5.688451116185184,8.611897184030719,0.502343041092427,-4.002693644353032,0.7247028522635865,-0.34258749499043084,-8.453699917887356,-9.333917749569542,-3.0163869221570287,0.07701023335564816,-1.8190873297455914,-3.2218896814273195,0.9738873896054674,7.447314988482258,7.684471941923747,4.194381088221127,5.163628294880973,9.069700115623933,10.93295565200116,8.999790970050633,2.8497404739389234,-4.155201108911274,-7.31421054022962,-7.499668965677585,-9.60301144445168,-12.902968363121332,-11.041122412490356,-8.182055770356904,-12.431946233404418,-13.627152667188602,-6.72775415139604,-6.944798493538951,-10.391700649447117,-4.689747733684415,-5.616595366825528,-13.692168120869958,-6.194264433722262,1.9931019128257148,-8.385273925696042,-12.592833145703155,-1.9316179510680476,3.3861921349024797,5.816000714242397,8.123562833425819,1.0963638917178926,-3.3935657990014754,-2.087272955253928,-10.28461505983272,-15.659696590800333,-7.505341525148259,-3.823555123916858,-1.6138940859808457,5.355259431387154,-4.802391397870796,-20.398519657965444,-11.939862030491877,-7.609179710068997,-28.14102706351789,-34.231116959307265,-16.629007775638435,-8.671518209992154,-9.850231475984238,-5.920947484069252,-2.6042471623849597,2.6676726809245626,7.855286128175993,-1.0535607726935154,-8.715954615002513,0.14337315770337788,0.5147182718689418,-13.233487579600991,-13.962449744248676,-7.432296306543343,-11.237349507773228,-9.519481105337949,4.510013027696995,12.442442141409932,6.8868083272020515,-9.107028836853097,-25.053095572432817,-26.95147811173706,-31.01639531329323,-52.959055801735566,-64.27611391724594,-60.410440773826714,-69.97811696252973,-79.06679638350656,-83.67417458200708,-54.31969317361382,169.51176323470847,518.2116971361654,509.911355300801,52.069894819617865,-256.09541193810196,-157.1774647746015,-51.76187090810233,-98.71200093748077,-95.63347990542152,-46.882491703604245,-45.75217669481054,-35.85680160996418,-10.491918481527543,-15.333722924000455,-17.20925638325773,-4.321053611936005,-9.574094564231743,-17.874800560953492,-7.295149927325198,4.797963282742468,4.769929265069917,-2.11151411401484,-4.112144537497565,5.3552928382593095,14.15395709725204,12.121833705361054,8.450428246255962,3.8650275063068813,-9.069953414453353,-13.132570463292822,7.560501988821896,26.84735958613031,17.401468357916,-3.889237484428051,-13.5320945031723,-16.015901104385673,-15.285871888194928,-4.791627826878894,4.3453687142823245,-4.210010206753452,-17.74698447143242,-16.94640592863537,-10.857196851952978,-13.766405701591953,-19.5424070612267,-21.85041758068112,-24.534426946584745,-25.25152372283555,-19.49937319212315,-12.944968709282042,-8.83625974856104,-2.59230609028746,1.573019146106983,-2.537975034483175,-4.59642571070402,1.4672610100095884,4.751533467307976,6.090131797841774,11.27213927782459,8.824255746184487,1.5202868837505878,3.2009183912467805,-1.9747187166401332,-18.955136083203033,-19.03746457469974,-7.50748111688778,-10.896238551612427,-14.828228045211175,-7.908816985443668,-8.510311092314328,-12.02309069644692,-3.101819908520712,5.387017776512541,2.552167489892174,-1.745094147594914,-0.4794602890878288,1.306036936052072,-5.283319865309652,-17.739673370867216,-20.592346397152596,-11.651827044399322,-4.997693052113419,-4.795721947016348,-7.3063442468435085,-11.837055405895342,-11.22169607964658,-2.024487122891289,2.5099465630125426,-1.6445612982091227,-2.4029385415675293,-1.5102029934955485,-6.808933621844444,-9.117784785861875,-3.888448945210449,-0.7411088261222103,3.1162265360789876,16.851200438823977,28.81624175544971,20.39735806801135,-3.730163714748196,-20.97027267695036,-20.257040378787522,-17.401165609461483,-36.34796200506867,-67.8401261877246,-77.1188304538669,-67.66209788714573,-63.8299625719767,-60.90518627596478,-75.29116016805733,-65.11918246423589,152.9945220477319,494.1908087003443,468.9529427609201,24.91888947423191,-237.83337021980344,-132.08867364673583,-68.14662046715485,-127.91285193882453,-93.76188143069778,-31.702057316202996,-47.056119223907,-46.20895479050667,-15.441503464616694,-14.869083926019385,-14.482580797318143,1.7582348852459537,3.303584400604965,-3.9645443119300268,-5.3960378282444985,-2.4473964278505083,3.2266550588130443,3.2345930943068684,-1.4876482895038432,0.023686934657815684,0.9884979494555708,-6.589828902579072,-11.451371614811514,-2.6059747596520646,13.019139912772879,15.448500783505139,0.8563383265654592,-8.019943982473869,-3.5677713665461663,-0.9708776854970593,1.1635087293770954,8.728338579828453,9.812900016064146,3.5107361605499356,2.6492565516039948,5.644115527108866,3.289831276950582,-4.876060885148579,-13.231181204638858,-17.620255061336366,-20.259845046908616,-21.298036421915853,-14.92843801305102,-4.6375443859445475,-1.3066180390790567,-6.153047116794044,-10.59660707020903,-5.718298086860524,3.825990268409969,1.2867969425190076,-10.96021592652998,-13.519352574345373,-7.762111466068731,-5.218084191965184,-0.516960849363528,8.740483645194118,12.595298568990309,8.966432056812653,1.9359381683786676,-6.838720509818058,-13.611775561055435,-15.982217415276892,-13.486959013370743,-5.4909828870548285,-2.9550027842725335,-15.452249695298123,-23.28744981702886,-10.988662562393234,-0.6494999647871129,-1.6923052233138787,2.952147065812847,0.9068573295160789,-20.574744409312444,-27.34301729078542,-7.559155958772379,4.248746396295902,1.377092290618874,-3.921171031360828,-17.55918538706057,-26.81303631300649,-16.755663996236308,-10.70660207545877,-16.02891386149484,-9.604054418519988,0.29796784823841627,-3.7231484232670766,-5.663973149088962,0.4823603856994154,2.0937446891305065,2.913135199457784,0.8946330163965861,-12.617368834159477,-18.32839087513929,-7.61410111853742,-3.68689207301796,-4.229448510034215,5.295691590703685,6.89244049986053,-2.8998452841705236,-2.714825649726924,-1.676255178097744,-14.120985731448037,-27.74715022168239,-42.26066059782069,-57.47521248224633,-55.43230704891124,-51.820986838211475,-63.76474639251046,-63.94289914432696,-67.85404769166684,-58.32387618775762,141.36892077197584,485.73369212423876,507.2865185739986,84.32782712177223,-233.74239216081523,-172.35617709818467,-76.73339417951951,-109.26025400656205,-96.79082664410987,-41.57910711098772,-39.060104205101815,-40.743528357302935,-21.350951498739683,-16.421208382551598,-10.333895206087586,7.14045425199199,13.157246403638114,4.526619430632685,-11.881883427304576,-25.01066440926033,-20.86603227982509,-9.443674989869393,-5.979639001665504,-6.990162897911567,-7.099596743815237,-3.784121800117246,2.875883480230172,6.680074830983277,7.5112721755810075,7.167215501432379,2.7668864237010933,1.5662750403934265,7.072298804153863,6.243229727813572,4.072172492536833,14.043738364834642,13.577955723835018,-10.924285640586614,-23.520454113669768,-11.991867628177246,-8.092133153008131,-11.738950046951523,-6.400319332890438,-10.48573765248252,-26.153113615037604,-25.318211016428542,-12.954414220975078,-8.753752193300095,-5.799864689595761,-2.649917203011027,-4.814470329255341,-2.359982380571928,2.0310120166094627,-4.562156449353786,-12.712553054670323,-11.960194902432256,-8.714631088144014,-7.561227655418731,-8.933332507373123,-8.489384412810054,0.11869248563169954,6.11874064607596,-0.5030695878969311,-6.6622362494716665,-5.202677503516684,-3.885335897432615,-2.820676029356216,-0.5563411865007168,1.4121288370900729,2.2707492899091584,-6.824551096597913,-23.522947291344494,-25.28906521075092,-11.33982300727153,-4.292664927339324,-8.327381749102145,-12.908839688341356,-13.667315022215675,-10.304634210390894,-5.148360618819924,-1.4721752897582299,-3.2975298816013776,-11.78901011189565,-13.9676688701751,-3.2854471502501266,3.0410786847883085,0.18240663567727644,0.6816320121740738,0.586704584957868,-2.585133031592556,1.2056621874660634,6.323662345510376,8.10775681619919,11.68802169602827,3.6808122926565563,-16.720622535099622,-21.557604275388016,-11.519920148567753,-5.355354152716725,0.4931283186656543,-3.546195867570127,-25.746116374569606,-29.068484210917504,-0.9263349848318754,14.88650544017067,6.837661070384575,-1.2527318174146949,-14.799403005761778,-36.513723267148066,-44.82921307305676,-44.3934281210069,-50.189267156649215,-56.513806386031625,-67.29680513747095,-75.77300092558876,-67.7299006278385,-61.97652401432507,24.259961875660508,312.12488362472595,533.1094784609819,288.8471997913208,-147.43616188129837,-223.8996114731707,-69.0245812899087,-65.93330056394001,-115.06839791118551,-63.3824170171892,-33.29988083180707,-46.079889406559964,-20.726695781936918,-0.7660315649823133,-11.684050101214254,-5.505942817400369,11.607295784990747,17.239034787484297,12.674217056080732,-7.8780637398551505,-23.167876714438783,-11.60363142530662,-5.605727853210567,-20.529844298248225,-24.4772498843183,-13.659352880746901,-10.048577064873284,-11.547410561406316,-8.109121123767313,-1.5282884606692146,4.246150273727244,6.86446300619869,7.305629976720364,7.502852558340811,7.007065079704066,8.684642642939732,12.892201116337596,12.505726574514178,8.057228995504662,5.514192702811517,-0.17597220528427293,-12.205988271380262,-20.160294637825437,-20.542872781621764,-21.39299166254213,-21.826673811827796,-17.883070181557116,-16.343718346392283,-18.067958477373917,-14.764418928173155,-7.488006143393363,0.1852153020690892,5.847024090739058,-0.4565602523756276,-13.78248418181711,-15.623697679892906,-10.322972423313491,-4.58550106968633,8.220510450424,7.817786430619794,-18.810304847579935,-30.36513986761104,-12.280283902615551,-6.752553250963192,-16.666704307844064,-11.934835599621136,-6.467772735611465,-17.254659095515358,-22.244184187457584,-13.60448719173468,-8.281434866890077,-7.425867763565439,-5.7990550402241645,-7.857672210955132,-9.384473119169556,-2.6202181357910117,4.255266597743805,2.5084433418734804,-2.432459931528106,-5.421301624521419,-7.072888541950071,-5.171373012050331,2.710024960486585,11.899566302833879,10.495292942293997,-5.990647356365443,-19.194428362899156,-14.533693414338895,-10.323238351559963,-18.64112707139491,-19.874462104661543,-11.787193890881701,-13.415162967716844,-15.484670816178262,-4.581045036572409,0.7250108427015505,-5.928893965178869,-6.6060824316546505,-4.622262286881174,-8.951381041358403,-4.8283281969380685,7.753439451662328,7.785097825137405,-1.2483081222110712,-7.815292704180964,-21.898534612911206,-39.130606465087055,-41.73020737123496,-38.81374409524848,-43.2502266817776,-54.81473023671331,-68.98076752242743,-61.41320019618882,-42.22293233768266,-28.229804621512223,114.17634254223628,410.5407756668666,464.18878355443053,80.91407157660439,-239.21593382223796,-163.429817513768,-36.54247325556039,-73.34602386684,-87.34928854178399,-50.60380199250775,-54.82431424633321,-44.924194996410534,-10.350903156714363,-12.219243119405775,-25.953071803594902,-24.49912193861727,-24.03320069714305,-19.125350405298562,-12.851247323013201,-13.448029554088887,-8.697384922348128,-7.723529614110291,-15.651211973798024,-8.77896611576709,3.1398120267527787,-2.1962944790335186,-6.462634817176411,-1.714889460560121,0.6342591958297206,9.807941684299124,20.686704881736453,16.870964951501442,15.812783020121826,21.116832756694656,9.119509821005408,-6.350283734308002,-9.366373394417302,-21.849682792021287,-35.44342956986185,-24.003507000625184,-10.866002169038108,-15.179477460370045,-18.13016403465113,-19.458394374758342,-26.161880921234328,-24.617421100991976,-17.854414440613837,-20.060872955766772,-24.385041814119585,-21.70208885612457,-12.603375473263657,-2.4393141676992975,-1.8906373800001646,-7.589345613210298,-5.738092239853668,-1.4533348397834942,-1.0393853917659115,3.7362293003018046,6.930901570768569,-2.1313531840866773,-9.52873761581791,-3.8337580998749647,3.031540142380088,3.6175349498170792,1.89880549866092,-3.450641337173554,-9.991047026415991,-8.44013132722284,-5.517370580322339,-13.713825751682673,-21.870088127581663,-18.105615667966585,-13.845175040648883,-13.921052018249215,-10.867367391913547,-8.313511222540694,-5.62344759003593,1.642409883502932,-0.47545097725165775,-10.518021329168482,-5.1119440157193665,6.364854731220088,4.936375534958383,3.1522403455825767,-2.0298178828047355,-22.358606963896456,-28.619680702149232,-9.925457999520226,-1.2053984737595034,-5.618438554349137,-4.6595626226159474,-8.762472976693978,-15.375301446894044,-5.481174757273632,10.719114484024654,19.818612154431772,20.742444430737205,3.9325679574650305,-20.403535193555083,-26.69565177606769,-27.444315508075704,-46.719512801241464,-67.6301131369012,-67.59035118882615,-62.71896441216037,-66.97918735439768,-63.29054414827449,-62.125533312044986,-42.30581130943339,142.6811329965028,442.8804460166476,432.6434222039776,16.777898495102164,-258.60347568303644,-147.4691955811145,-36.280717480569415,-84.14476954451915,-82.06997495612237,-28.399864323513675,-27.500251226625522,-27.750423398464637,-12.12905487160733,-18.79589525782429,-18.69863833049308,-6.133375973193626,-9.834800125282898,-11.181480727564146,1.2250406115982706,3.1976832208376873,-5.24215032234523,-5.042601189503465,1.6170817039335255,-0.46766794211906415,-10.807971193259068,-15.645487972881238,-12.942432952712158,-8.78596509175713,-2.980932340049516,3.9058417361127438,11.492599031288544,17.923269304028388,14.06177819245736,5.8639854995482965,7.495212076626192,6.669653001048846,-5.279729835634981,-8.933918682639476,-2.841621704622817,-3.2931932832329327,-5.40229042872428,-5.49354837550035,-11.495519349312234,-13.291923533389541,-6.290273396363164,-10.94847542467345,-25.40751832369316,-25.962855526293293,-17.32262488173935,-12.275110732782611,-3.8901597421882137,0.021295581960611543,-12.281257091118235,-17.996782622831176,-4.176987102138874,4.735872976897484,1.380199847859032,-2.2923028667282104,-13.59959227168817,-30.597284399585412,-29.362209237848887,-12.178420571255232,-2.622575379094606,-2.7475684544373102,-4.601329173859352,-8.684802740270928,-11.604524931188566,-8.893220241587724,-2.9122804895268644,2.5272843199636306,0.24659772091634125,-11.41781618078826,-16.41550555115053,-6.654546403250366,1.5598872835173623,-1.2334202727180354,-4.904105586652435,-4.179088512085116,-4.803942707924913,-7.3355866672553915,-3.5461345794845416,6.9232618613842245,9.732533566754665,-0.48779144407433783,-8.767137136480315,-5.001163730205529,4.144871952575938,8.23967129652364,1.1319271893629033,-11.381632131174488,-15.303086376370915,-10.670230230428633,-8.962313923619753,-10.58688235828065,-7.357241324835405,2.3351986863017045,10.328765804973687,8.338196550586094,-1.7631252222576261,-15.423021026171588,-28.839777515405643,-36.657493126088575,-47.48120173454624,-63.761554335449176,-62.226955246379404,-51.783995873809125,-59.83418342022717,-68.92827005843192,-68.86288136660018,3.385257343411098,279.4066491974881,557.1269046373026,388.07105896521097,-72.8620831296398,-231.05999605661168,-102.79223081758465,-82.95845268406681,-120.73371042167986,-59.12854290086921,-20.48904752028269,-36.80268581692124,-27.29610671257786,-28.168594914066965,-45.26415594203846,-29.4352077719579,-12.85604601165074,-15.78805642380232,-12.294845104532943,-13.79675775473688,-20.629818989713556,-12.448133035415964,-7.090278344508544,-13.796080651136686,-12.27392878225669,-2.89593739056221,3.8956304669363107,5.288225552311179,0.02038190192185141,0.7052089617055675,9.942325145315257,6.557861071058962,-2.706033268131747,5.638225200958994,14.531407997313572,7.92671815106359,8.97698607918438,21.15333061957367,18.901970565727268,3.0122257225697595,-8.308361298937287,-12.036694120027983,-11.71496779115245,-13.336880141771424,-21.58028077851005,-28.940807747040616,-31.35908815879943,-31.600950920481647,-23.18111446319913,-8.589915934230081,-4.780561169773328,-9.7660687253092,-8.777213064418941,-2.6178667956264228,2.2023643110508857,4.274818813146508,2.9648146677123535,0.01131650693544728,-2.3939725840043433,-3.3164557358516245,-3.3993731299038537,-4.139385013476333,1.3440197403166123,12.002518165370546,4.554097136166874,-17.465817482205335,-17.364254075412287,-0.9221065591676467,-0.6706887073616477,-4.650410609334149,1.796487788996938,0.6370887164445485,-4.490402952622576,3.253486694002426,10.34631727833569,5.26888894230133,-3.134015212871322,-7.293696900582295,2.3305094538125446,22.415929893544877,24.228081457806102,-0.325585756285129,-26.473663254312864,-38.12317177146708,-32.98950105118366,-16.755419041302076,-5.228402850684159,-1.0409234293455718,0.5325705025509322,-9.156280162167274,-21.876096085298727,-16.700330411907345,-6.021112534662327,-6.536811143360762,-7.407831521155998,-7.197052133948361,-10.337845746662225,-4.226985530616024,9.482211679264047,14.970935311255202,8.005175546852474,-14.047844113050061,-39.724075855666015,-45.82035349268642,-42.934672565068496,-48.66996127057975,-54.18312376392589,-61.07353033240738,-72.06547057700155,-83.33822929893866,-66.38580257528905,111.25612090966425,444.5827818804564,526.1161052971504,145.17462383137513,-207.50659734548273,-163.41815385304625,-48.1298224330955,-98.43012334844995,-115.98378399266124,-52.9540417625242,-38.110344593128154,-39.752646029154874,-19.097307302904024,-22.194037873933247,-23.30044877808183,1.7026348653657246,6.622712099435523,-5.285281016075913,-0.8152381153853261,2.962083615819224,-0.057046650626989326,8.681616126915,14.213670137034391,5.960809169212052,5.800753284587707,7.789948007665659,-4.73528502606622,-4.510765872555754,13.205727190412933,5.919822066630468,-13.912507665982211,-1.3110357092387672,15.804405049810754,6.255535297932754,4.379885115566007,13.798851986956219,0.24803600079262011,-17.236023622874487,-11.385154805482717,-3.2457840733214196,-1.638534508714406,5.374265636904704,8.74662013879972,2.6126479183721747,-3.252243477325095,-4.975143153972445,-1.7950920883788601,-2.5419691193586935,-15.656883402417225,-19.368474626366037,-7.176996912538796,-11.886166018822676,-25.568841832016794,-13.268323461849253,-3.4396113988652033,-24.39418323994402,-31.771958694100114,-4.671060531876002,13.242203663772912,4.5656954763346285,-9.348780035323344,-18.95566877151782,-18.790532246859826,-5.900820203600643,2.8074599463400496,-0.5783323490426184,-2.857457308051657,-3.841506118019961,-11.160928196564049,-15.007275835573358,-8.136534866413246,-0.04597145457648821,0.8781731349372883,-5.997477844564942,-12.565573430918985,-7.659572671805236,0.8332756582750456,-2.2034906867999364,-9.468322910188311,-11.148649862842078,-12.359920797345778,-10.77486866210947,-3.1637399106233417,-0.31229710263210997,-1.149183497307427,4.6103375944306615,6.583444986854056,-2.216209175056955,-6.272521412020621,-3.0425086897625633,-1.4464316466659302,2.598450555026811,2.6865288739771955,-8.660129983506051,-8.710838759855779,4.020564772405736,-0.8137919034577532,-9.377580624851555,1.7833605833425166,4.991505030371446,-1.4734332254352465,11.294182108390338,13.51114993867212,-20.377754336460406,-43.76824182247958,-39.18687751063524,-46.018618639074276,-59.36951987154319,-46.62604356547936,-35.33970993745942,-54.986601198061194,-71.23606276172129,-74.07063854367411,-40.08810854036798,167.56258984129775,473.79297101216684,448.35480349149657,27.0664011599163,-246.90919796734948,-154.6543437997489,-57.6647059606381,-92.60020609106923,-83.10486855690894,-37.75697170082419,-37.07124951522431,-31.345128563846956,-13.384744638305301,-16.852278314250647,-10.60027911968341,10.919240875649425,10.42946503213724,-3.8758492850162867,-7.583249168766525,-8.936389939010642,-10.538775207838215,0.11015424349488079,9.012088613980737,-5.060703293665988,-22.354610302866945,-20.776994502755095,-17.358592192829043,-18.323706791346382,-7.181411909970906,3.255067356464636,-3.5002187876510025,-5.412012774867292,6.393044167069097,7.084646063861838,-0.06849585920121903,8.302863031211693,15.516116523063836,3.043091722709786,-1.513090168634494,12.061279021675471,12.600894406491868,-0.05439944630373539,-3.268410322848826,-7.748374348847474,-21.292951981627088,-25.95191671048115,-21.78476835541553,-20.57103623790847,-20.303319706939586,-20.470040009347084,-19.253612780494723,-9.888600550854735,-1.18637805568941,-4.5251459838534345,-13.141967749705888,-17.438065885660507,-14.99185526654903,-9.456570543588624,-8.487265119428653,-9.511691557908435,-6.322450293754175,-5.7233584670745365,-9.125921614673173,-8.345722284470025,-7.675980484265269,-8.965392326892268,-3.6128210362970457,-0.34043188803600977,-6.513928672755123,-4.234078599605178,7.943637995441844,11.435200690802947,10.126308505780315,7.790348634973986,-6.478377523550609,-18.897849838250373,-15.658386900862041,-13.616669736556277,-13.518505076216414,-7.536803722024349,-16.190450362864958,-34.40409601641361,-29.32539214768373,-14.401256527720456,-13.14812745703821,-8.731937098096573,-2.1058341813987766,-11.530280095290898,-17.30843187595072,-4.697695371617002,2.8328652919607435,-2.945445251578139,-7.53368529138676,-8.016486655624984,-4.051808020114057,6.102650406247552,9.156718633291533,-5.606806315872554,-22.682488981605083,-24.488314519135574,-26.646334115187038,-46.54224653430107,-57.447289721432625,-45.38593842788692,-44.458260674661595,-53.2793921877349,-53.85217487502635,-44.25273854460174,90.99627113550628,383.56310061322534,459.3813417995857,90.70678744053971,-254.77780638191632,-196.78382464503585,-49.44448607276763,-70.54738965128792,-81.03176614970648,-23.954515171876743,-20.282694345743273,-39.09763555202928,-26.318832438459268,-21.431873026109706,-20.161986244775193,-2.659453063406323,1.5316691944882628,-7.514667333225351,-3.8671814131203455,0.6933737825288944,-3.977594783665321,-2.6771222843447227,-1.7586872374854412,-10.751852873616066,-7.543754537264426,7.782429140381749,5.427542677999153,-4.137077263305318,2.347154884029319,4.014461230948032,-7.397657795603299,-4.585006998936929,8.334039708925113,7.055936021620877,2.605975563833572,9.543042945854795,13.147836433928765,6.163271826543124,1.818335979012157,5.7890213495599845,11.881434092250037,8.85001854840031,-11.791961427605846,-32.83364632669677,-29.079946044410597,-13.73335414465633,-12.179685716997422,-17.419751788376022,-21.0298834240738,-30.213244770215802,-35.95857037958344,-26.62810877196207,-13.813065293572294,-7.74323599659742,-6.021461562694899,-8.408227462714532,-11.18029762726269,-6.4261087008702145,3.915747897415862,11.11762060708799,9.041751528228213,-0.8435241037244516,-7.0210156569159885,-4.837649063081599,-5.99290611280224,-12.10286072726037,-10.501038215913487,-7.032884554328554,-14.819352239889627,-18.241769470884762,-2.2607560404737406,11.25098957183823,3.9457039511981833,-6.0390869666112135,-2.42407149996645,4.032275460439964,0.5772197949587099,-11.300720971686147,-22.685863289998654,-25.80309683394937,-20.684302903119228,-12.679983192999655,-6.15484834730033,-3.9806077542096787,-3.302630308543886,0.24107470675574483,-0.6140547829632652,-9.146198381677216,-9.213716891677972,4.241724369525654,12.642105870007843,10.077630611646786,7.6502708371214005,2.8418539357899313,-11.785797287574262,-27.87476758981495,-42.33314913127755,-59.45860570362656,-63.407208403752264,-52.24482475174408,-54.39799178883709,-61.38979939619449,-59.40658987111973,-47.820492342819676,96.16722683515577,402.64582670616386,481.14238431260185,101.32437172189898,-245.77294134279455,-177.2388387878542,-36.77120376506245,-79.11916167736727,-93.48448141408547,-29.006561845342322,-23.59065069954778,-33.66615464962783,-5.22784756267848,3.6568689758672974,-6.379862383214579,-7.277758304204799,-10.031898999494652,-6.227872609629383,6.729447091355342,8.77522811552306,0.8255103125559415,-10.597719186924797,-20.503498755754435,-18.392736540365398,-15.325648145054457,-20.985740886595906,-17.86423733578402,-4.682768084062574,0.926875450992954,3.299774165182832,12.248348556566576,16.086422224584652,7.600070453656496,2.8182045577177552,6.920547610677764,4.378921752055709,5.878559777775695,27.292119066475408,29.237683210737906,-10.570856273139505,-37.1065853863071,-29.060297105055554,-30.054336771959814,-37.09300425942175,-19.782973743051677,-3.002663940534653,-9.405258691124239,-14.116513060699866,-6.511052873692872,-3.037309480868954,-3.421880852402767,2.875068110136265,12.127551264320068,15.286778317112752,7.8227562589406485,-8.128786940974107,-17.705226302947366,-10.652690415051106,-3.3959777838695064,-10.44479464780828,-15.838710997642307,-7.4795545037363045,-0.3848117319324942,-3.6393637953007527,-7.704214913167569,-8.715940347052975,-11.111512693952287,-11.896704324956525,-3.674141085145589,8.086700074431729,5.476870513214761,-11.641681154245106,-15.220094262869633,2.7097825920961105,9.289314623335505,-1.634447876328755,6.357904527127834,22.62021794956929,0.6539836714209226,-30.800618364888297,-16.416877367996996,11.571153203676847,7.868461709653507,-4.483846605756632,-9.408234231187894,-18.29546617181607,-16.858555914510454,-1.8581809614504774,-1.6342207680694578,-14.497443387984992,-16.484652782153354,-11.418252447675677,-9.007959418168266,-4.088637769921514,2.3630741205558277,2.820445365592061,-7.327527676540775,-26.02898812735434,-39.636804197717616,-41.9985796918046,-42.31196739861009,-43.526485514914036,-46.088727824692356,-52.935982452236956,-72.07636037518826,-98.85097363374615,-6.741179739999154,319.7236042300738,575.2554914241423,335.70440238466927,-129.68523876724234,-240.14144520054322,-89.77252076209713,-69.01964305615465,-108.57903770210169,-64.9243042942156,-47.125290318095544,-59.545607241493585,-22.451667067395928,2.448200241942402,-12.36486875244514,-6.6990982410874995,4.478847730522181,-8.74552656284783,-15.420805230592574,-6.850220240244468,-2.2314011398678524,-2.0600552732023765,-4.211698996165396,-7.280825887548303,-4.695537345811683,-0.24415766682019147,1.902184630045151,7.0392611477932014,11.229144872144532,6.464664954418864,1.4268686862748579,5.6707125205898725,10.395061623854973,8.711595718196849,11.267567677799713,18.544416196472543,9.01600680633149,-15.139137856592505,-18.41432756012039,1.2098669129840727,7.401253169042077,-1.5597187812471542,-3.558306071288376,-7.842050452091652,-19.182591917737255,-16.512715984502428,-7.000204280654021,-12.037649979370325,-16.53151654147898,-7.501212022274396,-1.9806918814513308,-1.6219684424860779,8.155092915575457,19.581930769933024,15.56607816324745,-0.2272297088443569,-9.22648989433553,-3.0859878110254977,6.15939985087363,6.797438585950506,1.659376249485426,-6.9225844360346365,-20.21830478604263,-32.530867787312694,-35.57888513573215,-27.228336364758533,-17.41366906952866,-18.752289770880694,-22.9960097183169,-14.508049094169051,-0.06779958432517219,7.037581122048925,5.212923876098602,-3.7126127290920046,-10.573191028953374,-3.31166699848964,11.386029115555678,14.535212628016914,0.2772410713909004,-16.101349847330063,-19.05519070805634,-17.822788945058655,-22.7352988603266,-17.490915209426408,0.5610396714578574,4.687262438245373,-5.704842137707018,-6.176872047556618,0.7675042122881788,0.7282343954273802,-0.46358910267172426,1.6266913909173653,-0.2138159935551478,-3.2067675444741806,1.239141492823916,7.669591737912317,4.41184880247461,-9.709506089128823,-25.553037447832757,-33.74528360083139,-38.52615029334381,-49.27558505852966,-56.91517484848354,-55.267667983183614,-56.09618974410287,-61.979222632961765,-77.30929186294601,-49.71988653739241,173.0851211309759,501.97301551604465,483.60206993694976,44.390210698521564,-248.51536143848546,-155.14863468809932,-58.26024726655909,-105.12660136947312,-95.16098283161017,-41.5586964802357,-44.98361145942953,-37.326431638293535,-3.1178853091044783,-3.301061187099794,-7.889260642050774,9.70299598926169,7.955270220607866,-11.909512120394705,-11.18016760287538,4.271421070222626,6.6633954286917785,-3.987758716523036,-14.65661437741602,-21.212727870987397,-17.73159098992361,-2.4239419175108283,7.6069823008917545,4.497223739750467,1.6749052804723643,-0.656998143490199,-9.288644558335893,-11.518500102624026,-1.3397177099219233,6.729748025274143,5.733283156867836,1.4235327680485907,-0.01778586998892351,1.5904910233264067,-1.5832716956062773,-6.70419613306597,-1.7547459526503815,1.2199666518042012,-11.579195439602291,-18.964889957146248,-11.66619841906784,-15.22117199177933,-27.88723780799824,-21.551796463063678,-5.4598632093427,-6.050733522503744,-13.311268229187403,-8.86284031547909,-1.0491092343442734,3.7314777341333967,10.805165361551394,9.95028805366956,-3.4408980319798026,-4.107835024766052,12.88277992927655,16.648519689723486,3.6802832616246928,-2.980358987265081,-4.628944949468924,-7.8864698346634245,-4.310687312892505,-0.2153949027062474,-8.634729915275381,-20.02201804012953,-21.009146175342124,-16.40910403291533,-14.140393406027698,-10.940715865538497,-5.936422378548436,-7.923785783850306,-12.955480019278784,-8.089680736220222,-3.071366497875534,-8.792318319362893,-9.13899491403519,0.7513842170673453,2.6475518143667536,-3.0429402644055763,-2.1478605357773706,3.146745501468545,5.25630609511237,4.2049186728745465,-0.3743277591472509,-8.36925662509782,-12.4874606928488,-7.480432513933618,-0.22639282965038632,2.3614334068648297,-0.4800015480543216,-12.394088038473363,-24.968796307250756,-18.286775068884342,-2.289773672016416,-0.12462571695917646,-3.2852739388014776,-7.785513762560292,-24.34287482819085,-33.25331911041134,-28.538650801523247,-37.93900307068027,-48.27314613694285,-48.82996181223942,-70.64898389438947,-87.5647957537796,-73.52529005292828,-36.250757823530215,146.63202801346887,454.08858059558526,449.1811607605557,15.731837821226016,-265.60321016262594,-143.66273313229283,-39.40615160483669,-98.99497624747912,-90.563605440285,-34.74421070033858,-46.390562156486595,-47.594577230348364,-11.850729093961657,-3.006210123198798,-9.069854489989996,-5.17971688361558,-3.016373722329888,-0.9132777189128838,0.7281418619174183,-3.398226239757104,-4.551267822148624,-2.6035547355568767,-7.196042691042672,-14.685954214198595,-15.243211654616172,-11.092884304296673,-9.720174531463321,-7.57995834273777,-2.0915060958758875,-2.0452798243145125,-4.187428179082159,3.393465036369677,13.378144610935415,14.675937139897902,9.712183080276919,3.25781710044103,3.6516849539093785,13.126575167016686,16.660789156226052,10.915036794006388,5.858903401997344,-4.381816423042544,-21.29649180253891,-30.591693506012223,-33.9788940541262,-37.96733028907765,-35.21923439814325,-30.68588425394663,-32.53848299841094,-27.250680853185955,-10.943068443998367,-0.2885564555472051,0.9850448422423881,-1.0073202315391896,-3.8649762394512663,-0.5680869786208795,9.523660225929696,17.573116735063355,19.806280792383653,9.726218761184729,-9.990523578660223,-14.76063505471185,-5.482456094981334,-8.411512817763047,-17.364287307387144,-21.7143078743711,-34.26461294210436,-41.693364699835186,-26.823681259184895,-12.956927117222559,-11.648825467692053,-9.89023130754613,-11.136137236658538,-15.442286052762551,-13.559375797542877,-11.407786635524928,-8.291695543034447,0.855292510989873,-0.9771810768980629,-15.991004654880708,-16.461934750363618,-0.5427600059866275,5.879045047991816,1.9660226870360642,1.3031282301650222,-2.67305778003405,-9.08009727541261,-2.7322973786682923,1.6083654586470715,-12.561695781282282,-21.218166749251445,-18.872185732807004,-27.768587857731656,-36.04995242917562,-35.60415905214353,-45.55088162179502,-56.079496364122846,-56.76762109831515,-57.04186160617711,-55.75133285610972,-55.081711951281406,32.89398258832246,316.42280537491183,518.8340520181237,248.68592639364738,-192.2593758387946,-238.32174016639092,-52.535135772541814,-49.040887842689706,-112.56991026198827,-68.01281417887684,-39.02293121774967,-52.636168368887624,-27.92784765805309,-5.62717618734974,-7.933634411704233,5.031613623391178,10.963770733033055,-3.891759430552561,-4.70291477000962,6.926031189836005,11.168805928865579,4.135434989793085,-16.228669035334793,-26.42554620835267,-7.885662372431598,6.864086376740159,1.6907039323832223,-1.4137406993983337,-7.641985980990002,-21.318067371592065,-16.735271352864288,-0.016904703631674067,5.110274097197513,9.357876136043183,14.760243972877458,4.619307460120446,-5.543388727590187,3.6486360132212905,13.14267092037787,6.119693732014624,-4.587546351670969,-7.686062752505007,-8.481918951298292,-12.816520952620483,-18.644671446063423,-20.119888252822882,-14.885742441272502,-10.881788867990391,-17.054597008403434,-25.454895443306103,-22.37299385672761,-11.85240612381683,-5.460035902099003,-3.887302469662975,-3.150045696210091,-1.8128026018765944,-0.19847362964616266,1.0826709529721281,4.273260209790987,7.780358044077689,4.44225793712945,-0.9738706177025316,1.963481345865019,5.989090503265166,2.046503754437966,-3.6637188936706586,-9.021816547602796,-15.260250330085253,-12.598143505408204,-1.4846356588741187,0.8082738822780122,-6.178958407897099,-5.228773581350433,1.6863130182122692,-4.547701092010039,-20.403959483493484,-21.604896249622442,-8.143871565247036,-2.8067748072806893,-7.050019700323855,-8.105684054749295,-10.210392487593445,-15.515132430314836,-11.972416466052088,-1.5347816986926546,2.7639291835332624,3.2024840437254634,5.9884422168311096,4.101827361864874,-3.408784610867965,-7.06317570358787,-20.265128183577648,-56.12524649162119,-75.65698485535442,-59.77926309689808,-55.745685199271534,-63.65396206169315,-61.348376372715116,-68.26192939679052,42.96612521813945,372.6464975725031,533.9594021481306,183.5781954816214,-228.01756800862415,-214.3121150742321,-60.01106683216689,-80.5002406238074,-100.82747638749642,-39.223433208381174,-29.628192192369738,-44.64708510165256,-16.502134802985697,-1.2367387402507255,-15.205392724270794,-17.002242750324854,-6.885047019302991,-2.1219457055746176,-5.236968428192384,-8.102871520231318,-2.5500054547502753,-0.01779887978220529,-6.851392724006484,-6.034379148954061,2.964677401885628,3.511979692726433,-1.8200512903569903,-3.5658749629762942,-2.489083641628546,1.4691555711245345,5.965073654459742,6.613195228816571,8.01449833672419,10.317923104618325,6.660652673377301,4.570206312654907,11.630529683870499,15.753640344000774,12.541547054039022,12.3448082612952,9.374140842154343,-6.831374996045664,-21.908948236240477,-20.819622106507556,-15.41134026960389,-19.472755774624474,-24.396561068786568,-18.759602838388524,-8.09698687978719,-3.1251692092187042,-7.3127342618467495,-15.779146669171409,-15.829533329330479,-4.86509183004828,0.8716010832229513,-1.8026987104740737,1.5150293757212694,6.365017648468191,0.6911430862105234,-6.025953825465415,-4.7785265522636635,-1.2155464950063415,-0.9512194757484167,-6.628984216966826,-11.912946121227959,-5.6796554176890375,5.31080082383056,8.294321936570126,5.121596715179723,1.4583746528642267,3.6996388260188677,12.687891427104491,13.53830777087056,5.016299812206037,1.339788395719621,-6.622921260801483,-24.641089153031064,-29.592321946062228,-20.386070792591102,-15.21486786964397,-9.151011376091486,-7.376929936722373,-25.904025203289695,-38.63244259395846,-20.682918278418228,0.8105004739237067,4.6078709350070834,-0.15696522019095838,-13.438278889755413,-30.572610986932325,-33.51420053613401,-32.55311913645635,-46.12809611268713,-56.43036126273459,-56.61005617189012,-66.08122517815983,-71.21792827390018,-69.99307554609742,-60.703263273888965,101.2182453383971,444.5968567025132,551.7934615837892,170.47033981554563,-211.49593129084616,-179.92214110345338,-44.93973468925011,-86.88407991734461,-123.83813043642847,-68.72734568912153,-44.1593989718362,-50.20254261217343,-35.51460408782792,-25.331686154764476,-25.54182011745917,-18.152307210124867,-8.302966285075023,-2.585971098596346,-1.725712940313965,-1.2217283363209877,2.918620437280822,2.103572771016191,-3.6138168383187974,-4.867229540894542,-5.773040326543403,-6.004447733735065,1.0250236224152829,3.538390031123054,-2.236390148306138,1.5395373996151553,10.031361468176794,3.4588576941689175,-5.605055649774955,2.5397537815755635,14.024532235249978,9.739263792956336,-1.5509530249833614,-0.08685404639616823,12.63433477053482,14.736347482652949,4.036714093848562,2.334186859750104,4.347098878599187,-9.843620018457905,-19.34379369556296,-8.760239272391896,-11.247228988419572,-30.187021126830302,-27.30022539069954,-10.064838081247185,-6.554456912706261,-3.4163230583661797,2.386552045571227,-10.111486496692912,-26.0554378422542,-19.06429510946982,0.07436294915120456,10.40887492265522,6.517406934726258,-4.364250142518202,-9.603974453759665,-9.418985518214244,-10.416046108093656,-8.467184878636424,-4.972888937604715,-5.757872616487509,-5.187662395130987,-4.292796554695116,-7.412885739534859,-3.133814369808909,8.298645442480185,11.04008644238025,7.859795585343969,4.838373976453177,-5.925085342025206,-17.498041116999467,-12.869526067670986,0.41416404632234816,0.002129686644401829,-14.50500678552035,-20.609509476824186,-14.113377347060126,-14.687552740783971,-18.30649516185975,-8.493381832019868,-1.4801244680596284,-8.302403977529423,-13.601056706665943,-21.00506521092226,-33.18422024331039,-34.9816043138458,-40.48735376502276,-59.68627610382914,-67.12242288544074,-62.58484147244799,-61.6975383264283,-70.11795802181007,-62.69602193906151,101.90992793327607,437.4840147421781,533.1021951561609,151.1387197451204,-222.20993769102256,-191.47031813386909,-64.37802627104769,-89.7842186979777,-94.51289999725803,-42.17078835216503,-47.53885439655219,-57.006701542796456,-25.669071801642595,-12.717283175440688,-11.55818478652563,3.2637932575052133,10.081962640118046,9.487839766952497,1.1404291958936703,-20.10356387059908,-18.229845798063405,6.020312649170563,2.99320445727032,-12.029736379584378,-4.719856784152064,-8.781378764959122,-29.712918805880477,-21.37340733794277,1.3481416469384158,-0.6271337914333497,-6.190018673626051,0.4467346989522518,1.753115923906936,2.606230208263624,9.228586347824113,9.583585828454726,10.085316552234541,16.143666418733613,12.429600841007144,4.346786968007903,7.302718919505667,2.954618206754425,-23.25827119996064,-41.505251704980985,-29.61571754844895,-14.18065281683471,-16.724510681280517,-18.451960909307882,-11.207050378954335,-11.45672099897855,-13.208052723084315,-3.2944238771354346,3.1872817665383115,-0.17987173878188045,1.2943541615343532,3.84863979705613,-0.940276571978206,-2.515054032968517,0.1932157613061296,-0.9561765477558852,-0.02032047114263502,3.61164511868568,0.6001709016364316,-3.5501750826002665,-1.649765281034541,-1.3053418325330428,-4.322370662992274,-2.1911428859993407,4.604679565796296,5.6337282664526835,-2.398541487328851,-7.769946626205331,-2.801511001293079,0.8021828302774452,-5.214584156614077,-12.016363589095423,-14.022903056484406,-13.521308562607416,-13.449599724252742,-16.988044306063415,-16.80435876464454,-6.295553494883578,-1.812966903142712,-9.216327818737614,-4.814486093442541,12.726009955235766,18.79141541531354,12.350531390439254,2.2864622670414354,-11.91082992307848,-20.267203033939964,-24.862731638108126,-39.61255475495692,-48.7153644524565,-53.75227096639105,-78.84888439883825,-90.53625344630197,-77.29559309294095,-46.76516568700159,143.88000504375256,473.9069789598041,484.8851799403484,43.69676447329946,-264.25143201899715,-160.03507524755827,-50.498485653285414,-103.94911648268058,-103.8592146923066,-54.64674417623381,-59.64094326998048,-53.820623633039716,-22.044908096815604,-16.028074511694616,-12.412822535757837,-3.33122548513915,-9.924465972072312,-9.816726995779181,-0.4971619839686561,-4.252635151567457,-7.954035090423778,-4.714937757929766,-6.155604023379624,-1.8883855270766645,7.244772764573965,1.1167309940671402,-9.373374242354547,-6.324882898197669,-1.7511355886296673,-0.8870391746420054,5.311021707725814,9.65623551854043,5.497541541117718,2.8775631186055888,6.3682952848471714,10.07484702211271,9.819180703081523,6.576938751423889,3.579931346196365,-2.5862870835186946,-14.261339611041775,-19.919531990989785,-16.64286486998985,-17.382864499442203,-20.952402998168992,-19.013510657067606,-17.395330290234746,-18.73775444997763,-18.108542055328925,-15.442531029501904,-10.272623930409413,-4.861674717112585,-4.089047016669312,-2.5255118179281872,1.5361733175190828,-0.6322806159830243,-3.9439375000095414,1.2734438778665407,5.12802491418563,0.941361922482745,0.7141521330743466,4.3858793230056925,-0.9509388949291697,-3.3484752562322946,11.251737321312083,14.611678868602215,-9.284410738257439,-21.816780621227757,-6.756205794931172,7.598067678569508,12.73888904484702,7.2262267449681605,-15.916361089914314,-30.95510185845484,-26.368283110721077,-31.157664617357472,-38.39210685730487,-25.64520900349632,-17.98783065352233,-25.701116960364153,-23.572501444737092,-15.885961534446224,-14.66653290094522,-5.722656133219827,9.840920415272555,13.714072108477843,6.392435273476734,-2.6344300929428606,-12.511517754371635,-19.950518436941795,-21.501306674387195,-30.432985336975975,-49.90961456272913,-54.34757711590112,-46.26329056218958,-50.25810824004698,-55.99971274394554,-63.97246158936687,-26.579784528994864,198.7127235947596,470.72857676673436,350.0714680191835,-92.25105366106737,-270.7348562959059,-119.37582517448894,-55.24843179659013,-102.44171931777552,-62.793300071626646,-18.147424018060995,-42.67625615834966,-42.09892270165125,-14.037613723370406,-9.925057709800768,-4.902968292690645,7.299610124230152,0.31230419426619704,-14.074262841450679,-13.989855647906495,-4.140203902682732,0.3763198789772808,-2.7291034180412517,-3.5501971829826964,-3.012431049698474,-7.465198139363375,-9.068799374660985,-4.314799523419188,-1.4470105083175175,0.2496086410962164,2.853045333163963,1.346041432396591,1.8830910829638032,13.131032054573094,22.719466900973032,18.032865456665743,11.334290834712434,14.20913761825092,15.596527091633519,8.994582978413586,6.21566542658579,7.735505095831991,-3.809824523278973,-31.143775715820816,-51.52864272122674,-47.41072818005105,-31.63662481875163,-23.100676395839763,-17.07073687642012,-11.550319822521999,-18.626094215209985,-25.66456618180017,-16.639274982398913,-11.302135195277188,-13.639804732905635,-2.8141335214349468,4.774666694711172,-4.472327031830298,-0.6369313287160381,12.032658563817144,0.9197022132483408,-13.439855590876663,-6.049412453209445,0.27331383341475757,-5.554993325059648,-10.050488503256847,-9.784815705334779,-3.412745235424623,3.762748880322241,-0.43690437396597126,-6.9981345015592265,-5.423288361400658,-3.478965058099744,-0.6733264129569534,1.8577572014791208,-7.006103237073695,-14.954721836299314,-9.892605478085464,-9.350302323486174,-14.332513693132727,-8.763643235371259,-1.9584701262467963,-0.5166369277626934,4.45628388048713,3.8366642951218166,-6.626639825491999,-12.024751495819597,-15.731012540137156,-28.853079526557742,-44.01964516360686,-49.525936072551005,-42.90812067159743,-38.00508288855937,-41.45729872913165,-45.97286021113725,-61.96614997243734,-10.243007992987657,248.8735487377401,498.6030657062462,311.57400465846104,-129.0053931728317,-250.87931387117675,-96.27603163578239,-61.56234612186777,-102.05197411344247,-52.642977383873884,-18.86590764762728,-42.56126910902741,-37.498202919881045,-17.162351457014964,-12.155081308198124,-0.9576747855769909,3.511373397774939,-10.38036207483683,-14.37111569232852,-0.6043947127996372,8.090920434517484,4.388438862630981,4.734264628752752,8.195300736350795,-6.301457895967733,-25.160081757154824,-18.968761817236846,-4.414794095073466,-3.74086445221369,-4.070369183462427,-1.1762631271457575,-0.7496019764800725,6.805855974821554,17.26666311461356,15.65859044072161,11.751700449391214,15.705179269632593,15.59507041059864,8.995576088632436,7.693835753021572,9.6740362400679,5.077821372576267,-5.968186249141823,-20.27913913754734,-33.227466369117174,-35.32097287145413,-27.89424209953483,-22.718629385473697,-19.81840170743114,-14.436437100371919,-10.58301431680648,-7.103676598239677,-0.37229933440854435,3.154490460611319,1.8276879294687527,0.8808122579053617,-0.1496116124959963,1.2338669746618858,6.621245217792671,6.490165364946658,1.1220413051783087,1.4846010056308423,3.8399200855408715,0.637730712590606,-2.0502809708389185,0.2671130197089928,1.9107449919695796,-0.9900430200389971,-2.56784430155462,1.380010393530247,0.8791550693524979,-7.348209651423768,-7.293245556203036,3.495215722657309,10.149198831824815,9.990192419790656,2.6024886190873726,-14.608483899614134,-25.180961736798224,-17.598844724854246,-7.984756117619934,-8.127257569934905,-11.86168171196647,-11.37268750262412,-2.500319054264689,8.45372187992,11.075264569969969,5.991527558379191,-5.974413258838013,-21.12343329043806,-27.45067600801947,-32.487651674429145,-42.46878986220753,-41.562303966894625,-48.2926457858687,-76.53897906292066,-84.15598626392139,-75.67209735030269,-14.282963282262116,256.1844489045539,560.7002988485235,411.32436187830626,-76.33600703858843,-264.6007107368529,-118.20960202733671,-67.46433093533001,-115.06651561745542,-85.2326588924249,-63.72576422141772,-79.65044274807398,-46.19039964878365,-7.285907427088688,-12.922102306086664,-16.47892170004844,-6.148221605136966,-3.7949236814007463,-2.331928018070375,5.585943640798578,10.348906058360098,2.004160716645533,-9.336063234711892,-5.548620934484365,2.7158940617306024,0.8179614600898848,-0.9060878462857698,-1.1046568643579482,-4.740289589226785,-0.985889226042652,7.033045685506211,6.803322569227941,6.869261730390281,12.46663886542836,14.813478645328217,12.491861658578145,6.272793323811314,-0.17021175073662498,0.8614163328547715,0.9216485336021032,-6.090770273203757,-5.666019055171959,1.3710046898592951,-0.5524171855130007,-7.826839546340217,-15.018966947979413,-25.44844723800893,-29.22439737638889,-19.522845700123565,-11.233529858011366,-12.46011167211448,-10.08790889731972,0.7123450863203793,3.7284045572205846,-4.530269821987458,-4.366041227111491,4.461154177586673,3.5067208431684413,-0.5198645977599141,3.7643377819422756,5.570322866489691,5.599144042362408,12.113917547505153,15.22338271511314,13.784992576918903,11.979568495000041,-1.2961089931505398,-14.673120513114846,-8.122310102167544,-5.095784819437016,-17.896471239249458,-15.968698726181543,-4.360937809988492,-12.74730420756004,-23.03815368251345,-15.035243813532109,-6.86123229945637,-6.355398821308107,-8.610092965171056,-14.446763897160995,-12.383276191038624,-2.321929467763157,-3.7788089726340246,-6.491257536021106,3.3992080878958184,1.0601410544041894,-14.58657791073966,-12.419480043087734,-0.4849981517965034,4.389114888470331,14.065954162820141,17.212687217245485,0.3385501372494417,-11.241372129425942,-14.01468450309581,-24.606194930872746,-28.90905693303445,-28.2259126529786,-42.19841698399946,-58.20988495588228,-67.0337034262612,-76.85865394627896,-90.45064032743639,-73.34554279659426,109.21487601158418,447.5012416805936,527.0498578568463,134.98872633257383,-223.6317027209417,-170.92634829943995,-49.666256841501664,-106.91631820528218,-128.84512572767306,-62.20333711720825,-47.8318654103221,-51.15760356100884,-20.718320510885313,-12.526778760712393,-18.872446373400138,-4.599879006743718,2.3373735057012226,-4.7258607710248945,-1.4027943860028476,3.662895885807652,-2.711659302968993,-5.664511163073287,3.8357001812854463,12.479182822364795,10.738765423196678,3.568124628316347,-0.7518783802379936,3.1234560500045316,8.888126060515237,7.131808966234752,6.319577723985522,6.987456935008757,-8.00465808694051,-22.507934391352613,-9.746995031554883,7.358120557141709,8.047106697382564,7.88580325519458,2.2229566352939774,-16.802917089630952,-22.765988135558917,-11.496222143956132,-10.31208615032562,-17.97921633736074,-17.569683385858127,-13.61567476402154,-13.100500136943374,-12.721144893247704,-9.650390779753586,-4.273580812695721,-2.809090291772584,-9.088018110583189,-10.763922974420122,-0.0825890377670273,7.579411663449292,4.386582443120931,2.792110970003727,3.6258415371854396,0.6386080342434912,2.3789036417347305,5.762065803846079,-4.708964376191508,-15.52530789797882,-8.780462389019938,-2.37211094539121,-7.456717932966714,-6.1325633851425705,3.2116173600698144,6.033276484493183,5.137509993473026,8.277466347693082,10.679141942137232,3.1809263596838395,-15.539247971652038,-29.80536973057422,-26.717871803894642,-19.087137157202935,-16.08992153592413,-9.051320786071198,-4.289834197114839,-9.667856690056361,-8.983125212599733,0.7197178037367635,1.6012056981896663,-4.445542225222791,-5.09883924971256,-0.6523255148670017,5.457762134535031,5.624755335673521,-1.3560875221662503,2.788273610528191,15.394531342975714,7.196985491175607,-14.781243602368694,-17.909748686016062,-6.744110979640903,-2.717154957857865,-4.972533711973961,-8.063732035097484,-12.559568916027743,-17.498553074887937,-23.979713260268642,-34.96959727953653,-48.92718627809192,-56.13565250647069,-52.76103689584777,-50.116714098560124,-50.94191148033245,-66.01738006070413,-89.96131626366041,26.321221524864654,364.60982481127076,555.260239429795,249.53725731429773,-175.62688076897612,-224.65900055607247,-91.03981234113954,-91.85679056976166,-108.80370305023537,-51.175965055064296,-37.254249152000504,-57.71278813166212,-38.156188670311465,-14.871968602327094,-13.836195251095926,-11.2742202549756,-8.056705218402715,-10.262230972894415,-11.074237550618754,-7.82774665470294,-1.4803913617722984,4.126661498137295,6.723955583769848,4.879072520765095,-2.8919416883650175,-3.552749581315066,10.75799622835568,17.63321178440802,4.340178291338672,-9.2207642903413,-11.941965551042518,-12.010994326439945,-10.31747789225363,-3.4718115250592714,3.4884413617997616,4.608838096235327,0.980343472632387,-1.1520953492515398,2.868085948202297,9.109576147024827,7.946114495378492,-1.6151414212133233,-9.650815328997133,-12.709771542033977,-13.925998257911314,-9.59848324430861,-4.32956153304978,-12.745530021589817,-24.50725933293353,-19.020479624161553,-8.0336654977442,-7.249388472058412,-6.6324769228494596,-1.9977107538825134,-1.685802639626635,-3.7757858255856522,-2.364221745485124,3.6875386971769704,10.389652922491084,9.029189615372795,2.0468112239142346,-0.8398217350068498,-2.440828133920186,-3.679606032322594,0.3225322779564568,3.1368019973723023,4.722049997266431,8.004973557939053,-4.503702201069494,-26.213229877292534,-21.77053580092091,-4.320912803036723,-5.476201428605755,-5.921751218263438,0.7560259736083204,-11.585761288068397,-23.70006799261368,-9.39341145223042,2.9783053523896417,-2.187862437184206,-5.563336664008894,-8.496059917866466,-16.36994239296382,-16.31588744831124,-10.3408888194197,-10.015895077697088,-11.703690056342829,-10.178518987679462,-7.411189493488402,-6.385488115555521,-7.9891151662557025,-5.944472993672253,1.8505488066881917,1.935597553975466,-11.09363732018566,-21.754933683777793,-19.51590664403232,-10.723270760889575,-5.393553223342163,-6.736580608502386,-6.535201669554571,1.370784290420108,5.600317542210963,-0.7729839936905378,-6.8227277849457195,-10.810566697191302,-21.9016149595725,-38.95759758612332,-51.75600493902085,-50.297726623608995,-44.329197993393464,-53.08854414598192,-65.74277381974919,-77.0426955804445,-56.49377413409901,134.1918284805836,443.5577269567203,448.7660180022025,41.907745300223844,-246.54989310423085,-158.5951892943027,-52.75217876674123,-87.24621030626756,-77.61727875404841,-33.72609232035714,-47.35452677191724,-47.46015967312077,-14.818938751817548,-8.417664077806862,-10.51530705099254,-1.4602346594162015,-3.530626419006577,-10.022221163938674,-9.256810223554506,-6.443886663193373,2.503123937392541,11.675701939837253,6.057167078556196,-5.15878524452477,-5.369569033267933,2.9594367711522906,11.623166284734204,17.514986142236868,13.482099075535542,-6.549842489193653,-26.104188777441323,-21.417624007248918,-2.879998684019064,5.596819729507108,8.67266682479993,8.749301406626621,-6.521975079803573,-17.96543718736275,-3.7486901611072287,10.372543747711271,4.366135913761944,-5.632879269382965,-12.9067214012228,-20.053694606126207,-25.219063372355677,-33.323514642094636,-36.82533363584424,-27.103415362145945,-24.73908877824572,-31.0121601483248,-19.826553832914463,-6.383353920222685,-12.36236226094799,-10.793155675250404,5.001241040856801,6.375609652781218,1.488242145668817,8.848428909198736,13.704004500983734,11.09321615474244,6.573820261659529,-7.6975771996147895,-18.924554716381714,-11.546862637876249,-9.434358100757787,-21.064810546980418,-21.043398710880187,-14.975172134429481,-18.929040610888627,-17.251589089433367,-10.528373760172972,-15.486738336518766,-16.520649970689476,-3.6962690882479095,-1.081953916424336,-11.896109444906596,-12.209859866286468,-2.5992195978941766,-2.4793842027862496,-9.286436785445956,-9.132230762220372,-7.440544978723388,-11.265850908114999,-9.737197083963089,-2.02147975496122,-2.4607267069635945,-7.679326229071346,-5.48336314009876,-2.0589899417084894,-5.2671676495672575,-6.743063442248104,-0.9025250474830351,-0.15273257950689434,-11.619815324147803,-18.849131031543283,-12.866192608705685,-5.788949792528101,1.8659098737403506,12.741253468712436,10.630595193726887,-5.796849555626437,-17.391053561718707,-21.947574123907486,-27.31786225808595,-30.809303306185644,-33.82116443782131,-48.842138678296045,-66.18725164526542,-56.83714987577323,-48.2179840911179,-45.58517659330363,107.39773556980293,401.65644427663125,414.3855506282477,8.275568695333554,-277.5799710903406,-162.85739155557908,-37.812197420981974,-88.91428747920409,-90.99696533809501,-29.199644024862877,-32.28251524531906,-38.25423858840897,-2.5682846713364853,4.098506883519782,-14.192434996085925,-11.835482870287379,-1.690850608662263,0.7090164379466053,-0.4604723187511599,-4.839008018390192,-7.92438276828322,-8.594504818534883,-9.379916602501453,-2.186876016272098,9.739125598809359,7.617603935965628,-3.2321180870999857,-1.7041380079558568,6.2678196292893436,4.631302472457204,-0.009909091080975152,1.553249590528078,3.2717776325999024,1.1956388101058995,0.17787725477649552,2.7756175602733673,6.382199976977356,7.642800805125029,4.625347532991892,-2.151015018506805,-7.844381850537708,-8.362194464216511,-7.706615127203962,-8.387316141592205,-7.005056900897689,-9.974768011200732,-21.24870132184803,-23.097314487597636,-10.822401539399616,-5.402505906365583,-8.515764210767914,-9.135292016885327,-13.87552392106974,-17.341788766633403,-5.861094455389656,3.2100656300347943,-1.7929701794532882,-1.515026956902565,6.168622937199958,8.220979159608586,8.690844621943016,11.332140674141066,17.443957600830565,24.8390670666163,8.046078032208305,-31.131496783201356,-42.44503813314849,-22.827041681845266,-15.899065737783127,-15.28004148585995,-5.362695287999692,-13.677040689108452,-32.84060102242783,-25.902060829197154,-9.834807990681384,-8.842122592746868,-4.067291430587982,4.256112903827798,-4.200289155211042,-14.028959150066896,-8.842881438741937,-4.531536712075621,-4.017357729555771,2.480993544841356,-0.0532628827016719,-16.168546544181403,-17.924463266783494,-2.71460699611624,3.0186944008542103,-0.5808694174114368,-2.4523480753760545,-9.147706641112894,-13.868055390095146,-4.077047352154819,5.764275890203175,5.560451244981126,5.653912466853331,4.912542669238432,-1.3637477844407817,-8.148517351188207,-16.75653379399335,-24.071120492769417,-26.729006556735975,-39.764082309716876,-56.87331934417833,-54.989529320878454,-48.36621533487158,-50.01017549807182,-57.42682912788038,-52.83263991297245,92.0965966116704,400.07403934132304,488.0360512062441,122.03916314830765,-235.57651285830804,-195.02309278037973,-56.71002936008588,-80.84339353803557,-94.41158893658248,-36.64345986581152,-26.94144337548746,-40.356829551677585,-22.681223797422327,-8.55236423539739,-1.8534715692453556,9.80425402743134,11.171259257438958,8.148630767330946,10.980113624191226,8.328458016123092,-1.9235432085856559,-9.234876980841076,-8.272705937103119,-4.299056614986599,-8.220765943981004,-16.62472164809042,-13.636898231525281,-0.29287264966131055,10.343508053438846,17.629794686752867,18.8207586838561,2.3434201771916445,-18.103839012971754,-15.656613384417449,-0.2205816005348762,4.91441175983504,3.8585620535685496,1.0245482732543802,-6.292153209243658,-5.786973963164485,3.5032631437372874,3.738668325444843,-4.8427325231914935,-13.396258590909248,-23.02288386803462,-26.704108133172532,-21.222269149843736,-20.22682049581094,-23.998626462828298,-21.045516541537133,-14.168573273489237,-7.977348270272415,-2.7854363836775615,-3.6916429212803035,-6.279824530138505,-1.292410267123996,4.546285594493126,4.2491956918332185,1.8982595208885904,-0.8582036154418233,-0.7990914161642007,5.990258117827426,9.951048262231685,2.2190181403134552,-9.853378036313714,-16.40588549413873,-15.39313422249316,-9.611156895071762,-3.8857407382875255,-3.356530973366464,-10.068293591029516,-15.750727476800735,-10.609825142395845,-2.00727357351224,0.13595187250703944,-0.9502711809808329,-5.001025751817377,-8.958079621186815,-1.3363161138612343,7.342441336082047,1.8206494005407396,-1.3890986127460367,5.340846263755132,4.728632579132667,1.5366176844072132,4.203543677882138,-3.5013415277283197,-18.043158361080096,-19.38727119686888,-15.329408445371541,-13.648765275571991,-4.19407172260467,6.362396238332959,7.145969380971441,6.108269282731028,5.2137961729742965,-1.836618091516268,-10.520261387785911,-9.384379362508646,8.106333540155202,22.057136122102392,3.777975482658377,-23.22229851292653,-23.105297175108028,-19.170956284484685,-29.235377858196863,-35.80966773005508,-49.769843503772364,-75.41920503718526,-84.06111546712816,-75.2234576074889,-70.10405261793528,-78.14208228339405,-25.75210587301541,233.1869841191897,538.5148759711022,427.3740272118769,-38.67047503393981,-249.8335810947805,-116.47978440150615,-61.08961356896098,-113.78984257385744,-76.43406397453472,-33.074688937372926,-50.61492369689478,-36.81997393087375,-7.89746476869848,-11.898800316075729,-9.519518408726908,1.1446308313668156,-1.7300817556251875,-1.8288855764022358,-3.7770313324555254,-15.003975246211589,-13.70646771905242,-2.607251162339935,1.0032517914649013,1.7243676213973202,-1.774239017130336,-11.56275774474041,-10.765825422743752,0.639352125363815,4.066346861198811,1.2960071586749464,2.7723302559821024,5.283138002264957,6.766096546295859,9.307160993826393,9.936511374885335,9.421029918288395,12.667561015241956,14.432322792653832,6.3915374275532635,-4.897362960953114,-10.194391083482898,-15.142860971055052,-22.359533444795467,-22.12436462195926,-15.75511915512444,-12.566664890562793,-11.474966599207107,-13.75325391878983,-20.764091112719633,-18.76623299449388,-5.301007906444468,1.2880523543708655,-3.6121979675309603,-7.848014678167996,-2.1913744895431666,10.207279181425475,9.03241119605103,-8.608783946169819,-12.967347370110708,-4.335488053499171,-8.313878480754795,-8.422874040321947,6.429543051011272,2.601257434361333,-18.1765774080272,-22.394105855239825,-16.25733010771675,-12.945204974566154,-7.014392669037436,-5.996047287161643,-11.479879994805927,-12.345485196348045,-10.350444177070504,-2.405673619950612,11.057944799787164,6.343446385928235,-9.07445592124988,-1.6274645056878771,7.859380966672075,-11.61004904947593,-24.737741596371755,-7.071792051414379,2.665098443226281,-9.611211545991893,-12.899762514181079,-5.763250200058195,-5.620751068288923,-2.9251702775996407,3.7176796718218057,-3.222038779796158,-12.164515360874088,-3.3882570069950457,5.786212256182351,0.8013311673176879,-4.197158895429643,-6.108770613719791,-10.510194115278857,-7.089033828153433,5.763093849120173,14.059518329178324,15.556975953767708,14.47047410495309,5.004980235533338,-15.390328891763811,-34.4648781937359,-44.043319383388194,-52.620655432139856,-61.56334366502029,-63.69259239175078,-64.05808704046737,-64.67662842116874,-74.45833883634113,-73.22227558963797,85.99038222118779,419.189304242933,520.4242495514075,153.48550006151314,-209.0860088470381,-178.7310157565425,-57.37435823863708,-93.25321992181284,