ECG,-3.623993891498362,-5.882457451711786,-4.643231639445199,-3.512055844441413,-6.665510636751911,-11.444582506237943,-6.44639293484804,9.824985055087188,18.173717044121904,12.073569280605703,2.814807008586252,-11.217467259574944,-30.077069300777897,-39.99963614951429,-32.57103657360507,-13.70711111318402,-6.380719746759375,-4.498851894608745,24.294977512890956,46.214761707858706,74.27695475620989,231.0048226405296,446.51130473039535,518.1026601516337,391.78238753143296,-92.46442759434066,-916.3176702085736,-1276.2725077639273,-708.7941745504932,-49.97090054489951,90.36137848486177,143.91295409849033,277.2653765753207,231.9908894491731,145.0325381561571,163.20152785593442,134.50281238918632,70.42105400683094,64.49173499555381,48.85712467900364,8.524953943942617,-6.242973246246894,-16.264445847829325,-30.149060955151956,-28.86848513651453,-24.266601022009095,-20.87962046072831,-10.09062737308412,5.568507503073874,26.850030385778197,52.95541165253512,75.19628777803348,89.699145817872,95.21911446704814,93.1810239162901,87.9420871620504,75.40730957331698,50.3389487309991,16.13084431243822,-23.30994423507507,-59.076955713682295,-77.67035175430703,-83.54544112691664,-90.59544295619149,-93.22999707502825,-80.91354494955007,-62.30001590356709,-48.34551518123192,-36.30459832463462,-23.92696984802231,-15.276431331282218,-8.460412933875023,0.7475836023327123,8.949268113779649,15.286758305034901,20.738592885069703,15.00447173211804,-1.7167476327047488,-6.644411393975778,4.369261023537227,10.200863731096652,6.629494217250266,3.512513019076101,0.8723695849172,-1.135115018258161,0.43524190683094766,2.880872579561632,2.9598225391907054,-1.4107145742101572,-7.71031038231915,-8.309327269387406,-6.568643871555455,-10.314249657556084,-13.406344958418112,-12.127143099443934,-12.347461435381772,-11.03655699125763,-4.8866830681449,-1.3215762728514893,-2.717740691714649,-4.816530684192422,-5.936555889012923,-4.1719446085843535,-0.15014387560720088,1.324727183069883,-0.5937380926438394,-3.503409054872213,-5.335240590871045,-3.8044915978984655,-0.5836021414882788,0.24476751861173085,-1.2554976420260138,-4.023176489785915,-7.606685462098116,-8.40625930453226,-5.14650365723535,-3.024050029224095,-5.177932039036827,-8.972170623475977,-10.940047387405125,-8.650406460254851,-5.73233756062154,-8.11268615989724,-3.875282432017997,18.1912068621507,33.45514011445485,24.666995598781583,15.082410552280937,7.740578962785947,-18.00816637044752,-46.60059559079639,-49.10252779454169,-27.503659534099818,-9.751937000682855,-9.049697880562128,8.859196959848918,40.53854248604436,50.9324886579613,137.63750345085683,350.85100669277773,500.2774447476238,471.1982248638441,187.70732958091898,-530.1255887074157,-1233.8124579153744,-1064.926323433148,-302.469654485402,79.84405216942706,110.72180774510062,241.4874693194161,298.6313591493921,195.05495951701204,168.6345794907597,167.14526918322906,90.32657359367029,53.11673156399772,47.55363103934358,3.840686423121216,-22.313087321534056,-22.237247080849937,-35.5229930785896,-39.82897241047728,-29.408590328341685,-24.129479342306105,-14.497983051984582,1.9913441994000287,17.79272462490372,38.885974806628965,63.146299921021125,83.24447915167049,99.8553693846265,107.8458578845943,102.35343102776731,89.32013017308077,69.82029774151982,38.279461726332514,-1.8506954511313762,-41.07514062179666,-72.7880489375021,-90.19089650750514,-91.27446443932287,-85.48867599771323,-78.41678730775502,-65.27125612589356,-49.376382602234315,-38.633445277687905,-28.556273570928106,-16.675669383467415,-10.393825447070004,-8.37289770773635,-3.7153685772208966,3.678946021670786,12.14979553874979,15.844198585949977,9.157827865424897,2.2151498297913825,4.9479734466961345,9.845711014772949,9.591416490214623,6.3461308175908275,4.042314005935141,4.67209794327465,3.6281130771828325,-1.3794966217209579,-2.20256012096321,0.23669850891057376,-3.766309338594943,-9.221601126005536,-8.29736130744814,-6.17024931691241,-6.031291297835223,-5.886785731714044,-5.859732939489989,-4.058447378900757,-0.25972136386707945,0.4617677718485904,-2.5522008113984533,-3.3660824186072604,0.6741576086454026,2.7960978914292136,-3.4528750975176408,-10.602058924884108,-9.774217615808482,-6.352812790606343,-4.57862790867745,-1.1537907298798382,0.16236435673985028,-3.0562982404773162,-5.516153958744681,-12.225172437810564,-24.148736836388903,-16.822035042514983,13.42060623292713,26.133248521341052,9.674975402201287,-0.5693400285746,1.0370320108169349,-10.94231485737538,-33.1613230035272,-39.42771713355576,-22.238504190371916,-7.214538744373357,-3.0592919990098437,24.14947262416277,55.05368272277657,69.39296665341921,185.9283709358773,421.0912115682358,556.380886108261,457.56307956113494,29.445231740310874,-764.1603412324986,-1315.8193345843306,-959.1368118430745,-211.13938533330386,95.8897242789702,139.4843484886353,268.4440363487921,290.3356825901079,190.95947149402429,168.49583447739928,156.43317337521884,95.52241537229617,66.82555811910746,46.42700071186583,6.001893123551749,-10.222030406105922,-18.239239290098435,-37.123196142113116,-40.03792488248591,-36.27077613144034,-37.627241777597334,-22.445068645506993,4.985374551560042,26.32468295048153,48.74691366752484,76.25080534380345,100.82266027884344,121.81670810463741,134.2461609709514,127.88033116083587,107.45701752596324,79.31671755411381,35.00808634571102,-22.064587863209116,-67.1190943203467,-90.97074603313355,-106.47690362847385,-114.75128058710493,-106.0958875199791,-84.61221562908982,-62.734459180934,-47.765788771812296,-40.715558632021825,-34.288890493210914,-21.461682896547426,-6.556437825449059,3.082953045844363,3.700056848067451,-4.09670781154102,-9.131699611347347,-2.5148069921264646,6.634501530603627,9.264083483872158,9.485771032141336,10.490027277816695,11.171586427991297,11.754433231870902,11.90289620112506,11.192887981701169,8.236372527001565,1.7312339617710095,-2.6792541659385485,-0.17580008249600887,2.7726552527408312,-1.457266398547219,-11.427326735970889,-18.505557716562713,-15.190816195140545,-6.7190972763531285,-3.5611947541792173,-3.8362874904496476,-2.7613512610903364,-4.093205590170431,-8.979443411725402,-14.632410271193075,-18.820679898190438,-16.28313390896684,-11.846605568227194,-17.45785949193653,-16.3278932706841,12.00509202715663,35.54078295698238,23.046765592965905,2.385246497892216,-7.230219649851586,-22.015213369409544,-34.09968557955105,-28.815131665745426,-16.630590547111296,-7.4543413694391525,-3.788281258009185,11.504050032756034,45.7764524634677,65.3593343836348,127.0316610426812,327.78135486162563,528.8478857840107,509.11018921042483,195.497788561078,-456.9585616042437,-1150.1996223586584,-1168.8988910691492,-497.30750224273265,23.361002272331,127.12966646022794,217.42061989766776,301.6188835968235,225.9533025582058,164.861329888486,170.129382102545,122.34825061059438,71.39819930947309,59.168163202879406,24.89125654211658,-10.043071415242517,-13.75112976365509,-19.38766593456463,-27.8148514811654,-25.258009369054374,-22.664227792916265,-15.484514513883598,1.4514798387928138,20.507251913753702,44.67193175800266,68.0564959655148,78.3959998437299,90.29770376475719,113.07741064665797,124.0116855657318,111.22162044256689,83.70528235220462,41.94651684913421,-10.797047987408389,-56.41053552818828,-84.45418770047459,-98.83171519805764,-104.19920031342923,-99.88571254649864,-83.9759453319693,-65.0293362862672,-56.1625497474114,-52.455649031020144,-42.40727327052494,-31.59604218038715,-25.046699706574447,-15.426763129417193,-4.868852680375774,-1.7672127393132087,-1.1787863546074497,2.795409526783713,6.394808412362793,9.556950419045965,15.034739428416627,18.344829283077367,15.933587985336942,11.943947772927647,10.591779247069681,11.293913607595641,11.054876902123326,8.181524721262083,2.6123855562521276,-5.978092164662675,-13.648334396396447,-13.420079429090856,-9.057242695750457,-9.530242462409669,-11.522439491994454,-10.254463649346068,-9.676475086601698,-8.61310197397048,-4.509457907157556,-3.6852439223689455,-6.616126962171057,-6.2967902753410305,-3.5960405351450397,-2.4454104013667086,-2.396068345961294,-2.921038543755337,-4.35776934931925,-7.053809644259336,-8.147497787340061,-5.220862689900215,-5.255208644049976,-10.369867254616498,-13.838267797224768,-17.020699471509037,-9.693614463599985,21.12107856566826,40.849311217206484,24.209422853964327,10.021879807485167,9.461702240160234,-7.425140979251963,-28.548793465360795,-36.02882802455547,-38.20796166905999,-32.82115540009983,-20.461193074357787,2.8428472119187216,32.30484917382192,45.868562260043106,123.36345548623098,333.71688761025837,515.4075000403571,503.7616436678251,209.54107461774106,-487.6184763123866,-1185.5730801875168,-1089.8763745632355,-374.6248629849796,49.49814155095406,106.58352280645468,220.8913835064744,283.870214625797,188.7008091428994,154.53642400068347,168.51882221028544,110.49502626173258,62.52381584981431,51.13829127105332,19.148927462117896,-5.256286253464209,-9.070005417860173,-21.14631311972044,-30.36141350474196,-29.7855681269103,-30.842942886875075,-25.538575660146094,-8.704687457084589,12.099112376866294,34.1266966686812,58.34894572365888,84.57247281462925,105.22740708107483,110.84176926937005,105.52480094353744,94.7827566952955,72.54638410875725,36.850428393484876,-4.704873027277761,-44.49544501402882,-75.2967319068054,-92.33870719792093,-97.13042240025426,-92.76809384771309,-81.5377384085182,-67.15263426376464,-53.62255125154877,-41.951511531264416,-30.035187293694378,-17.9454956463429,-9.218774683631459,-4.57924321199463,-1.6820446144123906,1.4372949472811243,6.976878217703204,12.779974124400844,11.686991689679889,4.659411285471037,2.023017664655499,6.974885271001453,11.962273044088835,12.86235313028504,13.150408026196565,10.437042498655083,-1.799009354664605,-13.543792485557343,-10.384479347362728,-2.4360173294054572,-3.335766524188047,-6.226089034226144,-8.537069923598878,-15.432613116668442,-17.51945979515443,-9.975937399063389,-6.507233954323926,-10.572872258235579,-11.56358449879031,-7.8699677658653755,-4.73446947038272,-3.2793267474033136,-2.8445355666909666,-3.5292503463369975,-4.935529512522755,-4.4400891708469,-0.20492570146466527,3.285585436329013,1.7818628343420544,-0.8270290239155695,-1.6642367662502444,-3.7682769203520294,-5.243598571330178,-2.0830367325778782,-0.7273621356726263,-6.077014387564106,-8.945558796909705,-4.841337987409007,-2.071612475644561,-2.9468706788329113,-4.478990640024558,-8.105947713076109,-10.555371256806119,-7.955886768035781,-5.582709384058424,-5.607251736868143,-8.46174758800788,-15.653595595521406,-9.05311641367835,20.555911723751027,35.93006529579102,20.50599552002645,9.935078465837815,4.961026070313295,-19.045274393139945,-38.16830510385407,-34.143036923991176,-24.56240393901185,-15.369658703696881,-12.482910797695226,-4.172838686749756,27.459507051280987,43.39702372107981,83.41688044208148,258.0698471996998,462.336849181954,520.497294119999,362.69761736961436,-204.0059598566586,-1017.9583754411624,-1216.1158397872168,-575.3293761762122,-7.751604822167444,93.98148412732809,185.72139712681917,300.34370045412766,220.05029023485992,138.85103226391425,153.30099075355494,111.10916051283805,50.45886211976055,44.61592741783077,23.523646799833088,-11.800091552998236,-16.10142283312965,-17.21185486164881,-25.26040788311457,-22.528707318946363,-19.941752367809997,-18.787994488605243,-3.912236627079917,18.536874209490833,37.0613087199729,55.082176904444474,73.02153934087391,83.29444633835585,86.76344590409018,89.86285732197337,89.08545624613106,76.01812994229613,49.407275896908445,12.791281426841241,-26.59860128720245,-56.42423753363005,-72.58012805908231,-84.35926951038414,-93.14258992849709,-88.18722759068189,-70.92261904824773,-54.10468525395392,-41.46224068142401,-31.94620033367019,-25.52695733113773,-17.142161131681622,-5.876539243559449,1.493997430887699,4.233689532321087,4.923518263616785,3.383479285160371,3.9074567967900133,9.188456858362187,13.956930759921715,15.294663444891167,13.176651851690465,8.250668865980764,6.338488081717148,7.491285235037588,3.7766139487939987,-2.2197346661051744,-4.163230297303248,-6.63077058282529,-9.505584685614261,-5.626594220225663,-0.30126795172595333,-2.679219680754189,-7.507822479322405,-6.844381203240717,-3.9574420780984667,-3.2710715922516265,-1.712435303589956,1.1330921398580287,0.3690009193958197,-1.2675051846391288,1.1228293881665037,0.3054225087146474,-7.876315666218444,-12.43679997129267,-9.083234256408533,-7.185675549447593,-7.974093458186562,-4.613040908793049,-0.05555967608268553,-0.4317795561605591,-2.702945049182013,-4.5766147692406065,-7.304739882787074,-6.154516849790005,-1.0222525637763775,-1.7693981882611602,-8.434233932434186,-13.04709005238764,-14.17321905173189,-10.977794652531355,-8.018918893531854,-10.073405905512223,1.0843315904266158,27.747798841586402,32.575121111569736,15.044085894992413,9.898082638172005,6.337029812266092,-12.048842119221,-24.698260670756504,-23.129183984975803,-9.772009427432103,0.8891027313714304,-13.015806087522702,-16.142084043052975,9.612283350751884,37.777084854580636,150.78103080764157,381.82571117246664,544.4433442670271,494.6209945368128,111.01305372156654,-672.9980555738808,-1267.0212374543685,-965.5383106010017,-235.87183451110013,76.876547497766,116.47467919102806,237.1691959569519,262.8759639882526,175.58872407640567,164.24447368970357,156.59818837691654,92.7583484760067,64.62516597239818,54.37916193747137,19.838571398519168,-1.665873876534322,-12.136025829836415,-28.31436713738737,-34.437232382638065,-34.889912606320706,-35.42300868392928,-23.463106351137547,-2.877801754676252,18.48245143408255,45.10224830918434,70.24621140784177,83.89255332750956,96.03894235968845,111.75621625603787,115.0008421875134,102.69886558458165,83.59910414181522,47.341918335506634,-6.606720873854098,-50.35386341923197,-74.07978120037745,-90.19759233264335,-98.60220918547037,-95.40915762089396,-83.3548767771932,-64.36057508866222,-44.78533551367042,-31.590292249121923,-27.12728109738289,-30.87511720883667,-30.345418455963667,-16.53359515920487,-3.053981241859354,1.7918297896265827,2.22912651747799,-5.1246796571357365,-11.894493669608456,-2.5443312792179196,9.579393418693751,9.571328456155552,8.272001032668651,9.81050587089999,8.424454511818425,8.595550510282907,10.886795737039144,8.48044573390612,2.026659884869357,-3.7234249166008304,-5.37705574394543,-2.5177700970594756,-0.7957941526729018,-3.2698516894574112,-4.765822686540851,-2.800946219592946,-2.6960092980128785,-7.214360711083091,-11.102080097743308,-11.067322293849813,-10.05581904594912,-8.043397154730448,-4.135497296539471,-3.3918399541083026,-7.492482627363198,-11.072838452212588,-10.897723326870596,-7.790087569767869,-4.235912123351424,-2.1680939087405404,-3.704088574695362,-9.998599244486524,-6.347400907446607,19.880792390753637,38.11693940531183,22.20230746304081,6.163800985161494,8.270918156451547,-6.713490990556465,-39.157880004732476,-48.28181446780805,-28.62870000668262,-11.517651686842495,-9.423050817360668,7.040308144164975,39.22312367916002,52.425509099915786,123.2735145719767,337.7577823790016,539.3271611038615,520.917233120526,193.02026789018333,-497.6981893133153,-1178.637626428701,-1129.3766100959588,-445.8455485913084,29.717450801536692,125.76515220009458,230.6421064399791,308.4146993992032,232.77653560192707,171.83111766485138,157.49663604356462,104.09112056529054,64.08423343331572,49.82755622512623,12.433536395240019,-17.757391887837045,-24.11654033569998,-33.515801432205556,-38.291972325986094,-33.85183661472476,-34.20925280208219,-30.72428181305871,-13.678210726957088,10.160650078911534,38.310143703985226,68.9465005507677,93.77502293484493,112.24243050727037,127.37290620297672,130.68069001854775,117.77208552129943,95.74294742472225,59.360878986610516,3.3558181059579537,-50.51585952121799,-83.0360913147118,-100.04077335338988,-107.47589577748897,-104.84458813426151,-94.03596498029242,-75.86580052240376,-54.77403871122416,-38.44934482504374,-28.411582259699287,-23.23518084322444,-19.640296184608452,-12.81353564635928,-4.511886391129739,1.911342049242581,6.429794286549189,7.657276028006058,7.677542539486938,8.66563077903653,6.627585028999338,5.160397195964373,9.784169323751005,11.239440444519452,6.251516312390674,6.389518662717929,11.813860178666722,11.794099124910598,3.3518825477006846,-8.188839809802133,-13.531653532097536,-10.07756907103274,-7.032658391086494,-7.84804371964314,-7.749612776004242,-8.169377927801865,-10.065823135666903,-8.619201806439044,-4.4248821627226675,-2.2189925861028463,-3.416874237134829,-6.194795602510499,-6.219869593196668,-2.2830664194936956,1.2996561934444122,2.492360804432929,1.9911687162471017,-0.23639633376105884,-2.1944243968062676,-1.0010962660823228,3.1328490094696053,3.8452951504607062,-6.873989696523918,-21.68788047796462,-23.99548173899138,-15.243434415471405,-7.713887373055453,-6.544120945745708,-11.618846396789458,-8.132353993056723,14.176319741198856,25.883863253626323,11.123811731259519,2.951447145684322,5.723772451521116,-9.491229911370178,-32.5271573594736,-38.45248960043183,-28.415153688923944,-16.791754375607006,-12.525006780573058,3.390563442827153,29.42833340368822,44.18932258227044,134.44542388983086,354.36684274771653,527.0318472647085,490.35832122739146,163.35203993902064,-533.6278766217972,-1170.2931416383303,-1023.1795660535558,-328.9073481624109,59.57747644921212,115.67340357133102,227.5618385112057,272.4904307616567,169.71781141276534,137.92550775257286,152.01164457750005,96.72068438366534,57.0407495410045,49.615254825393556,12.037056576530029,-16.292627625621165,-15.867731475712846,-25.326672522168476,-34.27715424592043,-28.49658204514412,-25.633836560804845,-22.657909486533097,-9.633922946548498,6.783968078533292,26.103190386190597,50.807171844472066,73.7543534292916,90.0152033619345,99.8083898309246,101.86263007394476,95.0956108128693,78.25446464441494,48.86314067214969,8.802829814200745,-32.60429716902138,-63.483845843430544,-79.55651760879796,-85.80075200497853,-83.92035826382595,-72.89940529564808,-59.12493145481402,-45.114876195143125,-28.597481557326567,-20.561415334336402,-26.66690130245139,-29.397725065131446,-21.34359162557547,-14.010628356613964,-8.804232609918937,-3.004269664310609,-0.7434464528062019,0.9144214954789156,5.3229455670854735,7.373673972953232,6.5960074536132165,6.2772020411864755,6.154787572179821,6.33188402724109,5.707039016792138,3.8008169623007495,3.6058705454685818,3.2071856432685553,0.2999945354456699,-1.0551805322366867,-1.9347881773413143,-5.347091596415092,-6.729629685775232,-5.578727831910275,-5.051081550894541,-3.368885750683842,-2.265398404924552,-2.6035520954602127,0.1387036467327487,-0.2692614854739208,-8.716748834603555,-10.816067917463096,-3.0566493264790786,-3.0390010188648926,-12.181632788656668,-15.048896677463716,-10.343169898123122,-6.933832505294637,-5.636113639837918,-3.7720440235684993,-3.253473028886898,-4.791453128204175,-4.120455522034398,-0.7391227636211051,0.39039020532651847,-1.0764285373846363,-2.2198224104113162,-3.1752707478906306,-2.964501616581556,-0.8283956834445352,-0.3711014233692129,-2.5054832663746263,-4.020508888820564,-4.170317906032086,-3.7940664542792524,-3.3646186378400307,-3.8252504856840464,-5.5187759129659675,-7.638339161201172,-7.730648162880565,-4.4890702899880335,-0.8412036052106737,0.7340678522213482,-1.4617319110923166,-5.364420227616742,3.2141016695037634,24.050310941015972,28.72461713224931,15.04383945326023,6.801985899638388,-7.3959157534924405,-36.04683015197105,-48.70286160052551,-41.52521844706888,-32.70035256407567,-23.025544160086298,-16.76919283601121,0.11715555334054528,31.81473729117452,49.20801913125696,125.57616099927195,329.7934516518241,505.05290621146423,503.05814568393663,244.3820496695177,-421.67958287549834,-1137.6595000242257,-1095.0066658579733,-407.07214356772386,27.938693954253228,95.67296355265913,210.39696614832033,279.3092357511575,190.37529914795851,151.64263387466679,157.3207122153623,99.49971782312738,58.98044480312119,48.42888500761272,8.87929207482626,-16.60753104027604,-13.76762060928033,-21.89346158699955,-27.88133923066946,-23.143545128433544,-24.934294342763913,-22.344633937520193,-7.302635261279084,8.546954569496858,24.86444252493159,44.01456418682214,62.54996247522758,81.16601109631895,96.06861503198297,99.75904718847582,93.45040135338493,78.30438832299394,50.70633291393763,14.46072862937773,-21.356776879890358,-50.52282840715518,-68.49042752338732,-77.11825121511657,-82.20655733135875,-80.04552581650815,-66.14793054652256,-48.05823771164854,-33.20537933792397,-24.235477494845966,-24.089807681964032,-25.579877996234778,-16.359908534401573,-2.222092844437272,2.2741081304745148,-0.452433674772001,0.4624560933751134,4.6007407141781105,7.606377934119513,11.422766925896703,13.805304902983309,8.360507444912969,1.641439692359226,3.6446698366988954,8.146192521135973,7.675987652197071,5.206480568556345,1.5438711061420929,-1.8514956416715984,-0.8842138162344422,-0.012693787513706756,-1.7859305457368015,-1.414002512175331,-1.202995062653189,-2.442409893684669,0.6634741642950612,6.512624058202262,10.691871310778112,9.89215037050958,-1.790149019176317,-15.60354634876331,-17.11529267821295,-14.787809011861277,-18.01422388431773,-18.61793819645751,-15.212758003329753,-12.575745378214963,-8.461532494248981,-3.5116215340277463,-0.10124593946468785,1.2119174100595238,-2.1635060988443344,-4.9327632174952125,-0.07996794550891106,4.275873979974089,1.1501924292015575,-3.3248837154872737,-5.303399478628715,-5.755527392461246,-4.7566691274127155,-3.061562188013381,-1.943965215206231,-4.4810461227617004,-10.009127213301788,-12.408770292910095,-13.969817471291293,-11.68994182931405,9.682279234214144,31.19979784997298,20.53164435900327,3.4441643184018726,6.8266820510861175,0.8963974197694293,-22.156397299645885,-33.90518040887909,-30.547793356780303,-19.90559871101627,-8.5149395697225,5.161241810931303,29.23040850511978,38.87049938559271,73.74804071037286,244.87206081448494,465.61816422659444,532.5844228017669,365.8266156910693,-173.80551583389183,-974.2911328644185,-1253.9609816375894,-672.9566152278927,-50.61328664385145,91.67044182712308,156.79731364634088,278.2784724750748,234.83281643999374,159.87621543720687,175.80830880820199,144.51219049671255,78.25756079302047,60.997176015665204,41.56390344299332,13.69664926009133,8.680126775098776,-10.809298828259719,-41.86791833959823,-42.90621930420077,-34.43162023209549,-40.1675722108246,-35.540941152747216,-11.550120097579201,12.504905733024032,34.55976838644965,63.0919919714226,91.4581870674421,110.52761213810851,118.91140522164518,115.30773292067065,100.52433689183849,76.2790803651143,39.2318928037615,-8.203708882193203,-51.91709894415609,-81.13693918559139,-96.3339931669459,-100.07292303790162,-92.13315987905769,-76.14549150546162,-60.61739564491759,-48.99937101545942,-38.19113005338682,-27.36165311380865,-19.017571825219463,-14.05223024595081,-10.583944762763352,-6.1728012869042,-0.78549743663946,4.609867644411393,9.87240900466338,12.29292113962849,9.717193188099117,6.678917203215711,7.339625441709083,9.51402709373647,10.567257378323127,9.98330840204861,7.878062238768138,5.347682375697392,3.4045764323334766,2.2417402149587957,0.34816612974707706,-3.8997444223204356,-7.070309517514234,-6.364379757792666,-6.09124590069002,-7.522423889267644,-7.516534971195009,-7.894512630851052,-8.852526232814917,-7.138497482375932,-5.261965497968299,-4.2285415765991985,-1.0800359750640478,0.9737221206495787,0.8073304164279094,3.2597644625041413,6.186073363211758,6.607111220801529,7.535646089359693,7.197450690988422,4.717073547909688,5.650862647463308,5.718638109525651,-5.1165671304076135,-22.677083297584886,-34.28160649112788,-33.38031551094801,-24.201158959678185,-17.63347161307098,-14.59301835649951,-9.275919977677777,-9.50630018131288,-12.45798424610308,7.612362331807679,37.196048617637196,31.148444321472773,5.0738804537212205,0.2210335163027528,-3.2382547772264343,-26.771288404206434,-43.67221006038565,-36.78026156175527,-19.87330438640543,-12.30256377715262,-4.534998779516755,26.181462829605415,46.54509329114002,73.58962506537351,231.88180619386577,462.9166292893972,537.3015609080541,366.3176236390858,-140.55075079742969,-915.4209669803214,-1262.6837924861773,-754.0201309618166,-99.91881372153458,95.81154601473486,162.23555241583816,284.89041016485356,250.8906581295386,163.84338093801546,172.93065813767407,150.0568756470838,82.48329926229944,59.96549963505334,39.45090482757496,3.0807434259966264,-7.680371647476296,-13.318540561130671,-29.150919839307548,-36.00570954429725,-36.38100474909588,-31.429970347036917,-15.516172551801297,0.9484437747152299,14.715624430364237,33.526208661843484,55.95178304589453,77.65541550024079,97.04346518794763,109.02570558680415,106.91286836665302,88.99308878425022,62.77915290851942,39.185744123887005,15.98148071409102,-18.580024751021625,-47.773795974682656,-29.99464681585345,12.391573542095102,-13.104021378301006,-110.48508723833686,-163.98858434601792,-131.9947496492575,-89.88988830764069,-67.66816705498863,-37.96992342050983,-12.296030086687615,-6.7688647981355174,-3.4083382414913537,1.950762737140142,0.8260070123445793,1.8820900418571682,9.585193713218475,15.093103907643862,14.7329913065674,10.542452605752105,7.065349882855797,8.551136845248369,11.295770719703103,12.202522046444631,12.48851236955436,5.660702645787047,-8.861939575585028,-13.524118781243574,-3.908306216228004,1.3934671352321377,-4.819453251289406,-13.276530687147812,-17.767157325219205,-14.466018531301582,-5.060668458023754,-1.5681374132622263,-7.263269034359055,-10.474501356204966,-5.569600298286063,1.2019293478013093,4.222225495449557,3.2696277877225164,0.12579880413472555,-4.235476097562907,-7.728558331201587,-5.97020879332263,-0.42816172104372985,-0.17875304464542463,-6.853716069961216,-10.807208622136649,-7.607886775385282,-2.6451137838985446,0.555003978292623,1.851544621453514,-0.06262817674741417,-2.715987655243033,0.07946094385364999,7.3740631174300155,10.891470870370643,6.8842241877703145,0.14040638138878947,-3.670499027565463,-5.68842791000955,-9.697362766870434,-12.153387044633837,-9.348856296561404,-10.561296591546274,-22.135312265719676,-28.334879525891864,-18.138437750618042,-11.16630056873534,-16.60726006408482,-6.432332702397525,21.181760149414515,26.240386993785126,10.835188425825992,8.36380032387957,5.052150081695205,-16.318346155989794,-32.83309690656013,-29.746260660684648,-10.875358804638076,2.5506503449121993,-5.670594233027998,1.9067341977635808,30.414034643219523,60.059649533512044,187.46335386201582,415.3189895709593,526.8854164296447,416.0293831914338,17.81371557352395,-723.4374617902578,-1249.8603171006948,-914.5684944207812,-208.8166772170103,76.97480968927854,128.09844407055107,260.9696148655742,272.48388741574894,173.3423985437036,164.04798988154593,154.28937695906288,85.74821728603943,60.60329621359334,52.53771793343269,14.863927428542798,-5.150033973844822,-10.579582287820067,-26.103152414022535,-30.250118640618595,-23.72910783683271,-21.8152942258007,-15.997558963809988,-4.682806488691732,8.579080857327114,30.417172383872938,56.09739379808413,75.40514419655631,90.62033352619396,99.68308781515768,95.97112322657797,85.89298474820812,72.14141545666445,45.40808633207562,8.008275173084126,-29.451257710920604,-61.43952082864513,-79.18143242849322,-80.75389845194823,-77.15831600615297,-69.9095605206924,-58.66493238635892,-54.087745280110596,-51.867597292873704,-39.236181738241385,-25.22163315939109,-19.058880137374487,-13.092088893441506,-5.608791850193086,-0.8849600500177033,2.5212828860834193,4.947082097695931,6.401532407119001,8.913130100850307,11.286577755398985,12.386579824516497,13.157784309575177,13.672757168070103,13.813436684080086,13.24267529762259,13.15636938926242,13.011817631756958,4.92871485190685,-10.260390842671995,-16.309347375842925,-9.99944527758326,-6.388147345750697,-11.374460978937037,-17.818734498240573,-18.534542313307774,-12.124866734054397,-6.140107653461152,-6.3682783128055345,-7.0372595378939415,-4.745165499483422,-3.6079647384782465,-3.1519861943772973,-1.1009788889859085,1.0052725876269575,2.8954420061081434,3.1500713067006965,-1.2051613775768173,-6.362695788287789,-6.844408773583327,-5.067389229005202,-5.3889323465474055,-7.128282261940326,-6.826349444210765,-3.0177872509319137,0.32152710274193463,-1.3761846131827218,-4.445063260719516,-2.272891946416908,2.7444067749115755,4.372128558616393,4.591874593407441,6.568749959172392,4.789397053813847,-2.8112359522067294,-9.049567394660217,-12.773091254099416,-16.756737795394653,-17.160100018127775,-14.670934771123811,-11.80034133710155,-4.004436958311414,-0.13568475097958732,-8.410136190871526,-4.976549664512328,15.828566995870954,19.62165856538287,6.3859860327030376,0.5557164301968194,-10.428637861520263,-32.04337757389785,-41.808148051775106,-34.612690115806124,-19.199609013528473,-9.779329934440014,-4.1325345988850515,19.83193712104249,35.09133901933242,61.1172331526531,218.0504352644943,437.99082415996986,513.3806726686998,395.9695976063707,-48.48940375448109,-838.7032886634402,-1242.167384816559,-741.9092504277377,-80.1562006398118,86.87882036928659,132.10016691452023,266.8910504880504,241.83426024809629,155.98201168561516,171.99828560827734,145.26232091213237,64.55874364871813,45.24270464859181,39.35851498390346,8.801410830311656,-3.6827523771253396,-15.113647587469142,-40.060961677403654,-45.10836955588713,-31.13586748317509,-21.27381390905807,-14.86051469136733,-5.267923075789017,10.174780898769544,33.64634747470464,60.721656979861386,84.4757933853709,99.77582640636291,102.5712073851814,97.01017092695841,90.25339501008266,76.04039656700922,44.302412767615536,1.1908655172291942,-38.12897389516221,-66.01638787977345,-82.54952737872453,-88.11703297626522,-83.87206398081193,-75.38417660735882,-65.4221291936907,-51.35255109812947,-36.08687743230811,-23.72654244842925,-12.908217537531787,-8.910987439846242,-14.428321650945325,-14.9372394833435,-4.663334266770381,3.609447440887317,5.411315276455703,4.849312650371257,3.4648310174978754,4.975773938842181,9.349089916782535,12.927506164355918,16.066192931815127,13.729000228937753,3.7268584730397913,-0.20706588291435368,5.2082311791576315,6.47427461141646,3.043885233207502,1.464205869438175,-1.4801697388665485,-5.359245424105539,-5.163567626978363,-3.5352039730679232,-5.560665168794518,-10.217221574689681,-10.98834927386833,-5.739421081289249,-1.948197400172904,-2.933976835244664,-5.038861416942547,-8.1404934271163,-8.428161938002209,-1.7481652757307957,2.514531244827266,-0.3563147948032279,-2.2960349989299624,-2.46844492287726,-1.9251729918709288,2.6003574589804206,7.591693433183308,10.437490045958967,7.333663170941836,-9.730584505379085,-24.95502687016545,-18.448322466120604,-8.525551087973746,-10.304163267857145,-11.604329719760663,-15.149521362212806,-17.43073414740361,5.474856430811448,31.274293355991276,21.920312884341246,4.501990675997966,3.6085949557803296,-9.6783708238541,-37.35195291642185,-46.43667893086831,-31.368707585411947,-14.312485187289528,-11.754686059890282,-1.3014654619173456,31.080315000169783,48.375950960465424,104.97489223083082,299.52230118948563,503.49411564868626,525.3163156994905,292.3751007488099,-323.3157069305298,-1085.3040107166846,-1196.6856041050917,-543.7228112294132,-2.9186330047115803,99.70005417742854,187.72282698196477,286.59994999808816,221.71261488194938,162.58274688738868,169.32061306166267,122.10779874155044,72.42332962706882,63.49088074045973,30.637321175776865,-4.286490043280406,-6.797232946792274,-15.110012087356354,-34.25152432424363,-40.666195476026985,-37.60702725170319,-30.484079319298672,-18.146240827207407,1.3452811743302782,29.057100465263467,55.706895027674925,77.31908267689946,100.55716253642353,119.43028760223676,124.7726778991661,121.85502056798853,110.62921476519091,80.13509271870983,31.785680957630312,-17.731214342772432,-55.339405941503536,-80.9791836989611,-97.05762464029436,-99.72222639788242,-90.98494948067032,-78.43705363021891,-60.09638075730986,-41.078130468955216,-38.790122017179854,-45.138928375918184,-37.5658980910019,-23.347008914840636,-15.613473881773015,-6.784914459773951,2.051357128953338,1.517518286575175,-0.3299622987425401,5.577801969906104,12.628821610042063,14.500871304263853,13.303649594203872,11.410430928922711,10.048486037275264,12.432822980353142,16.994155680035792,15.368733878511508,8.153120077414208,3.0867684244674902,-3.2946027120816384,-12.65575088132403,-14.49230928342096,-10.826812489785008,-12.275169746733443,-13.310153499024782,-8.889709553037314,-7.226164524696202,-9.58623191235133,-10.193926975785196,-10.035559477119355,-11.493515316853369,-11.721273569199212,-9.308051285921648,-9.523513375272813,-7.801549953711728,13.030565494656527,37.30171109995668,27.035142576493698,0.2915768988716687,-4.605103510318624,-8.93789451981446,-31.076605909702486,-42.32116820396205,-31.110580958067306,-13.969313405870885,-5.453201475830724,1.9118384561533048,27.384291974662716,47.21283303665882,82.06533720824113,245.7576176029795,485.6437856658537,580.6164067023476,401.545574535888,-171.92956135428716,-999.8868315776698,-1319.0347992791933,-765.2354071668224,-114.7526758890225,75.14599231032946,161.98272745632357,293.3721078928505,259.6099857868632,183.16438673262374,189.78149603679555,152.42756265819384,84.61747997276619,66.404608298266,43.00760849735987,6.263167317030142,-5.979050154041435,-18.23219877721418,-33.71765699840172,-30.914814414810138,-25.87669428082711,-30.994378386693796,-32.06390850147663,-16.00967714545661,16.11189262525152,51.42297847632369,82.35771439465057,109.78129341125502,131.00754216149755,143.15412716651988,140.56365906117003,115.2439460262622,73.40882122290459,25.263211708703388,-27.560420998634893,-74.17916634604477,-101.19487181341398,-113.9605488474502,-118.11921785059587,-107.55414629547475,-85.6882701621275,-64.95599418841276,-47.997126577220435,-33.806347170303326,-26.682745505141668,-23.904161904316904,-15.951510557644824,-5.992016329598929,-4.262759755913837,-6.544182923972741,-4.334916484717397,-0.6288701302710962,3.347926514227174,11.208504844838854,17.344325827470676,16.112090713773334,13.194734179957893,12.173992566865774,10.450134505967156,9.279947752563027,8.854784894210814,4.546493834287905,-2.061526405782881,-5.045881300067319,-5.586273837473291,-6.412727882170892,-6.078069841692343,-6.533982818785176,-9.956593732222089,-11.231956993399825,-8.044210838640026,-5.340294105671889,-4.823585708444037,-6.07404976075818,-10.293752889869,-12.95242035683297,-8.953224705174316,-3.5469870211805326,-2.0237813934046383,-1.8241221654891078,-5.56282839138764,-16.222602753002928,-13.79215640105062,18.558082198103875,46.44661803856856,29.68215316555083,-6.1375364254155045,-19.07441508389123,-19.369425643160362,-30.650234759643727,-42.66085819211422,-34.78059109323522,-19.571795621273893,-17.61767819547878,0.14650955720075487,37.047210809758184,45.27099450801323,102.04220865167262,303.1757091626795,507.81316627847474,548.0063912792477,303.0867513344248,-399.3905214398002,-1173.4934848657658,-1153.2750982521275,-440.7471527396759,17.842062868324128,87.9979136495368,208.17948498772358,283.6920709334337,190.18810995126137,154.1557277749974,171.25490864313986,110.77147100356012,62.56273387822901,57.81304472410438,23.653300131786985,-5.889995363788708,-3.9474477502289407,-11.793069360038142,-26.01899822886648,-28.89342695170642,-30.317018052037184,-28.127687388417613,-15.22221803360522,5.172576942051883,28.829141027834943,50.12769134788959,69.21821661218422,89.65429965210598,104.33679025802752,106.46276518309588,97.50899685549393,76.75529277110648,44.46302018698512,6.323586810096991,-31.429290918766252,-61.35107888441135,-80.29170146125061,-91.96772530023706,-93.87604175825972,-81.93586253247994,-64.05229024407349,-48.83995386616708,-38.37593905277418,-33.619548508339825,-29.32901821715429,-19.520912370010365,-9.303565467431827,-3.709816192901755,-0.687238986752849,0.3487813366353123,1.1823065515532463,5.857009035572576,11.790731528552787,13.640513667039455,12.15736154551753,10.751220878156303,10.29069446964851,11.37410520793228,14.919951080030685,16.06433269814452,8.375981775786052,-2.799266574493833,-7.3863863944538215,-4.86673366206834,-0.15760705843438672,-1.3250691155331253,-13.765733132096685,-24.314194692160616,-19.46538696585641,-10.359504962676228,-7.994006270189079,-6.597145982254361,-4.908367416345042,-6.159816541820767,-7.503690902939082,-7.825411767368866,-7.2374603674939255,-5.949393780605109,-8.633017806750125,-13.209863180434951,-11.868637421593876,-7.768077334219978,-5.9767564856835165,-5.8120707226364186,-10.929942271955397,-12.850190156842968,7.368080378073184,31.070811295906058,25.433687328080374,9.515338917263037,6.897474930391622,-4.114912787063849,-28.250684159989625,-40.31906657352108,-34.415688139375916,-22.055865908668846,-18.316871610815852,-12.087889984943445,18.10443021020361,36.03494823382094,68.33247343991002,235.05374542685757,463.83435217981486,565.90122976463,452.1418134493979,-83.4816936439756,-956.2501169753065,-1292.7534506419677,-701.0859140371685,-70.74257223060285,58.11740498574761,139.34550164468772,282.33099718556065,229.41626378667468,148.95055376420342,173.07007993603537,138.90989119869585,71.73152336328812,63.78404596689532,42.76917738756504,3.165221029776866,-4.185290136609547,-9.696456286529862,-22.76121587540741,-20.491982727291333,-15.931588809595834,-15.803594046482624,-11.223235060402002,-2.5550524013453,13.942342410397412,39.528894150227444,67.28258372777029,92.62710487370455,109.20320530719788,115.37439217916801,113.14465436509786,92.84359222707404,54.58297985868764,15.703894893331109,-22.719237189295953,-62.42737806101056,-85.04682067103262,-88.4279008665086,-90.04233670505585,-88.07734309930683,-75.92718759475667,-63.85877850208112,-55.68749037566245,-44.897336357568165,-32.891090243640036,-23.904851489911273,-16.522597025634195,-9.333667942729324,-3.9406058823066203,-0.7787690047468416,2.5671035226000605,6.338219450933332,8.739230887050187,11.406848850232722,14.150985256460247,12.567555460198477,8.615551286258071,8.01997564587473,8.799657939121634,6.60915391697858,2.899722598811428,0.4990725856293743,-1.0543655167614236,-2.4195294057135124,-2.1091069758103274,-2.889529352373163,-10.26095579279253,-17.296269250523913,-13.288429984367466,-6.786884467861817,-8.908074217630945,-10.99870710350736,-6.228240573890531,-2.8670851316552,-3.9174805590623407,-4.111105211819645,-3.7337469913924615,-5.196604505879209,-5.88360788020302,-4.52813154921386,-4.573260206430932,-5.604310844915567,-4.443686939770764,-4.43964861608208,-5.078315595503293,-1.1742101009641965,-3.374606627191822,-12.682305460160913,-1.3505432540661366,22.512154410355123,17.6641621067118,-0.051688344480027126,2.926111698623334,1.1860155529129055,-22.017483750824937,-38.066373234170214,-31.338520738535685,-15.068927356410384,-10.968381444899471,-5.892455597571971,25.06855518545546,36.547506067326566,51.21767602417484,212.2744149122552,461.97140309309026,580.4987484617874,454.82588519576467,-92.94561553157277,-965.8349664112578,-1318.8594602992962,-742.8966391544761,-86.97642916747355,71.69696943494296,143.33169351306532,277.09458057792295,241.739741450143,168.8216957708602,182.22162722589,143.70924108593866,76.07407904850282,64.18257492686674,43.68599025441431,7.2360495241824125,-2.24832218524603,-14.285986974441496,-32.6163820101655,-30.750950726206106,-25.156875750063787,-22.87427446915619,-8.863380994943348,7.325591962945978,18.580619000390836,40.919532492423016,75.22541830712683,102.8510790658884,117.16142339995568,122.13590065899285,115.68560805633322,95.85210625239569,66.21594989640799,28.74648881370254,-15.508050033133205,-59.27053605379403,-89.6894184350781,-100.58575643956897,-98.93341174361748,-90.3974653070685,-74.56145317333612,-58.07695350470008,-45.6811148785459,-31.784679965608277,-20.37912618865806,-19.82980068715773,-21.217665269843316,-16.776694216212235,-12.722848736754674,-8.709565037478892,-0.218780770218018,6.900163509852838,8.35714732840843,8.264397836508868,7.681941448889457,4.420515632020946,2.2514492269223076,5.756291839068694,8.643233291031269,4.261341916823281,-0.044326717794833215,0.8084195794122326,0.4910661343438054,-0.6582456649303996,-0.13858306609600923,-3.898663904865968,-8.776409545569313,-6.013011187832245,-0.3694317836318568,1.569615923559473,-3.0299817586345306,-16.699296840262875,-26.157689634182756,-17.714210956338633,-5.641780163999618,-4.520275030446472,-7.319576747445254,-9.23197015028773,-10.939079776977234,-9.100769237807398,-5.580863081398864,-4.81968851967916,-6.1332354071092325,-7.282418141610567,-7.111194257430688,-8.47904981872625,-7.103189260181326,10.17552212831933,27.226667135052736,15.750395808130268,-1.7992612779063122,0.8046474164682671,-2.7851351449258437,-24.579704484557425,-39.308030199990924,-36.42757983988192,-23.773228936959228,-16.600003909015946,-7.988301396815732,22.82777482215234,41.31902152365037,71.19738905646717,237.59862134910838,474.7530777081431,569.2410347882169,418.31894406599616,-129.65612819144377,-959.8506489314518,-1265.6424887720493,-691.5739764701746,-74.35138431933373,62.287127376284815,139.29455638752916,276.3806036436934,233.16538988181622,156.48438221837773,175.3494808357676,143.81319739865825,77.54473019229432,59.45941719619856,32.475159905550825,-2.704590580024865,-6.920649904646197,-15.51942842872926,-31.789840385166016,-29.52429593148064,-24.276641594275887,-20.528070657976407,-6.192863584361817,8.220476467600108,19.106145438346633,38.75310853039151,65.71103736083755,89.35322333422499,104.25207681513541,108.138842867335,101.79273286433487,87.08095377025747,62.809474382669656,28.33322688379824,-11.80884828988474,-47.79226971529772,-71.21304195976566,-82.4107986941184,-82.63295574874519,-71.61546514604694,-61.7849697054751,-63.92715997875236,-63.718596289990074,-49.554126086129685,-35.4130057349639,-30.479745683330265,-26.350412373099836,-18.94758993871605,-11.919487928715988,-6.891197504630984,-2.44074423027822,2.662710792134053,6.50669949362727,8.129911423647329,9.77288724929063,10.87349294670652,10.399866937626953,9.528974389631422,6.998883098897338,3.920024934436298,3.6319640802969246,2.784847111135404,-0.3649959866074699,-1.8772751270461931,-3.3838763722719296,-6.295310340833401,-6.55505829707749,-4.923674186573278,-3.3529388130554807,-2.51701624587416,-7.453157039005779,-14.129807443580846,-11.468371980336215,-5.377170775101209,-5.04225108186338,-3.7081510784581804,-0.724278181961175,-4.4881293883148565,-9.535935903917563,-7.946280432377591,-5.64432852238678,-6.676810339265598,-6.498316751759047,-4.413729815078444,-3.4714216157206677,-3.1800965956294753,-2.5450877425004848,-3.1785344591098994,-4.13997237095864,-2.1527578579037305,0.665350115890261,0.17933443536907223,-1.7423187568167027,-2.58774363151431,-2.8653605082742715,-2.222737014135272,-1.9548684465088702,-3.394235851775303,-3.675231745078536,-2.9792545747097887,-3.4044060089354735,-2.303727009484832,-0.360733835215028,0.7560485692086614,2.5950154776027317,-5.762320742024411,-25.5602682527401,-19.400483449116393,20.242283599333653,33.42100823217061,4.898770641408585,-7.675022593137313,-0.5033091100820286,-15.20293147848486,-36.29215513939964,-37.92874726281869,-31.975854642715827,-25.164183102968664,-19.938192126877087,-7.005067988666767,20.5642438785016,32.74587509449444,84.2585183892742,271.21382136921443,479.36862471831205,541.4572862802496,370.5985389872491,-220.23168395776844,-1013.177436027005,-1164.9599891006344,-537.0008795032454,-18.170521525574316,71.80838168020652,163.75323111258888,264.929562857123,194.68538968683367,137.045598157379,154.11422203207115,114.9141785697417,68.0935238585644,63.06356883828376,35.13848605212682,-0.9577807328670893,-9.232310609213748,-18.061106900889634,-30.972315053368483,-32.3244452368382,-29.18502094285337,-21.92437036095411,-7.517479881793779,6.828419137716466,19.940845726871284,36.05616869264432,55.04276469720693,72.95010923370961,84.66016727354545,87.47106929890988,80.14019521402774,63.01561521637808,41.57056633582354,17.939538542817136,-11.529973939750201,-41.68421314642316,-63.0118123538076,-75.3262783530381,-78.51669834467728,-70.66349323421879,-58.02585377744808,-46.494009159572144,-37.009424563653944,-30.831433514956945,-23.792385740024407,-12.896160812341499,-6.3401720087262525,-7.121217901848624,-7.239125517464165,-3.2515874452217766,2.777464381610491,9.487566213965216,16.67027422322208,20.99018497005083,12.166077147257841,-7.1371863800150415,-13.44122847557212,-2.29149386668612,4.771643961533258,2.3916784046463055,-0.2810246541384842,-3.5036331251916453,-6.078710579272181,-3.637851151220344,-0.41873972207927146,-1.1588212326944545,-4.85975802632945,-8.165486424133048,-7.260437598632079,-2.970592638027262,0.031112109219556316,-0.28891422282783896,-1.9569011378495222,-1.5916518705995877,-2.2064823942728626,-8.472000634232622,-11.128647846254939,-4.627818254894571,-4.172971391448495,-12.774595680689234,-12.745817217376384,-3.7776421464799483,0.3344784447730964,-0.9729420234505906,-3.6115162951731525,-6.1371249705188085,-4.576136680232304,-0.5254541936842507,0.5448077545223695,-0.6172958702932876,-2.6624868290473316,-5.1673442679700425,-4.288148404255512,-0.5656684818539262,0.8118921350583603,-0.13225045416093018,-1.4048289224909567,-2.771530875700454,-1.518513419177987,2.1326057345788176,2.712976573908257,0.34741118288107176,-1.827286055773734,-6.889079096256516,-13.972663730292503,-13.833948966521499,-5.809620326182649,-2.2635555253517694,-9.886550434478973,-13.943937196535416,4.429460470728118,28.455790927996077,25.198146931849344,8.55389536574264,6.065672070149479,-1.9954689780008468,-25.276117908111658,-35.382359572571396,-30.01752554666826,-23.27333485116023,-18.569765470156536,-17.899402702912955,-1.7936764069824491,21.17507706288338,31.901735715882324,127.5515298125788,341.13267484578887,504.48823668171593,520.4496658790611,258.3538982493819,-481.30149131583136,-1194.5763919265194,-1033.1389644338071,-314.4504753271549,37.726159277777604,77.95814553965565,209.34298924666894,257.9145858623147,163.02229257296946,149.41032236015502,159.16233439841665,92.41837928337014,53.18837377099129,45.72842190878468,9.902204543213104,-12.78210277759586,-12.077755177181514,-20.701859592736287,-25.688138460345854,-21.948406219724866,-22.863532372280364,-18.000863999641126,-2.2542064904330203,13.735301992715986,30.504292057405372,50.936318383718714,68.64573847595085,81.12340445654579,90.97283894942402,94.72145192243065,86.80598817012022,68.4890722284791,43.25049463298604,12.80176177779338,-19.856778833895888,-50.16562901725729,-71.51639244398831,-79.24727057233336,-77.92460242648859,-72.58710123639237,-61.67932229691961,-48.12801253749329,-37.1172848126841,-27.42587858144801,-21.28341574975636,-20.930704776869906,-17.64331578309089,-9.29049844113841,-4.707613826736697,-2.2198687854567964,2.9891654712143367,6.144119052888161,7.790234450243317,11.550725971040801,12.24905548506257,8.933674299367503,7.086608659108853,6.643401098744742,6.841496202313069,7.929248422055795,7.034590307984699,4.686237481206042,3.036088440353862,0.4127303860316598,-2.805582521753506,-4.1908259878720076,-3.5113600805130756,-2.201947709498014,-1.7554749665793667,0.022557334418766395,1.2220443458389187,-7.5097484756502215,-18.240282444445693,-12.784845910849512,-1.0204056620555884,-0.08892340165886736,-3.163890673409515,-5.386866889197286,-8.829200509940074,-6.814945125294361,-3.1798144593837865,-6.999155338322277,-9.20793342330106,-5.2237880000922345,-4.431397346888515,-5.584679987311093,-3.4274903080721426,-2.2389891247546085,-3.36843877486967,-3.208671685434574,-1.2545100949308141,1.5101330520200937,3.6772370055202344,3.406923244524556,1.3387133865413139,-0.23607525028172294,-1.1841149285563768,-2.8547404888401626,-5.0853271740785555,-8.856329713749812,-15.031238474698393,-18.348853059667263,-15.710914010566398,-10.066596807654633,-2.432017662831038,-0.8758935174975404,-7.8638862778903444,3.068466283811877,31.86325987271889,31.369390152524595,4.2948934846363755,-5.177451238628627,-10.377223558915748,-31.87934271543952,-42.33009256240492,-32.73176506611964,-21.146474420182813,-19.214487003458537,-19.154824395406862,5.668214083602199,31.308039534428573,48.95843905418271,174.64550242975645,405.11889013511734,546.9495318191371,500.0671089247743,109.94388306857692,-706.4827707670108,-1271.7730701607773,-904.6854578697357,-195.76464908518716,57.61936214952917,105.12026560796014,246.3706037835939,253.95789285155678,161.52560726006672,163.866903314479,155.50333068818313,91.95952930405359,73.98731781967483,62.48217649831622,18.81423980517288,-3.6824698549598107,-13.176250711493125,-30.742433333453434,-29.694826382178423,-20.373227195604002,-29.477525237842976,-36.88694960913449,-20.976271927698818,6.2061878723201644,31.24817217316232,54.577993641289076,75.67643276523091,92.01092935127278,103.85256770084382,107.64051073910667,98.16778885834484,76.84579283317316,46.07662444536122,7.254536215375483,-30.983643667905838,-58.73943340657546,-76.6238189264516,-88.08591011334036,-90.03532581722285,-81.44865320475282,-66.37153625822144,-47.40429216694079,-32.18139207072876,-28.986077981367416,-27.9791479759596,-19.11757922307669,-12.945296965906245,-12.415639661036877,-6.810005357408977,-1.522979661202557,-2.4545296697937022,2.4513792238772156,13.023493446614149,16.493452416972744,15.629735015248395,15.88516057402122,13.981953045563005,12.92305027591208,14.718262604731091,11.792759308158598,3.0978647019422563,-4.2398163527626505,-7.664343784999328,-8.431530133376818,-7.181709549145533,-5.32544690597015,-6.291280022049863,-11.25758711898062,-14.057110683316898,-9.722879734240903,-3.1608895741146226,0.18287067142580504,0.6249856514359564,0.46945685249734037,1.9795563015299802,3.387754444414732,2.8880095767007354,3.4744069779305047,0.9783691718448448,-8.364280006441536,-11.526628373697543,-6.226894370708337,-9.314656308197405,-16.575843436089933,-12.502820574600674,-6.219103839273231,-7.0170185641483656,-5.3754200340997045,1.8213142706343604,5.741136921994952,-0.9587680519429131,-15.093655467790674,-20.337800710408672,-11.085246489067316,-4.363692069239304,-6.707835806073689,-7.100487693308807,-6.142325419329984,-8.861300453458547,-8.19255378976052,-3.6805369219585273,-4.000481440128437,-7.530405903455912,-9.92100473665288,-11.168239792526643,-4.750489629626204,5.550628241441662,2.0894430701508684,-1.8577708237861206,17.463249710547665,31.021693260408217,14.24636304683346,1.4868625130231283,0.43581938132399767,-19.41349962641874,-42.804798262953426,-42.83309060781621,-30.29360308311635,-19.46882790616106,-14.84364637388174,-1.5132685769389838,23.22175345190781,32.87836510618225,98.08427666942121,296.326568637512,486.55724549594106,521.5908336288519,322.26904449241067,-303.46201790360703,-1077.8555711281076,-1144.003687803704,-473.3715191946426,11.626542363230001,80.77789304349183,179.22564415725145,270.0371618219532,193.67567100881598,148.42308517996153,164.90011549163188,114.67299026548129,67.17899537097836,63.62771064896591,33.75278117198164,-1.1684377258033916,-7.967940723608596,-16.165419568278555,-25.02149056027351,-24.986909333050427,-29.498020462488306,-30.39089216494105,-16.73361426606879,0.20706145953227306,18.063727406819122,43.00475293387763,67.13728137913513,83.05779972510648,94.33378737601672,98.71715637782408,92.23263207258476,80.57949124099014,59.91815020494799,19.16177662622428,-27.875258831227008,-58.24744332666618,-74.03352532175285,-83.7455364997912,-84.16702749004664,-76.5215050842214,-66.24100200340129,-52.701734637234665,-37.590193558467604,-26.784798197050975,-20.905229132900587,-16.875340990983737,-14.151085849510409,-12.577836345611988,-9.246434928835018,-3.434230043285094,0.44275006835150243,1.7218352255006355,5.480054433667615,11.015293415485523,13.278256562273109,13.458873968636322,14.176951633779243,12.995633943878662,8.24353871574301,3.0749349340809906,1.352233610093759,1.1767548311726186,-2.4031356486167983,-6.653959720434136,-6.583255684322173,-6.172175268427278,-7.994107919915826,-8.167970079329521,-7.244993729040371,-6.305752629592809,-3.4366604960462386,-1.114955898412111,-0.0742079925388035,1.744158081979477,0.7920381003131025,-2.108693600838759,-1.3142181670227142,-1.6807686001134297,-8.053761619419713,-13.390319594069734,-12.419931759155157,-8.069204602524795,-4.928363187528884,-3.8458231872060384,-2.6935356103396586,-5.377848105542938,-13.787330128235883,-15.343562870151729,-6.445652843338326,-2.3734591556506714,-6.296724298137841,-8.076291638093547,-6.856956644647185,-4.7157674190955365,-1.09831559130558,0.6945969054183783,-0.08410820764696858,0.19186181156778304,2.3549365117623884,4.356476331220218,4.355104959103608,4.237355934578508,3.655158840827232,-5.706307493093062,-19.365357092281492,-18.837463323647764,-8.425107646976787,-6.796943374610017,-10.574146203626473,-10.646263841931198,-8.886838861113526,-5.662695269112678,-3.750181953724188,0.5478718475340023,18.13715178854606,27.9100410016193,9.721190428219312,-3.1524500497749344,0.4088397157818342,-15.580130682383995,-40.73129131414295,-43.24528475905236,-33.96761985606921,-24.05676805148819,-17.44664847416226,-10.106226007211529,12.746707001654254,25.83757536567847,63.25317868810325,231.6027986202505,446.7158444656717,534.1156800723567,424.5194996356003,-80.89934984529603,-904.7246476086575,-1213.6365024761749,-646.1295224721897,-50.85533732209184,68.39674940605347,137.02578360305031,260.61796293994377,211.86816404296786,141.684845415715,158.27627611895656,119.27468328914696,59.579987312231836,57.63651263434769,40.92574142870901,8.161986291388654,4.474427815571829,-6.664676419831704,-31.220859365139482,-34.05974914206854,-25.241372724814934,-20.162261413752148,-11.984977537639631,-1.419102116023332,11.464159150716256,31.92742129449438,56.26247139952662,77.14253082487694,89.4648684103832,90.3991218719515,83.66118768146134,73.46732400171621,57.397615261996506,31.911517544573258,-2.7705532290865467,-38.8820639137122,-62.573195341506995,-70.4443516825639,-71.63266262969401,-69.2276710536135,-61.48006307583981,-53.31045245320373,-47.52685091728018,-38.54395765318914,-24.71505941638241,-14.7723567352026,-13.271125355932039,-10.546794560808774,-1.8346332735271407,4.656720966037186,10.035226015042083,16.5895319449871,10.621827497195557,-4.0438423083630965,-3.7702707681782064,5.800099414936623,5.195681483447451,1.2157210783530115,0.8596048183081981,-1.8984184231194572,-2.9492680082265847,1.4449999313609307,3.9351005087210997,1.8183200488461368,-2.458425044972879,-5.611367298542974,-3.3946724318254047,0.7826915260416412,1.560561971045889,1.0965382695454684,-1.0206767173609208,-5.910050459616233,-7.195629245154129,-5.585091257135723,-9.475975523411389,-15.23556838160793,-14.751206224375581,-11.284011502443864,-8.40938172091361,-3.6565817713038804,1.6773956484213999,3.9536494620489835,1.6097685799348564,-6.464970690402389,-14.295319445327166,-11.9615547264841,-5.0503405373680845,-6.817716123520157,-12.402792535111235,-10.285030877147957,-4.666830731432256,-2.2863203949587003,-0.8736801008073076,-0.7442914504318026,-3.2944781831343164,-4.147480247476339,-2.6452684878925616,-1.5946084946881722,0.2511118016931695,0.48494889322655865,-4.126825073321049,-7.096494219194719,-6.387393161635147,-7.6585321656567125,-6.830176089919098,-4.62974462296366,-12.700600012018324,-19.000161364232543,-7.219049043138322,2.107848132507737,1.8600170533882094,16.949343071661776,31.78848230714012,18.819764358358352,5.803788084251646,4.6375514150090345,-12.33769445036263,-33.200411222721684,-34.88426277360786,-26.639789181808297,-15.40480444223913,-8.835121863396147,-2.5882222519855524,11.990288842041291,15.445799971395786,73.96754860686991,270.4976643753,467.5884313921772,522.4149371877228,371.91890024342104,-223.0184995893062,-1057.0238351732992,-1200.3975934245123,-514.3237337383573,14.770182986633344,76.73244028284188,171.20908385617292,280.18517157438157,195.25447216586872,134.32403042881725,159.48210766547805,115.27609020648691,61.97600555818444,59.20639155743544,34.93261024645376,3.7483982971357754,0.12071263231613472,-7.621509764691389,-22.069524746987277,-30.49499354299922,-35.42002960711357,-28.317483512563363,-14.136957472118652,-4.356186435392651,12.650996403126793,40.56127653362766,66.7389223654192,87.25168706838997,99.95834904674192,101.66306301889752,96.38124266910913,85.00705797728014,63.538973933763096,31.68401067253808,-7.241541141903106,-44.28340312681181,-69.01541840229952,-80.63472994813608,-82.7996488931549,-77.4300994125404,-69.95766179267036,-63.825342223246324,-54.087709403530106,-39.11962119943046,-26.33916397209874,-19.381044869355495,-13.778960315800674,-8.27550164852735,-4.480413988755439,1.847796444341979,9.922727612554791,9.47310645159588,3.8337497892200068,6.593578132020509,12.93191962987477,11.95355496420985,9.343753782765436,11.005621600979984,12.879742224051599,12.557309849599983,11.61817638805,11.896291893950435,8.697778783718753,-5.400522742250415,-19.263315941028523,-16.455742104899333,-7.301465890464493,-6.953839493938618,-9.350268784071938,-8.66087813383802,-8.742965324804835,-11.919747942047442,-17.597591125985517,-19.398098259032228,-14.01487585593213,-10.643688967268517,-10.230086109378636,-4.347939515799334,1.171160071008046,-0.0434448436249788,-0.852458846002806,0.8322360092359311,2.369126314922635,3.5029966525196974,-1.2413997552647533,-10.801801655884445,-13.627237854852982,-10.278939488897693,-8.787574891087411,-6.943777798200984,-3.4277353327672024,-3.1972036080209882,-6.246920670720551,-8.705982303814283,-7.643837441662372,-3.1674030280645056,-1.551331501805116,-5.577700316801953,-9.00581982504739,-10.640489069926046,-11.199709355820207,-3.833993450979688,3.3673981875979195,-3.8144330819912637,-3.8003163444763954,19.015853877889324,29.304339204145172,14.60114837392528,4.940127752413984,-4.318443798683218,-27.63052521936154,-42.773337747514695,-37.60478618519928,-22.908618731283884,-14.499698153018048,-13.152108182548552,8.68557013453684,33.31715256356256,53.50394414256539,183.8563732533649,415.6247382677322,548.1348508135303,489.5523431885137,96.07802223504689,-724.988112836436,-1295.432004816703,-916.0638418912739,-188.33970381243876,69.39255151160498,117.04764306468542,263.37798081351934,272.610034433333,175.60956658741847,165.81056383660112,142.63193920971366,75.21075666582064,58.193260542594665,42.289018109558924,0.2213584831700217,-13.209028010808138,-17.34810236765103,-31.050042234672357,-28.130776395769708,-20.751093298461978,-22.839955438217082,-17.79799338022147,-4.200640899152283,12.712339997265715,39.14509290819579,69.04805245430765,85.6702027055262,89.73862639416399,96.32848467090804,105.1137942013511,101.82271927986929,83.18590683912572,52.638604870095634,10.964672349793071,-32.58397597038534,-64.61068184130514,-81.90893332545039,-89.3635389047336,-91.74325460169197,-86.9159367190197,-71.53863652390018,-53.24527701260366,-39.52936004588355,-29.298373489139706,-25.49782035672881,-26.77699362089937,-20.016081250584428,-5.705640920778073,2.105139023103874,2.636695235369144,2.7204281470233003,3.5724285333057217,7.145481447339404,14.118549969999002,19.456808369622536,18.459774913263317,11.227154939991852,4.3316960839591445,3.785941111669718,5.681199499190864,5.411946574152168,4.100290494131273,-0.02381039772265403,-6.737806968437878,-8.747538904690671,-5.350811837461714,-3.3762675454847884,-4.701255052227065,-7.146657817995781,-7.854884000681524,-3.599137612062659,2.545989914975377,3.254021541393996,-0.8636000875258087,-3.915083915195897,-7.054467287820401,-13.159790370208322,-15.580823194289419,-10.201424408966735,-6.481753921724035,-8.50603113923044,-7.492560696334632,-2.0325784434526426,2.9356381922210897,6.180052201557056,0.2236860591211869,-15.612070589340089,-20.63889485003969,-9.81570728798115,-3.714264952359235,-4.1796924440659495,-1.483721960436153,-5.528075591185475,-16.643574398464516,-16.307199508923443,-7.273785079063513,-5.544589945607866,-8.121939171318282,-7.148988476730199,-4.966619626938546,-4.715881961330083,-3.6852272579013974,6.2062145417424475,19.71598006976992,15.66991000276903,0.6856165010372841,1.0197878947595345,3.6863126686416217,-15.08947906957405,-38.76259816078617,-42.24112009526604,-24.52390174976671,-7.933840809866446,-2.854063502569126,15.125142037354648,28.50145808959966,28.224837491796166,136.37421820597055,363.01677083759876,503.2662149457141,473.9301286304026,172.21746684662673,-575.701186601826,-1235.9633189341896,-999.8022709322498,-264.7011941984478,64.16295558082983,103.23652743041404,236.48981311701843,269.0661215151343,170.20120998816688,160.16073331308579,161.15852773239646,92.70456540749494,61.93967593714139,54.46182302543959,18.07641022104961,-0.8110049769334715,-4.218315101280822,-19.823064707240192,-28.436413356912823,-30.262490069551852,-32.298820993198774,-22.072800590835197,-6.826917929884303,5.617928061423672,25.28893972788859,50.5666397499723,73.6659499481952,93.09653418772666,104.29590084619505,105.341122343427,98.6391881242219,83.75504271039144,60.168974667107555,24.690173106150137,-23.39963924109612,-68.57676756718737,-94.26496159801076,-101.06628450553902,-96.15026630358145,-85.00292317745286,-71.39111490765832,-55.925385164781375,-41.88822068158949,-32.43862546229493,-23.354695355650193,-13.225136318028618,-6.308748219903393,-2.0057239496267982,2.3540949643573548,5.992506710241781,6.259047515278779,1.6032421281676843,-1.6357756299082862,3.263949410216499,9.152900935953216,9.173773706855156,8.432538757797445,8.448815691617174,6.999266240244856,7.167240799591952,7.621809122265805,4.439158951600891,1.4551995718334174,0.9130553032476625,0.11227165598346645,-0.506549837935478,-1.9390787125434574,-7.055318942676574,-12.164972471496823,-12.697708205754513,-10.964442984313605,-10.534125209097832,-10.757122739523432,-9.191276085896881,-6.380439353554742,-4.652062492049502,-2.805364440766475,0.8859319816745979,4.000509692689182,4.608365645254603,4.376428411714395,4.944191590326503,4.1155562218884345,-1.4930259167800424,-7.731501654416881,-8.732617633139473,-9.897590063095848,-14.403105734924452,-13.975783668373117,-9.384825753713766,-8.90820738878878,-10.260980143160676,-10.696981087103488,-11.225171804517055,-8.541568050073025,-5.152275617222881,-5.936234894161272,-8.476315364597097,-12.205171453880396,-5.38240766587579,24.980159601736773,43.1442095469402,16.930944505454598,-9.182312873995372,-5.390459108582119,-11.024174186532587,-34.76800996979826,-43.475601731190494,-31.365367266251198,-17.091131196142175,-14.546714475954929,-1.8670721583634986,33.90109328731646,49.0095008346571,93.37344387184643,265.56255488689555,446.8841251766749,499.10448810370315,370.5842528672365,-189.50124545757475,-1034.7333335737942,-1238.56624388054,-576.2609409611932,-11.445079140422663,77.25373749939448,171.43793259279417,284.84894992995805,204.67225124807632,139.70061468956177,165.09976986830134,124.46816525469967,70.12373425316923,63.39509233067769,33.11859872579181,-2.1295578515957203,-4.797481938561964,-12.503511986820108,-25.286008954983,-24.86996870447474,-25.84278888496963,-24.771113864646846,-10.437256869897322,7.679247424382357,25.1723326925102,45.16949417779039,65.62942028000494,82.76524575776575,92.36749875269484,94.51252575606935,92.37703312169347,82.06928441605095,59.33593315179333,27.360876589001652,-9.168751015264016,-42.92494555315823,-66.25158482699132,-80.78600218302651,-88.38380157928722,-84.32558917252436,-70.2039387474482,-53.40994889304698,-38.7263915378264,-30.98211150067902,-28.69317353248433,-22.066012703464168,-9.520256018300115,1.0639247473011686,2.9647464144801496,-5.15154259710088,-11.81683450899937,-5.316525837631012,4.72440500263429,8.343884541838204,11.99320221195608,14.405805725943647,9.990669162954628,8.636468193485458,15.063317839556408,16.979432608912546,7.697726380280507,-4.405320897755275,-7.944730418031378,-3.574192793300828,-0.6139288961324212,1.3545985237706288,1.9851006066258403,-9.743360132628586,-24.71308359686019,-21.274556576643114,-9.520079273288841,-7.841518837223756,-8.099643114818022,-5.077165451942513,-5.673198005798054,-5.078819097583246,1.0664323394481023,4.340351513358124,0.36377552803808477,-5.630539269443133,-7.293961701715161,-4.645937236617177,-3.16136071152403,-2.650581992089962,-1.4764435067010684,-4.074992705739451,-6.55664847911078,-1.6571571073063902,2.874258723985073,2.882418641671259,5.201797519543983,3.5452246784414125,-7.073262398466854,-10.937013256694737,-4.329419706671493,-4.489234994652472,-13.443732568834674,-19.107659931379953,-19.75779196735304,-17.551381989009876,-14.003844678529886,-13.12920517787978,-4.361639803035154,21.01692540175731,32.264040092337744,11.563331056552089,0.016271004830432645,8.766334871139383,-4.849828517281524,-34.48734509579278,-41.74912333648476,-30.124834850093414,-14.913762628030462,-6.708723101997791,-1.7801942545490839,16.391014111193822,27.122966870586808,73.40018784406662,257.3039761989532,472.284273276219,540.5051556774584,406.45636178317307,-139.02002789109892,-1004.5697699207873,-1293.2597320576288,-657.7452976540411,-37.52579956257176,69.34216227191192,151.52111576779225,291.66347277756853,231.91571557477366,155.0241662661461,178.10715092476178,138.97279130908257,75.24419287626301,70.64295413097989,47.55066244028704,1.5883495735693653,-17.3162564532512,-29.53650043403145,-40.02741319003189,-35.83027315184031,-31.045376147274617,-27.456611115497196,-17.331014769993565,-3.0339235854346107,17.39725259766993,44.53239673444375,71.08856505712777,91.76544903222143,104.8802735923497,110.20935344226093,108.16378262444482,99.25053108304346,81.47488235235443,48.41851435723616,1.213006704141816,-44.46825368431915,-75.19319603256493,-90.51315397382415,-94.57612121989624,-90.4931720676284,-80.97457053307373,-68.01900317419711,-53.09266958392361,-39.49874010144568,-31.70590863111901,-27.190250358953765,-18.18106205799113,-7.252422489015231,-2.5843240789328945,-0.5459450476193908,4.591202858650973,8.576764142478716,9.511525854512104,11.972668525157145,16.562147153399984,19.616292264787962,19.426771037608173,16.62043573652204,10.32255196126565,1.5458808243382856,-1.9617825986554793,0.12474022344846514,-2.4192986334255924,-6.018826551485418,-2.161905249112441,-1.7148368494998891,-9.839392758874121,-14.643133523844217,-15.000077624492235,-13.211785355910823,-6.398056807918069,-4.4174797123158775,-10.106885720646952,-8.234401781102289,-1.0066691559455911,-0.7148123701907689,-0.9161095404463548,2.9928329429445313,4.052054914296288,1.9117918986378886,-0.39422716054024853,-1.9147756934308156,-1.4248986773476409,-0.704138621419192,-1.5537379446554693,-6.116431446144107,-16.508013359685453,-23.442032868114488,-18.044674452702957,-9.567365126301741,-8.633363664262365,-11.953740032654318,-5.19077582851178,19.851824260131938,37.455390030754494,22.989713964793545,4.797802091353384,3.248830429474847,-11.368153254457368,-41.28779433779139,-49.987780249908695,-31.988294046126793,-16.52847694257232,-17.196496352962633,-2.970764498783044,32.92149305856135,49.278831176320224,115.63405965544156,325.79516862512276,528.2383360214028,532.1252691418558,259.2188449489194,-416.45151555305546,-1179.0138003185941,-1198.3460788630732,-481.5777856519735,31.4524167220342,109.08852168457733,210.23410083522145,305.1100375649188,225.50326653248345,168.91364977405354,178.99129806966386,128.61501494510668,72.35001273041178,52.93850900809368,19.545771111090474,-8.476095549360972,-13.763605928416906,-23.275516373208017,-33.59368736179939,-39.375775630085485,-43.301074877294184,-33.934665610725375,-16.691562050947,-1.4521462096820166,21.950267678996493,52.43869738594515,77.01051189669411,97.34106721322772,117.27944887877847,129.4196446454036,126.71477741019207,108.7769863536721,77.67305351313499,34.53472426947037,-15.023236414823918,-55.22910134412457,-77.75998927343579,-93.94833393443184,-106.02744925268766,-98.77487633147987,-76.26420786038261,-56.684034679788034,-40.07876850847439,-29.178338966892866,-35.88073575407389,-43.946875923525525,-31.43453393848988,-12.614619558862778,-4.180684694856321,-0.5369003681588111,0.18219291198716903,-1.620554672055821,2.5368456503015118,10.680459474258253,13.688327895615867,11.934989089168232,9.939651442751606,10.153474185470763,11.869782499656948,11.534645500253468,8.716005045445968,3.8717070297926064,-2.8318247076826895,-5.734911796254426,-3.2528044650932078,-2.3818346649012847,-4.7954191024021435,-7.826975731562923,-10.201570475011689,-8.653937667608808,-4.7506359373252,-2.857745005983852,-0.9478343240722742,-0.8916107692276407,-4.543447561940583,-3.1927818202335576,0.13407463662533914,-7.415282490919861,-17.518646471964114,-16.942877688376818,-10.983109442062368,-8.819983859789241,-14.975571928655016,-17.987570902431365,4.077128562495495,30.560279706736495,22.03503425308711,3.1476220131720556,7.487491131942969,4.024321627556931,-24.25275711571942,-44.25473485312416,-38.75833840491518,-19.97574330076626,-9.872499634246676,-2.832841261458732,28.057822835375475,48.92890539403834,73.42631939870137,233.2097747580534,468.97056291116064,544.445866643475,378.2832367252455,-128.7461585704104,-927.4481197344685,-1290.1100726765176,-756.305928101137,-79.82301321853285,101.49859798563415,153.47960371995077,282.47109630982476,253.5721430212312,165.37671222910515,174.16734785997747,148.07172112586528,77.40546422730459,58.110636440897295,43.49888871363667,12.577211123392534,2.0193414623237853,-17.17473086499453,-49.882086326589736,-55.05995405186072,-41.92238680213721,-34.86903385261536,-24.870685267856835,-7.531778928210382,9.91437079489802,31.13676710722533,60.853411191032826,91.37226817695057,111.7075857667343,118.71954622644941,115.53112840291212,104.51995785484847,83.61161942882069,49.14813374142214,3.765711297748684,-41.66130428938509,-75.61198516548018,-91.5629552031493,-91.223467659231,-86.22007661068524,-83.82246044096199,-75.2889056208485,-57.51402670286099,-45.10185778569705,-41.317432530144835,-32.83274712602248,-20.411871248430227,-14.483909899947747,-11.476069155551464,-4.923784515588306,2.0847274893748757,6.887454044399155,9.848159238451121,10.557497091474985,10.066564370830728,10.275252883784509,11.64902321685632,12.762867744380443,10.83227924485345,6.478288738933106,4.08689218435198,4.096512702086596,2.625666047325695,-1.3706391255840433,-5.083160758808011,-6.658783923349166,-7.380696767155559,-7.9492065239571925,-7.038547557798851,-5.860655108585352,-5.975034261724312,-5.421261635002903,-4.630124736381408,-4.695430253349743,-2.569773662649107,-1.0821738871713897,-5.726549541417368,-10.080628858735729,-8.808287222588623,-8.113378105220033,-9.187911132940162,-8.611717175843745,-9.105972170983181,-9.870499896801565,-9.198398756600657,-14.04297563890753,-16.52955859973863,4.751334351533782,32.270161273052466,27.56438771419548,7.197252543485055,5.134963299188053,1.9399146769132516,-19.381790037171772,-34.68454455031227,-29.943637610973898,-14.019924076438933,-3.333066348957445,2.7867923207308536,22.1808208118587,31.20433947585925,53.39390529292893,207.94579981342702,437.46632501019513,538.9511808853056,438.98147868679644,-22.613388580403353,-861.0050077713971,-1309.1944884027844,-811.9118486042933,-120.06008766239671,71.90470097364556,132.52648207895453,279.79922374269535,250.8053006389507,151.56149051396403,166.83609862361376,150.23621039898248,80.11403301404108,64.64209454861081,51.3954106964641,12.653216212559709,-1.0237618795877879,-11.01449188562798,-30.848002549950778,-33.627236635562355,-31.672620188302048,-33.47363794962783,-23.482433000404583,-8.469479167862438,6.431702838966178,31.453297878140944,59.89803423075189,80.13629159949002,95.66529527989607,107.24921576052773,107.53293163094749,96.79311129427427,79.48198679561463,48.02052600879681,-3.7172102438436765,-53.779665124563785,-76.764981793788,-83.09258280917368,-90.71848668693544,-92.20728953930426,-82.60571231617581,-69.73737762026147,-53.02536379358624,-35.48893704475795,-28.430033510046925,-26.484566590178567,-17.803692561458988,-7.580216308394288,-2.9960129906497137,0.10440814819256872,5.48695198283333,10.85492049592743,13.151311702119186,12.52748904942156,13.040198356714274,18.300169622854504,23.046727574812273,14.822564799668687,-4.650141364205416,-12.535711690582858,-0.26887021872108363,8.662191841588431,1.2747720016628028,-3.472384222434192,1.317504379547561,-3.71079916879631,-18.722848150806374,-22.93124146449873,-18.19805469651636,-17.880401941790304,-15.442904962261679,-7.570575415659334,-5.542511138861968,-7.29224280786001,-5.234630353780036,-6.0711479689489405,-10.165265424349288,-7.540179302701802,-1.8232415483478004,-2.1438034815438076,-6.409881215863271,-10.866305303556732,-11.791786606499523,-6.1064667997753705,-5.102019599096644,-11.441581874983278,0.6939586060657474,28.18808719705777,28.22248822259852,7.1617258197977325,4.922107184481723,3.690602525912108,-21.207713467900774,-41.75666757134942,-38.15030527559777,-20.832128817116434,-10.010815810904333,-12.979745679216975,1.6189035064794535,25.36388892894864,36.498671484565044,142.28712980499915,369.88981066091884,536.7350657383357,538.0132158769084,214.38276306805855,-608.4502661044279,-1304.5458219146733,-1024.7800537534904,-255.04898876817023,54.138252047089296,85.95251659855646,242.58803250882232,280.7562683106775,172.6191967350333,163.37503755989857,163.3407597418663,88.52901314216138,59.26929764512697,57.55150046524709,23.52129975667991,2.2538552477230915,-9.913675466533512,-32.15134736371073,-34.894959547475274,-27.097154108151038,-25.9667165984903,-13.827480454349802,2.9842672245354684,12.81885012712706,34.161895843436504,68.28556974350053,94.01039268405736,103.71585749850881,100.3204807787822,98.35411961797837,110.82877680393588,105.52291960751275,53.88807999700572,5.951411478113199,-7.361687629425289,-50.03465060901835,-123.32490725286326,-125.48457706029731,-72.06410631498707,-82.74533568706508,-129.97153557704658,-104.01097958424974,-35.101457698927234,0.46468402644001117,9.694387917272277,-3.73648841027741,-41.59967436447674,-52.65522892949444,-23.754587380586862,-2.095369185351558,5.979878198599641,16.125963464887818,18.182772211409823,19.288019368448587,23.984969593924113,8.414734564825274,-10.329971856094252,1.2174016448392653,12.442974497960067,2.1824148127070977,-0.7447486067811511,-6.724823374988537,-24.84983806559527,-5.336944415047943,30.61727084805235,-0.6439925382854348,-51.88060682394866,-20.608700395778055,32.78173678766666,2.812282903223714,-48.81715554148583,-30.66618932311876,-2.620855753198036,-24.91452317662789,-38.372046822668466,-10.882682243296795,26.51656103690216,57.98204637377688,47.82892281268856,-2.1444347227918934,-14.337888185313208,-8.064144786200387,-39.35195463953008,-32.22275301076829,16.63342103978658,-2.0199550973426383,-34.75508214810908,16.368978316838025,66.79443687347437,39.91068398771874,30.08312664743943,170.29699955573807,426.0665755964027,577.2883046574331,449.860863648105,-22.418253826486136,-769.4475745928678,-1270.094003784287,-979.6385111170006,-282.7628154356546,76.35259547155532,150.3374661908597,263.7486311489952,295.9737361584703,205.10716574931263,175.09528744371457,168.45770011047182,103.06649118469952,66.42253251391513,64.16488207683173,29.94726410480327,-3.802418420436556,-12.262655208293744,-25.99161504469734,-36.6743157324768,-30.17553529417212,-28.33541422600479,-31.04666396731283,-15.629431456359342,12.331742887380777,34.393593291319384,54.09411823594928,81.41841636057093,109.5873143974096,124.58257973164031,124.9843526693923,118.34940094224595,100.04634828232925,58.033478754379495,0.10700761608304621,-50.03954163648017,-80.33492829061049,-95.55836025072227,-103.57582198426135,-103.54000645400959,-89.57304204513136,-67.67416255555501,-51.92861104805942,-43.19993398070089,-33.133458066590435,-21.839778291306533,-14.64861662725194,-9.820951651095996,-1.9296316311278936,4.369563763551877,1.6269787391975221,-0.5430896604443056,7.065305029369766,12.07299813259533,9.592733387305255,12.162451405181253,16.5658488278625,13.70360961936559,11.615625988957932,9.739414920759451,-1.9063879067929879,-13.130751806063863,-12.639231634893122,-9.419357844576343,-9.510975033027956,-8.842987562893047,-8.086409520655454,-10.057446113167174,-12.191355529758251,-9.451302156020944,-3.6063491134962895,-2.588180708307812,-6.456498580839927,-14.517147492190059,-30.19669936980105,-31.627903945068148,2.1369498569338816,31.34769548257603,19.80606265251185,3.0242596760501357,0.10488387449452063,-15.650320739282545,-31.26759311834782,-28.30521138770265,-26.840765209431588,-21.403306963895623,-7.4196225874025,-0.18303041410696963,23.079170345794907,46.240318307966746,56.25919241844183,181.44667902291894,425.5344023165485,559.6249685112833,457.91819537290866,7.160987851220227,-808.122234266582,-1307.3815314084814,-883.345693965959,-171.33566425545186,72.14094220416084,128.31596034294125,270.46255000235885,265.57618550978805,172.03745068828403,178.13413879842986,162.10569125463434,88.37295445680188,63.80840834927323,47.89687976295659,7.187043949241534,-7.554860741320367,-11.706123545339372,-27.721074587617828,-33.4257953887558,-31.94726268642716,-29.14439956770428,-14.389437041941768,4.197743609234706,20.652845014292993,44.65364507428441,72.38300566670677,93.97595767245835,112.8883993707014,127.59793152513097,122.97648958967217,96.64802179559322,64.1621976808056,30.124929955680038,-11.948950070218855,-54.273476228916394,-84.00460245604822,-101.18305696032903,-105.44761167373184,-93.35789872006826,-73.50020147068761,-58.333262117418585,-49.80649578435742,-43.226057187403605,-33.93599543301953,-21.73256411232242,-9.6522298233233,0.30514276738816193,1.692112048033458,-8.635608533095539,-14.71760327559474,-4.50888911165816,8.815721833437735,13.5882931874159,13.503823490835668,12.608783956252717,14.380455301688809,17.973037376763127,14.416378682527556,4.1998827675104415,-3.568845750918454,-8.463246102708972,-12.142280014604948,-12.012035907933985,-9.288300113764771,-8.33680677356742,-10.91248454853036,-13.421141471698784,-11.993982860949018,-9.966784892065132,-9.020121477489772,-6.681513670272427,-7.217336919272121,-10.523609301459608,-9.01643454342101,-7.478791413227732,-11.777295090498418,-17.0914928550117,-21.85653826889232,-14.836352545170786,14.145638615049938,34.40371969754817,24.1962144102173,10.309976755622984,-2.400651294077493,-25.570936053016638,-35.41111270155946,-31.055712024857943,-30.66943405019632,-20.133289580313907,-12.155695800135156,-14.14392506587594,10.868317788052417,34.88845966865697,70.00900699492121,233.3610071322173,457.0169772729013,567.8873378999036,475.73393047221725,-70.73915208122827,-977.8962543886876,-1305.362512249357,-685.552633196967,-67.83672542744307,46.467843341769836,141.0525798575249,283.93420119841204,218.1892809451856,140.98522010751026,169.8718129225397,134.09066766707207,73.56223594214137,72.6836732088253,46.446420120152624,-1.9097616816419105,-11.960833569223892,-16.906128182187793,-29.544129735482013,-25.869527072060666,-20.55710161404411,-19.671599856842008,-7.835188006909565,9.372854102099875,25.44315919309224,47.2440324979679,71.54289957369315,89.68621969253235,101.95699748231341,109.83584000544444,111.59851370240274,99.96870332004866,62.81897895160872,7.826469235582836,-36.399524183077155,-62.1041309801018,-82.74964571971441,-97.07739160027263,-98.57809268154796,-92.26212739744055,-78.65310039757092,-57.91907650264484,-41.70037647836243,-34.83974704545872,-30.27067957388099,-24.008783998973456,-14.117832175080853,-1.5931582440799161,4.826314170729395,3.6847796514328657,3.8316549586253235,5.915615498357267,6.656004214040406,10.678916363257098,17.169905693920825,17.194160869410034,11.629244928922377,8.776727205313957,9.863151238043265,11.47672431051223,11.655590250608538,9.723894617519182,5.885788662235967,-1.4864045824253633,-12.695972186590888,-19.711645903369735,-17.498479551004706,-15.014759191803856,-18.017946321218034,-19.04711344334548,-14.970215119429117,-11.21011637200614,-8.199716390700964,-4.272474612501751,-4.677773929634098,-11.04278579635529,-12.534241615703639,-5.043947159351919,-2.48480702314275,-9.12142048448336,-12.704390994315244,-14.165346448808176,-13.613793700389184,6.127389423493374,31.148944210481012,28.182254840504463,12.90491217063192,4.045896866878528,-18.192091079925856,-41.57047027704353,-42.31861766064626,-39.41459727775758,-31.650360694211006,-13.391425837560078,-9.023332596606707,3.6161593454317735,30.000297597788126,42.76075447815888,140.99888334008403,369.3092970989575,559.5588767759087,586.8788423704644,260.12968752225,-591.0832444969116,-1313.7990126572054,-1049.7879901688339,-279.70455751241286,44.51281704708619,75.48729593615327,213.37215327695543,254.65259090286068,165.80526933667545,159.06445421344236,158.72021384584949,93.81076816848855,65.33411051713205,55.0326056353958,17.23393662441372,-0.44661351627398815,-3.26843781888185,-22.41039276772539,-34.160619319591284,-29.57983055264883,-24.007491398167716,-14.484862401133382,1.5134470776860063,19.349588984648452,42.353118089518134,67.88227767058167,84.06015562291853,93.22266997857551,104.29824712540682,108.98651241597335,99.2128793996261,80.63488601883085,51.7467932532229,8.704736899230262,-37.12274980483704,-72.88507615739636,-93.38443546449814,-97.97893225014104,-93.31379349670323,-84.69804094364078,-71.92485474065447,-58.29977501566527,-45.34063144820585,-31.427040705270926,-21.26047865849186,-16.26112892678727,-9.67573095088343,-0.9030904909759556,5.566544373887755,8.653714641172176,8.035370836861638,5.607280643140864,5.877599058667027,8.109665927040494,8.261522173219166,8.494095813334836,11.930966497966015,11.492973495521046,3.3759445063579183,0.7570215458622163,7.390251191533993,6.770839861618813,-1.4717013735057325,-2.7855056963016294,-0.9633513207243913,-2.2003684450525247,0.31582609623167635,4.210941917537676,0.574751010778316,-12.325531001187763,-29.987745981288334,-35.02282945982358,-19.12467879136714,-7.664737508857167,-14.778385511648215,-21.516985124921828,-21.251735855025473,-13.638281280524069,12.461197794856574,35.19318694840901,25.046959069589594,5.973380701503045,-3.203143290239139,-21.044446261650897,-35.280072562468334,-30.004785964658296,-27.63900412675496,-25.725101976435504,-13.764932424198626,-4.340109320318394,18.953075273717538,42.52397111763857,47.68011013816242,151.37232328779163,390.9550244749048,572.9542909444021,536.7197846344081,118.10674841936162,-725.2790685580394,-1316.2264900678422,-968.668211199092,-236.96777399892764,56.129716714266294,110.8258944760983,248.56872628847427,266.74191808085357,177.88238183997538,174.27878654631388,165.3636668755096,100.25041851579988,73.88155618934701,55.692297444591226,11.954874471227487,-7.639597785439639,-15.114723934031806,-32.886432065483696,-37.20579837749234,-33.43984967327109,-32.86337810177487,-20.995714126716102,-0.9915199620540918,17.065873596738914,40.678958859617545,70.28042639778445,94.59875579060059,110.92151645310699,122.29578123564336,123.9799515429138,110.27323598287109,84.53406005058183,47.930214280901225,-0.3358842058519125,-46.363187270622305,-77.00141823787169,-96.65667276699412,-106.17505665975884,-100.49860792675722,-86.25471778949415,-70.45381315095405,-54.28902413438886,-42.790258190629885,-35.71678017014506,-25.561176005128168,-11.34502370671386,0.5299578424685514,1.870408127700923,-5.752745752806856,-6.301044808266177,5.448515859343587,17.115725537440536,23.106384838471243,21.67822399033966,9.54626518965285,-0.5277871654366049,4.988705748135084,14.607619763063637,11.739171380271937,-1.7004765767270023,-12.36623659185034,-11.751782070603266,-5.2652622885009475,-2.618614778812562,-4.322433307671405,-7.013152244955439,-9.642952059950748,-12.427785596913802,-16.265942862925037,-16.583334726043596,-9.531438643004991,-5.736077781810508,-11.288910966717726,-12.998539779133228,-6.261233457729048,-2.1558951978058047,-2.83417384610601,-4.428311975240611,-8.434175426989945,-15.743244237486262,-24.013312812643726,-20.651941560713663,6.0683598491358115,30.496785078393696,21.64144643275771,2.798189663429328,-1.5317105048854014,-11.715245551213677,-28.35851657553974,-32.87102210816843,-34.526662286170755,-30.45213756165451,-15.148099543743548,-8.028102495542939,6.267935091911912,30.311029992384086,41.40229855878551,132.76641510425284,356.6934493355719,544.9420444252715,542.5947972223805,198.6070335729026,-586.4776002053932,-1238.5135960327912,-1002.6785533776151,-286.0131507769955,41.52086428162151,87.91235629273429,224.85538427399857,268.23717989553717,178.04734069613022,163.71148536602357,160.12564596928152,94.05530121565349,65.82237950367558,57.37384370623564,21.043842445554162,4.678216246835442,-5.288330285119348,-35.99079310887016,-43.97542794837059,-28.688990087092975,-23.863154888284278,-17.602016462487814,-2.8797796316738875,7.012942458462572,22.235582681032863,50.80054672867728,77.33545484939873,93.15930242746401,100.38894399704849,98.46102193368966,89.1853919274168,73.87115666210883,46.59454743643805,7.211732011082184,-32.04950927633658,-61.28889253524109,-78.65556653332798,-83.6405383251421,-78.87708394614339,-69.89252561275927,-59.09524334152469,-50.52073312702598,-47.98951946123313,-43.739051639438536,-31.915413281273374,-21.812518860779782,-17.16194576834595,-10.218624662181764,-1.7709992703694972,3.3273061960378705,7.374571938385787,10.9423558987492,13.498375220201122,16.82654846397016,17.778849928584645,15.919186159860498,16.469017419541927,15.203118554790723,8.30563796993535,3.961282664129082,1.4744285965928627,-6.284508368979726,-12.062351846366932,-11.127395951922981,-11.035801036134625,-12.154714318838355,-11.13269858396681,-10.034147389498058,-8.31439628506287,-5.907862600709147,-4.616173188989507,-2.2789904238165004,-0.911991672753258,-5.3198804828496264,-11.217660965880969,-12.391126398095967,-9.076311108758295,-4.73017146761199,-2.547564937010712,-1.340028066063443,0.5010313308205241,1.1662108869953753,2.76801209701992,6.3659294365072085,8.062439291846195,8.825295234644283,4.207156882632759,-13.780053971362042,-30.567777110054124,-31.236211986789254,-22.48638101235603,-3.744571350655076,17.09423157231657,12.13127446537889,-4.102998961030604,-1.4315078909356163,-6.392704760691082,-30.17552800289821,-37.51130977451308,-33.010269407476756,-30.02797664285125,-14.815191544876889,-4.826025139595167,1.5961598350259152,26.006668845626326,37.588270984698866,90.93662138478386,282.2610006574616,485.8171391545582,531.343051347766,320.4589647550277,-318.1295162393471,-1079.2293938411071,-1122.5766125299592,-457.4789842243204,2.6322995113033514,66.68629859809775,176.88588919012483,269.326884101347,189.58331132226394,146.97804275434686,162.3267227509111,107.85823244763628,62.488486438326056,62.15281903509374,33.889982848585895,3.0234567852828,-3.6079882504892105,-17.590331909611407,-27.26673777669709,-19.402123524390074,-14.881443959277785,-13.350561700269145,-5.0913390838794825,6.220558264296667,22.57547891382731,46.45819310139912,69.26711727096227,81.4920283672271,82.79318115507638,79.2706335311464,73.11374780061263,62.7000046495678,46.677476716834725,19.426376240628713,-19.069764402167575,-52.38197929048635,-68.18263478757432,-72.12302039901715,-71.88793850418904,-67.85500868089551,-58.199391137369226,-46.658411760679854,-41.06148920248809,-35.735790324476426,-20.595807119267562,-8.85376811093602,-10.599502182421631,-8.41734469551962,1.9258551601502667,6.601584069584211,8.970898578032015,8.812465127353054,-4.460366913168546,-13.892863495369046,-2.7914975669032227,7.852682958509709,4.818783014178306,2.8059431499736665,3.9927941611085505,-0.09292529427455598,-3.442705141471894,-0.8411201335665659,-0.6656391415683505,-7.0779979284025565,-12.310925159522055,-11.57106757396284,-8.760157821281492,-6.266360025399639,-3.9504826751219166,-4.204408425531671,-6.682726543520268,-7.5686288685114915,-5.901604298912265,-2.199654989372968,0.9627207813932959,-1.1886927210095468,-5.444141829550816,-4.531264176325967,-1.3380231260359983,-0.700911304191095,-0.6505034135793588,-2.0662412645100146,-5.729656299762468,-5.245198184485182,0.21280849715773975,3.4808930499713617,1.700166961414178,-4.327390227014633,-9.25185078000455,-4.953645960558491,0.03473430279728351,-7.284569871820139,-15.685796356951032,-17.280740037960722,-20.588209365471087,-10.373852144783836,21.25163729806336,33.09280723730486,14.975380917061342,6.924500671613051,2.00208458607407,-21.042180559709557,-31.481696783002544,-25.383596589179703,-26.325864389200284,-20.499101270936787,-11.25079632297588,-6.113776446235423,14.663327746158426,25.47000481222272,61.227167877450334,234.03424145763523,457.144712580229,551.9015058662087,423.424720712496,-137.9383174573689,-974.977917885797,-1210.8385611739648,-593.9481283840931,-32.22434985384439,63.35339202892827,148.98111081306064,269.71024958449414,204.78835787892123,138.42541152251795,165.30405020215838,135.25549297192487,78.51997013408774,59.04449203534125,23.362389478746707,-7.661534074097055,-4.80902839946576,-14.629042801008485,-34.53794702198266,-34.25362759971564,-29.567818210429632,-26.64185861555984,-12.65832731230816,6.128917196524938,23.492364661124885,44.3499753739454,65.57749379130661,81.27720096749105,94.2163473079746,102.38471768042272,97.43338567081526,82.7153628272882,62.86646376998552,30.903817539691048,-8.351254361743386,-40.347982137201384,-67.38790706886023,-88.74978766950622,-89.72617894337485,-78.06394804653078,-74.39478801280491,-71.97569283058385,-58.71280648543102,-44.9962447567279,-37.85395019413855,-28.802736550734537,-15.7926807852296,-5.965586930665044,-1.2831218765095258,2.043754344098943,6.406463065735224,11.198491893058952,14.846589528480953,17.066118635732742,18.196156581345875,16.751332565044123,13.572326379229104,13.541506521758945,13.173152830300676,3.0141960362919487,-9.254675834456739,-8.619803300713944,-2.760039306490498,-5.878475056412712,-11.86608641956457,-11.819360351589218,-9.224714893652067,-7.103240792575644,-4.750921958665877,-3.6928969589597287,-5.223416862995391,-7.31541123748363,-7.077505684917461,-5.883318500555074,-5.53825459518141,-2.776711904471556,-0.35011941396659907,-3.588706923495975,-3.179634291343807,3.2491915499878594,2.0270056265182346,-1.02923809949389,1.5320385069931897,-8.453807807324173,-25.366118320348757,-23.989510106572137,-13.721925689545625,-1.3457376660970763,20.041372725111138,24.806321175197393,8.100429682151137,1.6186674012066624,-6.1102233569077224,-27.3318799434507,-33.69879652647249,-30.32679426992948,-28.39486130479652,-13.442950452088517,-1.474254150417309,9.10126593598255,33.151567294987544,50.024108320337646,131.06631367618195,344.530155423573,537.4582280836186,538.011654448106,215.4076363292375,-533.3608141081779,-1216.0203712079472,-1059.7333544588091,-346.6601135703988,38.03035425600724,95.69002712677221,218.44790337604783,274.1780681567605,187.88166194143577,161.08340427992496,162.1252348817692,102.15560560873928,65.63489763381284,56.76299884769371,25.099223371888254,3.7843700012321584,-3.57323352895064,-21.189164370683166,-31.188096296911397,-31.039613666424916,-31.687839627815436,-21.069759595716828,-1.4218364476543286,12.240289729240388,27.16984467496201,52.99668943925338,79.91196807288424,97.1420149218233,104.7063887878151,103.44720752465253,93.5684674739646,77.9315578694955,52.979015237997544,12.552355733589458,-33.76679133487563,-69.02608409561863,-89.20504543402241,-96.40851707721053,-90.21506580319671,-77.18218623921058,-67.06355783861322,-57.87829692866588,-44.79369977844635,-32.09346320177305,-20.610566059508667,-9.379365093994181,-10.289956204473263,-23.686074758291483,-24.526746364468313,-7.282301634136694,4.243329111870192,4.242126131881159,5.960150931815555,10.061983125985634,12.675156101232037,16.577368820251177,19.2898157296654,15.14259861934893,7.924719141041773,5.870028587222906,6.703596890798228,1.1859143624117756,-8.243073287104579,-11.81671801116139,-11.288809938649175,-12.298523030250562,-11.606454232120797,-7.073448162956644,-4.118862474139576,-7.030470384849778,-11.538319808287978,-9.979315718118778,-4.413564175391492,-2.3409817801928012,-2.6886111068107788,-2.819755834698788,-4.439263741385938,-5.4803177055679635,-3.353576264459779,0.9188771125614394,3.59069227384063,-1.0148996078005652,-7.403665385808312,-8.884714362266001,-16.723290412232245,-21.717736590687416,2.619961939859852,26.945516747163275,14.927084346609512,1.766600526169312,4.773374302718159,-8.730643034360877,-28.208381825092033,-33.14620590513331,-35.401525738273975,-26.69036525091868,-11.111573892657034,-2.0509436884517633,22.45244740477701,40.80125079337088,66.13695672445208,218.19446625883486,441.16127114010175,531.782570608625,404.36091978991993,-95.93302877452885,-900.0333121879904,-1223.2354170250223,-671.2497146773499,-56.97116386783459,72.37558929645823,131.99418316825154,262.2716125307433,220.26845572970933,141.45897316196775,161.77101677956236,134.69098936233675,69.42750023902161,58.11957141594768,43.28789024234053,11.092570145499984,5.000539739834711,-0.8134947588678187,-15.82281268742095,-15.415474121548588,-12.98678855844569,-16.51067995843215,-8.371602597143541,2.4250796762112543,1.6442040331129384,11.02521378422906,43.14008511221048,71.50289348346442,82.1515438499666,87.52966160878422,86.37448853128883,72.39963555042398,52.872366304192106,27.269874161998246,-8.771523279535014,-45.03373363727704,-70.3125891333593,-81.57484095571326,-80.45003450761847,-73.27329865633268,-63.616130606365175,-52.29812853362702,-42.50031747468874,-32.77416851056865,-23.243192124007788,-20.98080797845236,-20.97261545027449,-12.963073119512703,-4.95782113166754,-3.32636141627291,1.8743484644728188,10.244070907709414,10.705497093238366,6.390617458992468,5.981747984989235,7.899672378986274,9.720718716299718,11.693601474378395,10.478483107671122,5.320659778757816,1.059123518786059,-0.7656652035215119,-1.9218333473047462,-2.568066895948567,-3.809981720853263,-6.711282079143938,-9.29390535004108,-9.83521769036049,-8.026381858883813,-5.136248076730448,-4.533662263154545,-6.2659738363440605,-7.236352213946834,-6.673108279754862,-4.099857300033799,-0.7289642066474213,-0.6413734653755858,-2.948809583997808,-4.547947300352982,-4.479057107282453,-0.740402561755551,1.5779619791070187,-2.800622179864753,-6.164255820586818,-10.62710836298614,-17.56621236009189,-0.31955516490361413,31.26324431752554,24.610576844428614,-4.079871130786736,-8.535560936903686,-13.977200553783941,-34.13678421338711,-38.568680737444296,-33.52880224064878,-26.66567963195674,-13.160879850961269,-6.9682368222997155,10.906217318492352,37.53617239979915,51.40751164091449,155.87744354467887,373.18327579009394,510.76663400458375,470.9462282612246,138.53066949181553,-618.3362817981081,-1221.7921420194525,-928.2777341788124,-213.63427639134355,70.80863548564143,103.17424702247979,233.18654280122522,253.90020611675556,160.8974838411382,157.5742607358138,149.33062591541977,73.92194703258696,46.79467741908132,45.10406982686919,9.925090258506621,-9.625128098600802,-8.879949889562502,-21.660223816433252,-29.445516068455788,-20.055182509422977,-12.263910463984963,-9.778154332820426,-2.192125930112681,14.167506875003752,36.09105625906243,57.97139023848116,75.17722080959766,87.14336385373677,92.93095995521787,88.19569216602619,74.85614725004797,58.49613374411933,34.70304160844961,0.6595913112066809,-34.25298979888172,-62.55877363708907,-80.00126407371874,-83.12985062523784,-79.47475860474736,-75.2974185771126,-64.06657670911589,-47.86163719432293,-39.837609274479384,-38.528517531004496,-30.806987525449273,-16.581584837024522,-7.014609591889279,-2.9179662030555313,3.409990269519273,9.320387983986308,10.109164250925145,12.489860306566872,17.4624927564971,17.59624310558525,16.53369130258557,19.29743036091628,18.97321085325786,10.426523864181345,-3.972977434598877,-16.34220363886412,-16.095154858534393,-7.718646750322116,-5.89995007506332,-8.590165838810671,-7.839542767660339,-7.502095872162684,-7.234789510821175,-3.0428247817690597,-0.2553970088667663,-0.36794830654162425,-1.1369858800968284,-6.714281881593259,-10.504678889663012,-4.116226819907983,-4.499010595225371,-18.251165788596516,-20.414960254708795,-9.938505609214976,-9.373431215022508,-12.891794310869521,-11.764011141379328,-11.689527092280734,2.125081807701789,27.44061151042813,28.564697174559974,12.434275701704307,3.7679588147670757,-14.029028761673324,-34.43410976110814,-32.83356893166928,-27.21327654901261,-23.052841825206855,-12.307685105913773,-5.234503154238048,15.246782337616985,38.770957862077566,58.17132927199558,184.77305236374102,416.1558254097517,557.5261631815105,494.28755849951165,55.62784580908058,-795.5296471796445,-1310.237031123565,-863.0987274120131,-152.1188599538943,65.09025190660363,114.28582928384247,260.29145787457105,255.44246670956343,164.5203387673982,167.02191044915764,146.30705322948236,82.12554520947177,66.33347245899581,49.90969824572542,11.790622175312098,-2.389677186106006,-12.874184377074574,-29.01594702603634,-26.61387154477199,-19.186847512051408,-17.698969786102015,-8.351251313690607,8.95472264160815,27.50914450446295,50.57323432651311,78.13187421814798,95.03739070060301,91.5010527321581,87.05780063523066,96.96811094047797,100.07325882572499,78.20187503882914,41.05711806878148,-0.9407884450702726,-41.9599028039357,-72.90791452443028,-91.57753148253684,-100.1708884952189,-98.3567150923534,-89.81142032168742,-78.79960068985301,-64.78301043537402,-51.33722338128606,-44.0495192509775,-37.60126317436051,-24.20572733193992,-9.318202877228792,-0.22461062254129516,7.367017323643278,14.094394512903268,12.588184940793452,8.579981463757964,13.177136367933311,19.75293547428486,19.59919947699909,16.006770948101696,9.437047953911017,1.4194744532601993,0.5175977449113036,3.3108909199684935,-0.11819122456845754,-5.63185588079317,-7.263196577700547,-7.311497611053874,-7.558536807495565,-9.08181153641377,-9.297392753815927,-5.223659444887822,-6.768693861345623,-16.847148053199,-18.99123925442757,-12.730903733950184,-12.582955662546308,-16.130895300447698,-18.37427407779898,-14.86149663966246,7.908947650032159,33.420264278340056,29.8155585481897,11.349237031010782,-2.6609443838133453,-21.629965007274663,-33.709179397648455,-29.445361926610886,-26.10792529171513,-18.85098006966379,-7.398069923464696,-0.08213623278539828,25.350394811363245,49.593249798871994,74.96980761136962,215.19783586983985,440.93431713440793,551.0933459365883,427.68125261076466,-81.83955720158582,-906.2944198346677,-1277.336071302896,-749.603346875193,-89.92398847953474,86.53368531400103,145.40510914985884,270.50730650769947,231.1732008213115,141.95387620793528,156.6017130333911,137.1630647323122,74.80041234270732,61.040782350810495,41.910335215452776,1.160458774287017,-9.355027174394836,-11.815945175390581,-24.85201050654507,-26.18654824491197,-22.531091749390566,-21.471922276174574,-9.809480980594103,10.630232984208636,30.204284619909593,49.832932501281235,71.33085858296491,90.96050598710764,103.50487041710753,107.92307290172064,105.54081662911642,93.42576297580501,67.81789345173274,29.899561990237693,-15.091268807204257,-56.52293618651226,-82.04397370657098,-91.9559488559343,-97.33473931245183,-98.15175843225462,-85.5299631673921,-66.38357863516774,-54.6268075222648,-46.18317858651135,-33.32727151733832,-21.159166971793894,-11.25429405014373,0.0894734513233928,9.060548062381113,13.22409690054299,15.345779788156989,15.470566621769962,15.725111327860033,17.001881274782143,13.265223813602082,7.041030467702118,6.117257684571825,4.881194116493822,-0.005896618094339168,-0.7966033191380752,-0.7717806421674336,-6.210729927777486,-9.06914493995038,-6.8262525601756625,-6.465632925171413,-6.431050389804794,-5.277078469685074,-6.0532682121614165,-4.9253711362192085,-2.6848243577935964,-8.37096890514746,-17.748139353081744,-17.806406356443915,-10.612018374582977,-7.795706954356339,-8.426177021559434,-6.741838158195556,-12.02019475223339,-21.827314210105094,-8.521208508322422,19.628589382247004,22.306513690509153,6.563820707711298,-3.918239003045563,-18.765239320832393,-32.68400404439113,-33.35851400735176,-28.7896539640751,-16.496752271057574,-6.099219816562297,-1.1246734297610885,26.12715009605691,48.376598728225034,80.15561103546145,240.27161734436936,455.85819152714004,521.0610284324491,362.9693904469679,-169.44974665427296,-974.5289109677224,-1235.3499438826575,-624.8160401075788,-23.776985406073514,81.19496999874129,153.97503053578197,284.899077813321,222.40435137608097,140.55795909274562,163.38191451617473,131.35491439141813,70.20360557507564,62.967051367113484,39.70925147728303,-0.04486551845500664,-7.526968351197047,-12.330788686277844,-23.43534842108512,-20.875531788026002,-18.014829646159694,-18.215656888536508,-7.822712019076771,9.550626788083274,27.657444657602863,47.36743277174678,65.71287551532795,78.4683553738604,85.65256078674813,88.99757981358718,87.0263210761605,75.54285439031074,52.64676258297758,20.233508857417064,-14.596502251824386,-42.07251395623041,-62.23799441743513,-82.44115865202085,-96.94645152423655,-92.51411092974911,-73.87715040521601,-57.18290079711577,-46.79822302575057,-38.60954477109704,-30.061690814524482,-18.730479574929404,-5.836181643412981,4.681582149022351,13.479869733415498,17.446339744917786,9.262526726827263,-2.205125298579471,-0.4076151212738939,10.148685123040252,14.174764133295014,10.4882789047441,6.613892998099748,5.581125719786923,5.2959166052433275,3.4496713279427205,0.2637628000842369,-5.488364996956491,-13.782884195837063,-17.102570519724843,-12.875781242425667,-9.172053174462834,-8.665865324182773,-9.288399871301753,-12.605038437167497,-15.708630762040093,-14.343351763732933,-10.847003698278712,-7.9222882335490254,-9.167906083443693,-15.286608220829823,-18.48153931321497,-19.221186127004437,-17.84642620271347,1.2030704649372854,27.116229466906784,26.969227260233644,11.887633532401761,3.6765606139226015,-10.310092878353835,-26.370028064763986,-32.51798143528634,-35.44727794798308,-24.815910105145846,-7.348427173094329,-0.5880567872387914,22.266673474668547,43.28019526989635,58.31196124396129,190.3057004203364,408.546553809724,508.8210525879083,427.80567372591065,15.054786177254982,-793.6164109535578,-1265.6661434579896,-801.4611399656544,-115.00025856513217,77.97092036001993,126.53107321586762,261.6595429102723,234.11125115269923,142.69557116890195,161.27334357894284,145.13163840477063,74.49547755289927,56.847968386103354,44.795611614567505,10.081896368803012,-1.4712950965166485,-8.406425706757414,-24.891338661501045,-26.654353914695978,-20.322062654038675,-14.592129614776136,-0.18041129117978727,15.781059293976128,25.768618544740583,39.89611500310486,61.85823768639999,83.08468075095175,96.1517813290222,93.34955994528791,73.57972048926487,53.18628023219425,40.89742826307792,21.539303766473434,-12.238398481887664,-47.509631087699574,-73.40713220531515,-85.15971149728375,-83.30095590806758,-77.09738570992631,-70.06048462326551,-58.98557402859514,-48.491893635411344,-40.2000356160316,-26.677588185662778,-10.482166505323082,-0.8037371807155189,3.7711269817708377,7.855722700749105,10.959855292183368,12.735974862809861,13.310516935904122,12.20640321276434,9.524690405396857,6.12385746805354,5.4511331425197005,7.848119427930202,5.94840189661435,-0.7663694431093697,-2.277085687272164,1.154045371414079,-0.2030672432097873,-4.0472648597802054,-2.2530271789554117,1.8805957108391107,3.285760113347316,3.15320945620787,-0.9787511191743938,-8.534665486937122,-10.601556298185363,-12.112401783869517,-22.978505824309593,-28.4074421407424,-20.134566505321878,-17.6512253763847,-21.966274626848907,-19.988543851735628,-18.727134005647528,-10.863211419529822,16.413006304402995,33.09859679104289,20.83577815740507,4.059044317317355,-10.669485173674627,-26.84075017999735,-34.813899986948954,-34.592758764591096,-22.03994569849253,-5.7346449561220325,-3.846629432842022,11.818185454348654,37.40148954366335,54.33954897888133,169.2870852995215,392.37245960193883,532.6987100360393,491.00223271927155,111.55187627160572,-717.1546073283397,-1310.6301962604389,-932.8570306148904,-187.18875975191685,72.66665946132018,115.88059271712555,271.8405988313759,277.3684991939407,156.46165467133784,144.65318489299057,142.62114211590196,81.75667926262933,60.5657709686793,49.70578157020413,10.711235705025025,-7.423115516618031,-12.056533858942963,-23.31817421372208,-23.740566078316796,-22.598966094461698,-23.52650559114454,-7.845433314212155,12.757884076445475,25.42870286240517,45.14274105016587,71.36601712014445,88.919394185297,98.94571529699597,103.53950975992291,98.08338170667011,85.61355356048014,66.84800090741682,35.86442553467864,-4.468566149865422,-44.0200978664422,-72.74043388109618,-84.8978032875537,-88.73149199823567,-93.81650184394424,-92.95587125640503,-80.9486581240257,-67.00876787771557,-53.79538900771771,-36.35550926510205,-19.974955045930873,-10.585950064619624,-1.6377171185779922,9.163165103398745,12.929508638362998,12.564704975212402,20.030438066690408,27.37922385490539,22.03966222282335,15.555152265561638,15.888402766366688,10.329082835322563,0.836845307295544,1.3240591070706946,3.358234278339685,-3.661996207407423,-9.206101624301382,-8.356691869837988,-8.351338500058432,-8.099986620064934,-6.684546477257692,-9.960307704248132,-15.864925672169413,-18.648839608060158,-16.28678184118873,-8.431186179026966,-5.553311350508405,-10.642788004434436,0.8593736755633103,27.650774725955497,30.209278161827854,11.712133241671939,2.1451486039495338,-12.88485967017166,-40.95309370803582,-53.71458615055072,-44.08345854099449,-24.060876543811798,-10.120113824962992,-5.77524733341799,18.79115653388718,46.32898688756765,64.84507994146699,189.05979352431558,418.08418509654274,544.7892372753145,446.9801396808002,-4.4029346144162105,-817.2232803695963,-1303.6458395526718,-874.2974000385811,-165.44119047505998,82.42698515244665,141.7501092327415,276.5786915904027,268.02648807502345,174.7703620226302,174.9669734468584,157.07797410246798,88.1109723192859,60.66553652481936,40.10388019448432,3.121814582840674,-11.465725862986066,-20.912424599018777,-33.263041859285295,-28.32659704509781,-20.70388075342059,-18.221827449425444,-7.754417215134641,8.444951737935952,28.34730907433621,55.003322346216855,79.49684432586758,93.57433998175372,100.40629456085459,104.1810580211957,102.0216405588754,89.06475783779823,64.23145583555635,26.110879946171437,-21.03488943587616,-59.625165135510045,-79.7128660057842,-89.73548760651829,-95.36593959432139,-95.29906416281665,-89.93566860886433,-77.66248068807927,-59.7699124308064,-42.65307550932333,-27.661570509603756,-15.919282536226795,-9.728064560587992,-2.849278729550324,7.415867056218289,13.567138480462235,15.056898634099532,16.43850025024623,16.51911204313447,15.814006951834076,17.702313838489488,20.427721172617026,18.40101014303729,10.800224625519991,5.009280454296662,3.4774656083735174,0.5233093332562797,-0.2261563461613454,2.1299470115406987,-7.296679244679186,-23.31160718363039,-21.930355199712547,-8.53218428981943,-2.4896268928784764,-3.653064898282487,-11.121112996532453,-23.562190540904496,-27.54391646984545,-22.38134390384344,-20.547876333652248,-18.148370341703426,-2.067680276992496,22.355686540630224,33.95331712241413,22.13886504042241,-4.356250783420133,-29.05462766661136,-39.3342549511717,-41.57557283795792,-42.69810338106251,-26.690313322410766,-5.792740232244611,-3.583455031366526,14.80900663005047,43.522070796974475,56.63805644370362,167.75883852962193,392.63190804942644,520.933667145091,445.706064289958,55.32980647973204,-733.4321488984772,-1284.0458207172587,-901.7381491877593,-166.06524071226545,88.76475052751901,121.57508751361576,266.6049067536712,273.9967200993434,162.58545715401465,155.0207484716995,147.32239666219283,78.54063269817422,57.0033101561809,50.589994671408455,13.263235136139727,-5.704032638618347,-11.71764491311113,-24.738070379385874,-23.33311613858934,-14.968081468473368,-12.57620273158379,-4.448767394963095,8.117809233843605,21.5140229430092,42.378440602126744,64.3112220411667,77.84573830123051,84.85389999094959,84.9711880373525,77.02741857000005,66.19481004959924,51.54301282484322,25.534494005729943,-9.930228547389614,-43.32242434621702,-64.4640968475043,-70.37427207990726,-68.62186083358593,-70.63688143095021,-76.9180175895755,-77.39469791791028,-65.44134974886798,-45.312337171635534,-27.389187989887972,-16.090718326566112,-7.044581558665087,1.7555327907196663,9.133581168144527,15.752050938908297,16.678547428884432,8.365343455791391,2.4734323484097906,5.503665317699314,7.3111551405347175,6.356102401469235,8.290906329424805,7.710994568395653,3.0328152502617307,0.8632986328368126,0.13917657546867268,-0.5076914920530022,0.01632091589235163,-4.109960609136335,-11.820845859744708,-12.947197243485562,-9.546857315765415,-9.425596922603493,-9.868133634748801,-8.169164165373333,-7.45299920659372,-6.858474500727694,-4.389201416617187,-5.48202110422937,-12.327216654558846,-15.41555379758493,-14.222481155408007,-17.486402912471313,-11.38283269718412,15.009716224038685,31.75745324561811,21.07249445225075,2.8902950819576816,-14.630955526156493,-28.104152604239204,-30.82142654527007,-34.04847977801148,-30.02207873754378,-12.395646356551296,-6.014370870236945,9.543199303173315,40.815164883514775,50.07481896286366,132.70541562507304,344.1344815964194,493.1576315873808,468.1142700126459,182.71135233751676,-547.1068643779515,-1233.2852813474485,-1024.8054788550653,-269.6964847357764,76.5655899368382,107.89016657148284,246.7768108644828,284.1345445953343,166.82011449905377,149.44730022460257,164.53728462175636,98.21304376541214,52.67515356255692,37.737509872692996,8.140720488225995,-2.87795835032974,-4.318909631355648,-18.73123728509737,-24.77415772408193,-24.02635493687302,-22.41549521474807,-9.608199605628059,5.668254386291231,18.461179135874907,36.68791825261205,55.93253443023304,71.43933423485201,81.92718629470563,82.31716527747813,75.98575655365683,67.2928607189754,50.824563706000944,25.26631514908987,-4.663739703514052,-35.33853115803294,-60.57659515708219,-74.21666360237748,-76.03224209204197,-71.35081451952655,-67.68329423878075,-65.50775313579696,-57.79068126670732,-43.632031067044025,-28.84209850850925,-16.07310401491415,-6.086641181439383,0.1538990463403458,4.378892709580825,8.822406203556934,13.29861504087914,16.210833082984173,16.269766612951692,14.055467231967233,11.520104895766618,10.099057928003209,9.803481569210678,8.871871449616997,5.971229309283498,2.238940421509247,-0.9297226918511661,-2.1333619958300534,-0.5779256323002526,-1.3996601654321559,-9.29558255989577,-16.616377303175515,-15.361274875411906,-10.965136855427488,-8.457339973327485,-5.723585049401601,-4.392387856060209,-5.038168628719719,-4.769414753406622,-7.015228668301406,-9.363637718352336,-2.49698876902936,3.264760242828941,-3.1469836102589905,-7.123947400235075,-5.925265532763378,-7.656131379791943,6.75861100715087,32.74215505732359,28.89290330196005,3.676281836979171,-12.158843589300233,-30.373985120363326,-45.97753091245763,-43.74009848913438,-41.767182158599454,-33.840287396403355,-15.059763683602903,-5.5871861932382245,17.619994487383792,42.76561290309512,54.64078872416056,172.2134469596026,386.3748724640807,502.59541503394234,460.32007730884953,90.66572054777191,-738.4909324436815,-1291.3006913251336,-856.226245995963,-131.8291954761775,73.25947955650125,110.8133713493621,262.27062176246204,245.6722714526959,141.35191179755623,160.26276210859257,153.62240939464735,78.10261530357504,54.636991102275374,44.6872243744822,10.530130441372975,-0.46086171120177966,-3.7447831469326633,-18.8659135158802,-21.97594623649317,-16.901668232980818,-14.025281750118005,-2.3743056946696903,15.69805423982222,28.311253864862504,40.60052969540212,61.39376758731447,81.68449012873226,89.63461785871608,87.23594638954265,77.54693819068318,62.460448360269794,46.89405469267756,25.063520971427728,-9.026187080008988,-42.52567496214459,-65.01805313190334,-79.92093393917527,-85.56361366073396,-79.24155313106691,-69.5816772352267,-63.76685956922334,-57.133310449573635,-42.89089119452674,-23.983211331735593,-8.339506806593606,2.7431146448233967,9.386748900467389,10.306844212321828,13.162260679668352,20.84103905672523,19.315026979841296,7.5949726622355325,3.4622473878767974,7.1975239519831895,6.7792285945552955,6.0385843578909135,9.60850473211326,9.997474189967498,5.922108665180166,2.0894763928097104,-3.3953002462429422,-7.657572871746906,-1.995328043619221,3.864665273691684,-5.912883302361751,-17.538099347077278,-13.270735025896139,-6.749785539970267,-8.135496929173835,-8.482012250103587,-12.449033934716018,-22.516449104049236,-21.73399570759875,-10.350899939312768,-3.6927682520865517,-3.5306296275360136,-8.960239039611519,-16.633824717776882,-18.696305114336912,-17.432123235527925,-7.3790111529275455,16.688014060026635,27.56472120415352,12.863588274846297,-2.867220488522135,-14.782028959493207,-27.883644174862823,-33.76644144897074,-33.206018569911485,-22.885850777050464,-9.115404040624007,-4.955559913703034,17.551304734040933,46.57765457998707,57.70952486284559,164.00435905592784,387.9892814580551,536.9185534796482,495.79035123219427,106.19186860386435,-730.2927709848273,-1324.6304053790952,-943.6175785912889,-189.1505302961456,78.19786773420248,115.42841190169577,260.69817753427566,271.41782878432997,169.64070907359775,169.34329321954908,162.4421269293742,92.7482934833119,68.59268997744462,56.263798259875784,18.08705852147659,8.364487940745985,2.8219446808960154,-32.630643719223386,-50.432078784965654,-36.177177196346356,-22.851620374937063,-10.956746980500068,8.746946222930276,26.610887130758453,44.643391832364756,69.88229899664263,90.74805651010698,99.91090811492197,103.77674609258113,100.76059333959336,86.28662196736802,62.923653802458716,32.119688014448464,-5.2360910880384735,-47.17308626546846,-86.4435890279156,-105.8455876142317,-102.16854461077122,-92.960510290683,-84.24258248803432,-71.95688932432665,-60.79545484381475,-49.82847530998114,-32.7432916182978,-14.992209462194506,-3.8668668210246864,2.8049452127108054,9.993328570312345,17.441132438200317,19.931508670470883,18.84056101937474,19.896291431919117,18.44685288765898,11.69640460363453,7.807559865521005,6.653634900755734,2.69820247056916,-0.9568442414891916,-2.7619791961340683,-3.489322372212916,-1.7237055499436122,-1.7706337590664312,-4.484237112456593,-4.216724511694077,-5.130416902278522,-8.415005341918125,-4.501985199956399,0.0249048757551229,-5.718461941849167,-10.04249001796704,-7.91211188658948,-11.321615521008566,-15.385031825486138,-10.658569420167897,-7.593555065366962,-10.248952151332848,-9.418473135666416,-6.802322911678067,-7.973080167213199,-12.091713285490155,-15.459328367167315,-6.52430305116069,13.955036651667942,22.206820164474003,14.666851405072588,4.994303938608454,-12.203021164483232,-30.969994484606318,-35.05205230494228,-32.153338553189286,-21.595795593358257,-6.039788170620227,-2.0916655848709738,16.607825139741387,45.512601031527026,56.42739828653566,155.0610929118315,371.76433953036246,515.0750420983348,478.6565829155493,131.71079118868872,-660.8069536961511,-1280.737265993391,-952.128699583878,-202.7288323080671,68.85647603499868,90.32623171477697,242.00410170344526,269.6884817867839,160.4932082549381,153.96353184074655,153.7697015512647,83.14197033086275,59.14222586643625,56.440373270110655,18.32196228232825,-2.651254228150286,-6.83723000930026,-21.40057451056152,-22.956994538095124,-12.776882169600167,-9.67366949467577,-4.558800360957406,8.768529615265745,25.962592071007133,46.728342510582955,67.41334886198311,80.99252216989686,84.6104298417487,81.9250001124293,77.82926606520651,69.26900858123183,50.113941246319904,20.535911258812163,-14.920605993897825,-48.01336856730244,-68.84434741987809,-76.15066846647468,-77.52601632699498,-77.37903644171801,-72.38124604829132,-59.64960266430318,-44.093755056698974,-31.517658728109765,-19.82694683222382,-8.361653606171405,-4.913657298482384,-9.565088889361734,-8.812648777675054,1.9687336329193172,10.633009263314086,10.063006294870391,7.348941992676836,8.881403948714187,13.257168411598999,16.977285448668916,16.84500758898192,12.532690119328024,8.563824826423794,6.48060076724058,2.40893288853536,-3.066615416752832,-6.440015529535392,-10.297031791112431,-16.745738486530747,-20.951231697557628,-19.008194181574677,-13.245190839285408,-9.8227902372376,-11.983644797673232,-14.219474311168804,-11.09662420474917,-5.357184181330849,0.08823510887533104,2.8894388771745856,-0.7959538080886297,-6.101476594196743,-4.754124063958369,1.4934096958808807,6.612744640248839,3.7124463963180325,-10.951636586176871,-24.70937087556415,-23.446941930709507,-15.491092480121825,-16.367321552296175,-21.436258088032865,-9.976531069660231,17.648736181714547,32.035320662180496,25.632669740280072,14.354023091669177,-6.5363427886677155,-33.38865369779186,-43.14103701104301,-37.34392524009072,-22.99384202429571,-8.744900738418423,-7.5278522328609725,8.610161449568768,34.90293673016705,47.871056698282985,153.26956052755634,369.792735497989,506.6861946906306,478.534023421077,151.09188076760915,-639.0325363290015,-1269.2039787439562,-941.4260847496563,-189.4684632420959,81.78098364276615,102.43749409506671,242.14649838674887,253.7982419518818,147.046910285085,150.75383082699506,150.29971129001416,78.63885182988102,58.27726807786128,56.88096641017344,20.558834534721605,3.9026480932970777,-0.015484890710640187,-20.257327226787993,-28.590691932362127,-20.486317278526087,-13.698528127767279,-5.656651306786532,5.318603339799395,19.074547353350237,39.12024320172716,60.022694807790195,74.70891337723396,82.04174265321143,81.28666371088458,73.61586455674012,62.93278046246164,48.62435913623744,25.19593479704073,-7.020983027431515,-38.10120696293201,-59.583914596983774,-71.58121196377311,-76.82067781855879,-75.24798730792035,-67.11362959632359,-56.97632179953799,-47.2524585595855,-33.01079132963228,-16.751567514511603,-12.268863079911817,-17.794668131659378,-14.2419487508922,1.0450107077201327,11.99401419359749,12.331297290033632,10.149986731152216,10.682541578175176,10.49189964040245,8.139582612674683,7.151362400087938,4.944622957104404,-1.650810342363263,-5.292001236681054,-4.197144320119804,-6.144634900217845,-8.289916372812863,-6.123558762283819,-6.6415494832788635,-9.740934879848165,-8.6633131807633,-6.529723210665603,-5.5350102640402845,-3.232219004574098,-3.034260447323911,-3.766688346398311,-0.4582221745820725,-1.504753784876332,-11.82246685139213,-17.082828727388886,-11.229416840951938,-6.362768362948545,-6.243916564518136,-4.357594098920911,-1.4551502769862203,-0.6830796682881015,-0.23318446042092233,-1.5606609186061817,-7.458215060648461,-11.749079521879139,-9.269800851258607,-8.120113263774387,-12.69268218162218,-14.612874692691896,-16.00867513683265,-21.70175613340138,-11.791588012023972,18.1022379287664,31.91528197732994,21.792902163725465,13.066960457921965,-0.2826136438787654,-23.344879926797624,-34.60296409689649,-34.17931219171672,-26.157175623687007,-12.234350925594889,-9.026475004056813,4.855041603748518,32.41712591143265,40.66579626799826,121.6569511686049,326.47072046555104,482.7641274656363,498.1994439558656,266.38181105353203,-452.8021052795265,-1195.5660730405568,-1046.8332151051588,-293.6066244488097,62.793644981941924,71.86916443634435,203.21663857222194,265.3916886177007,161.1446763942949,142.43196738682568,156.38600190529223,82.11817383370828,40.81124462225999,47.012184827871614,18.08618403586994,-7.22819402499657,-6.19432657200228,-15.190271411525222,-21.58895159573603,-12.399303302112704,-6.7623247779384315,-2.324801704979283,11.221599987084328,27.28905468756348,44.68867563692894,65.89862826389626,78.45791087262843,73.79269141391578,65.22841174497077,63.099884570002914,59.28892808296776,46.39881385066596,24.249983333282728,-5.184117814374774,-34.79017022114812,-58.570993835968835,-73.77747958066965,-75.52882560807934,-68.8472701961568,-65.60987883978686,-61.329349482351205,-49.070797386510236,-38.046513588221224,-30.861242742863546,-20.86040823879982,-13.850093961710456,-12.799670784706091,-6.52275404026058,4.522367774393674,8.950808893300689,8.343081686018648,9.260507997020074,9.994115735050107,9.648083887588045,10.564759919334609,11.185645829951081,8.424328956497439,3.5966185767457257,0.5884218449752554,-0.49114890413177115,