ECG,-4.9591495357346105,-0.8850752685556236,2.0701178565597296,-1.3522884289103914,17.29471848590697,172.49142440993396,405.11805924217447,321.29007488666355,-169.04466188303607,-491.0628308453629,-306.5509372485858,-29.425436436717817,14.283983349760085,3.081899864702418,43.493233885628754,41.18225919843252,18.827761149655874,24.268567401141098,15.035031644013582,-0.5343472945281063,10.148063265528174,16.61177944761483,8.057500608659598,7.78693806240433,7.55932698011532,0.6623391684679285,3.532296487319841,9.431863417004877,2.294954113190556,-6.770463287224837,-9.64065231133851,-15.908487876998187,-20.247980171957842,-11.8306280823014,0.0370641765739359,9.276764310628074,19.2272899535866,20.964148328178048,11.992698754345717,3.9053460354755396,-6.015467173785645,-20.384432181804737,-26.223084343174868,-25.736249501323453,-27.001254171754816,-20.186847316090564,-11.042096225780082,-17.156672013437543,-23.37550615845823,-13.38214022519312,-4.42174086431573,-4.600367523439569,-3.215013598824928,-2.5021479059072274,-1.6422416441726604,7.289364812473717,8.650632726271464,-8.53514401937786,-19.532194348009938,-14.164261300524727,-14.297266789772854,-19.10556681158996,-10.355274530140937,-0.1992256824714307,-7.313420252896789,-18.088553605413367,-17.341794070653954,-19.017482483951493,-27.710184084327175,-23.379057074918173,-18.215190578300938,0.8048526991035487,157.67829090075253,403.6736019322817,334.0905628512835,-169.5501382910193,-529.4576032337143,-348.955727694433,-27.38210497369308,38.38386110226009,7.516351657079467,45.79973448676989,54.41835046603278,12.377982107905396,3.7901315828489555,17.63287205869028,15.201260318420207,16.67004142327886,24.71478465020853,14.243147202288494,-1.685584053621389,2.407083276086054,12.167714644206697,11.677732105480692,10.994560363416053,7.494276021513352,-5.734526468726797,-13.830610783015354,-15.904760871052794,-21.834703659382775,-16.045733817541073,4.192855303554884,14.896340431918993,17.331407961186994,23.111290103862295,21.156840332018586,9.032424614882004,-4.300224199652389,-18.410517068939477,-27.5333922478427,-30.480394005698834,-37.11605205517484,-39.022533630812895,-28.59582467071823,-22.038686628401557,-19.68949261517016,-9.399117770167564,-2.9331652664572445,-5.754238963051769,-3.925129557113781,0.15910539187212258,1.0283215585011796,5.253161600391358,4.872949329881596,-6.601047458112603,-13.04170012061983,-11.974322990495098,-16.671697228914063,-18.147457734484977,-6.903430753305031,-5.46778351753256,-22.82260278996,-24.83719457046799,-8.097350424780773,-16.170489237472864,-34.4397800021572,-23.052893652978078,-0.8515140644398542,105.07762333630318,358.92817815496755,414.5504125235193,-46.50480853833358,-535.5840206925468,-447.8637591969184,-87.85305658926347,19.96835052034779,-6.564790054959165,42.30368132845454,60.09553033004579,29.200981783433587,38.92144788500073,49.09447531910859,30.768374098855332,24.007959459574288,17.995668573283368,2.5668941397819784,-1.0400889976032748,-0.7863989366489035,2.0378783413357167,16.45210750520949,13.62650214057015,-11.968006688731558,-17.83318452668832,-4.203366995474086,-6.106997189467771,-12.78214523560003,-3.155103621987273,2.6465286353913227,-2.643786264306436,8.26154081561181,29.94991825585653,25.0814788603188,-0.039275117394206305,-9.989379303516628,-10.494300607900694,-22.0167093644822,-30.110016660155893,-24.558052442294954,-23.65696857193568,-30.27894276329373,-28.999083629907226,-21.63904695249828,-16.39426604028977,-9.275161318723303,-1.5075819795847227,-1.325079584115402,-3.7648175427427244,0.8496548067351934,6.012808344268969,1.7621733070046925,-7.167360256396632,-14.359322873684714,-20.308702345518412,-20.681235286043034,-10.806172317211951,0.598365075713601,-1.2710086823301374,-14.405108508961202,-18.61833607826277,-17.73568773295502,-33.493263061662894,-41.28489680939992,-19.6549084503696,27.223677047672908,185.02596202760122,407.28094812617087,284.64923488581724,-271.5422751266049,-590.4918476298448,-312.37186134380124,15.94606993065523,24.281176101064943,-9.184076208821562,51.13853353531288,58.555309541773624,26.466335405153714,28.726389315907483,31.949604162007635,22.23257204027042,18.178460621265994,17.935503718427306,11.580348458826414,-6.983701298744739,-9.590102437447758,21.443660283495422,33.332488211159735,5.835216713765932,-6.207902310160422,7.040038043860531,11.624471838248656,10.213709138687104,8.914903801974074,-2.9550683253426815,-13.931905831125063,-6.870866434740252,8.672054330382899,13.286363286421366,6.606618330569119,0.34650357321550196,-11.267450657226354,-31.67542405006696,-34.91541293708977,-17.78187833908738,-10.829084550076175,-12.14184287712402,-11.105118550090165,-24.307546104315566,-34.54502878040611,-15.14084742570896,1.505075648204926,-1.148941250676863,6.273772952231612,11.3626018197808,-6.68161316444311,-12.405082751931577,4.782399247278546,3.6069456661361716,-17.31486354757822,-23.734248618476478,-18.208925528113102,-17.924589729180987,-15.486342047725133,-7.791431100206609,-3.4938514530012768,-7.310113259742884,-24.61945862667526,-36.255909066599855,-21.32804566007814,4.548418988818852,110.26587003306831,340.84867690068415,357.68825812568593,-120.31419783052185,-574.6212775430873,-422.26102562746723,-33.95168990436924,46.34115633385495,-7.439877015518697,46.53604387804927,68.3120945367356,20.47275876166428,20.003500761531562,40.390257870354354,28.178895942989914,17.274003740394512,19.523090687780552,20.105165564128363,18.269782858801833,11.182623883171773,4.848219463609613,6.239700430330071,0.9932131327447633,-11.021204120748253,-5.7408465647718465,12.962520839695799,16.330328391396414,5.26848222125869,1.230883289419398,3.0233373079880117,0.40952376179521344,1.7753448946141375,15.193584016228606,26.10968225930495,14.6114770574034,-15.563222845063521,-37.50505189753687,-34.389115983178314,-22.372387137495004,-22.175060966760046,-25.116444838058474,-19.28620620834179,-15.58951741822871,-16.606780710990286,-9.202898744807186,3.906278267654642,9.818457547226942,4.82721112257204,-4.423290929762203,-5.065321956676065,0.5373497036708752,-1.4773711371666796,-6.253765146892546,-7.636311193042674,-10.33523665342173,-9.381536233607292,-5.515950738880081,-6.012833162727576,-8.745971260343865,-18.361654090446002,-30.202817638743447,-32.17459063343766,-31.79945352703497,-19.255890700521103,2.9000160554020056,37.25613583338682,201.68286558289324,402.6681527526051,175.21417870216104,-419.9638656355077,-591.2637430549388,-197.34643591986975,52.22806682623625,-12.57928102718953,-0.6283310290817106,72.94553569734724,38.733034993985086,19.741970753473275,53.442920641564115,34.593047587206605,7.786583539721541,29.00342232393422,32.66563150598714,3.6237260105359708,1.3520800669819764,25.657379065386223,27.177423435993152,6.360878943213276,-1.5598027057819035,-2.469210059271502,-10.935851743261681,-4.747005798471003,14.262227268211738,14.897489463551983,4.795250307982741,4.4978127023790595,6.759040588443797,9.05218428880853,15.15531319693508,14.851399572567711,-0.9250614279365088,-28.063593417330274,-46.025412613413074,-36.32643123358041,-16.218946458498447,-11.168153687540762,-18.46201867163144,-31.716053866097592,-38.844647716752675,-15.527731397913797,18.79295591672121,17.55797915320603,-6.703914673273575,-13.882001360761166,-8.435628105064167,-4.65997371243787,3.5710389095720956,11.732020442627558,7.7198427507310825,-5.331161618229926,-18.117901073106868,-24.57498205453807,-17.215397444443752,5.224263158514004,16.390497991251273,-8.597521791146733,-30.298245403880735,-13.599630608207733,-13.218357597806952,-36.72821192648255,-15.445771055255918,18.45634520291098,85.82065348846226,306.8092416344388,388.9932753178183,-71.12139598092566,-590.1905230452737,-457.1436457946132,-41.04824759988406,23.08668607022428,-40.55834871167513,53.81673802572808,87.46338262178666,19.537841714214558,27.6210499672491,54.07006087134506,22.740475750207604,11.755305327868546,23.87100797671615,13.831245684446621,10.277913398460914,18.412347263555137,8.972644609769429,0.9261030296946693,11.400477178764476,12.878134659895046,3.0465436210545764,7.053896857661327,9.596931732250699,-3.3247704220658614,2.8761196185140356,25.31030916562499,17.66514959004241,-1.423863171521468,5.2875235184630975,5.220552750572605,-15.98918197790768,-21.835110118670194,-21.832029880821,-38.71142609776643,-40.34474522278973,-21.042443451777313,-20.900140913076594,-30.602012804269563,-18.11817481319086,-3.0163630344804346,-1.8426563430334717,4.976369295903716,12.703174574566633,2.012571371481833,-8.641816464622584,0.6628562218775409,14.095538572176018,19.188209317046017,17.52179211227003,-0.9530931302763275,-26.35597560764687,-21.681717458019527,2.4810754248467397,2.8318664248390597,-11.253560102815516,-21.138296103895726,-38.26204215728775,-34.34289870835612,8.256632780979695,20.062984197617492,-20.3165423224373,-35.70797298221497,-23.653473596120783,-45.23760072607188,-59.545342780781056,-21.103394302780863,18.45659007056814,126.21850750843049,385.1865187520526,436.9207638341483,-63.94569362601828,-589.2455209383155,-476.3414072339174,-83.80308456385546,2.7228178975647452,-27.62474931977122,64.14033613680687,81.03443254280458,13.16229585878472,31.296353451601433,56.22560830829016,14.241315245931755,4.116993610137879,21.794078983612557,5.214530348240349,2.2660533080799077,31.275085785001174,30.06425389868661,-2.4991230331700423,-10.161478702649449,14.6832466887919,30.615143713536774,18.488848426337242,-1.7952807245881481,-14.967549093867966,-18.1509067287281,-4.014375822122954,16.901678681371738,23.291006766978203,18.15286744980098,6.918983461903448,-11.1419069371922,-19.739893880264177,-17.962050778128734,-26.94129312171082,-37.85016621712284,-31.999254753185312,-22.38640619802367,-18.00167827239342,-11.611096527429389,-10.943329277496023,-15.06671930897218,1.614833164947088,27.967320506301554,18.411368499765835,-10.255063512107757,-6.268586818199638,7.523477553050096,-0.30816976057925416,6.721561779826113,25.46960791856748,8.243405353158888,-18.514705569691998,-16.669429099301084,-10.864373568152793,-7.754009341393168,-1.4410124959969401,-12.847277795562798,-24.45275971482744,-10.823916906203253,-3.665863679079351,-16.248471930662244,-27.68569328589936,-40.17326672826058,-41.70406876717035,-17.740453275261217,-0.7393499867360038,0.3917186759740474,3.2395769021842113,-16.416424229760246,-51.86677054387832,-50.577235077879116,-22.4800655112969,-10.799822612454191,-9.100712020933813,74.74512079052153,338.1638279645301,532.9654392405123,196.60580972597626,-445.10691934003484,-601.1681852598716,-236.46439948814282,-6.889494696844384,-23.587972706559544,14.665493921649492,61.703036071506425,22.318902895848915,15.809311192410284,36.854014614582844,14.291216475389641,10.698788453571863,34.13443792790698,20.00392566727022,-0.6015996564333679,12.724843215249377,23.168027439827597,12.430066555628276,5.350743080152254,11.278788665560594,14.777168391150862,6.060487624869304,-0.7764156560541184,0.7838140598572045,-6.512694967604914,-14.714557944251396,0.508146980318477,20.57750260913847,21.73311894343648,18.270098106758578,14.344754052841767,0.8044694177759162,-9.270414534084269,-12.75923980198577,-20.43167851423903,-19.946866909993947,-10.685596421126972,-16.128009854055986,-27.397939502195904,-24.520188348313493,-16.702363106515662,-3.547864179544286,12.839782928650136,2.3341478413729924,-21.043993582542612,-11.579119065283908,9.777039962461938,8.937411223976293,5.907871736795977,0.7361573346100982,-21.654789975479872,-28.820672201582724,-10.407923765148016,-3.3234748043990177,-7.201155831893299,-4.287121162623336,-8.727161622308532,-19.134622892536697,-17.510794087055125,-9.211660577685741,-0.466638877747819,6.605771180825758,3.7857980962834503,2.0398815598616213,5.243616421889165,-10.926550285505908,-32.997916700410116,-24.88263159038723,-10.909661217900638,-22.27948826487831,-33.65684536246197,-24.305266476703245,-5.953272006111527,-0.10941112199648373,-21.585614559302037,-43.25920318433442,-42.034666045342945,-44.795359040580834,-42.45518910453169,-4.59950388847151,85.19517221633322,299.6698583032691,499.0697791306567,248.77437282275358,-354.66550034629654,-560.3079243174865,-233.0716321191494,-3.4897254459018043,-33.29943706958541,-7.7120280659755025,52.92230924522243,22.831135744004733,12.002275776513939,41.43479443455024,27.237073868948194,7.904751294581375,17.741906152885967,15.363213053787778,7.253025588175975,17.443687997574127,25.10111634626014,20.681072407082745,19.817009810657304,21.34066521640388,12.80455697981388,0.08086134514354448,-0.8172478950874162,5.209755215822242,1.3754890120838401,-4.842109155200006,1.8408885352834434,10.355383008960358,12.198389945831485,18.568977021253723,18.7153706331128,-5.338022999084538,-29.338801582725996,-30.98054454938631,-29.52387804406893,-31.45360947159995,-23.846341701170132,-19.871936925867516,-28.887924963667874,-30.84909412460244,-19.474472717447263,-5.38344301519086,8.202811835718553,12.42623302536176,5.078871003486592,4.438755421065114,6.138604564385151,-9.478954426955973,-20.528839818482655,-5.7698498128826685,2.2087506833740314,-13.163902010438532,-18.975743910645225,-9.049708472782237,-7.508489944116043,-8.933357527553978,-4.405699362372834,-9.188772233123206,-16.545092727271655,-5.953491406107817,5.790231771081038,-0.47867731979553696,-7.083127841916182,-3.9550383018632047,-4.606359655966873,-8.582881411137318,-7.324049711832938,-6.683139243839342,-11.839627500611723,-17.989159312185222,-21.96385181914983,-21.678662374600023,-10.470965201550408,3.9961144124541734,-6.085935512168668,-35.152089539583194,-42.95674657948773,-38.48290971611593,-46.25592939125702,-35.949755240799725,7.31540445122323,127.2188658633054,386.38265510462287,507.7648866609434,105.63579638030424,-460.27241417544974,-490.872955422034,-143.56859266861875,-5.143641066044825,-37.20560701240669,14.607457665437362,52.3981126445894,17.22902156714189,13.165821016700324,26.18310215510432,14.316201166239106,9.98669789855782,11.66670261801492,5.892366610301339,5.1167238777872015,7.199212139465733,14.372572153780615,26.66103903152285,20.521217074045627,4.117054665390343,9.456747501745593,24.186023272139238,23.15633484968005,13.83526587219453,4.023199026579988,-4.43947215038458,-2.3450342949356133,1.097483973525824,-5.830849589438351,-5.601921818397781,0.22314779230778647,-17.165274849512347,-40.511851822547555,-35.874015154430154,-26.87796443025246,-34.6261954522668,-33.03617276793187,-20.131480137759304,-18.843714811678183,-18.429988630139174,-7.476968899754425,-2.148005504294824,-2.9873972618300026,1.5145586871772156,3.51055933895365,-1.4553006204543149,-2.1137390388957344,4.3649386148928535,9.80001210898673,7.024021704710744,-2.707778514122552,-7.64543174660797,-4.0828173151962215,-2.136705282415347,-3.150669639123139,-4.5713437345720696,-11.402481468055434,-14.37172041879004,-2.401226182805006,6.461348746873958,1.4760437438353318,-0.11280812789054906,0.35334531452219053,-8.658525699419698,-9.919359741603268,2.87426715970076,3.829588318020729,-13.089259212835431,-27.365432255882133,-30.06032806841259,-24.6926356014104,-11.572669133148935,6.73959358981405,9.573876695453507,-18.249501187367756,-44.60946706945536,-43.900449893131366,-46.084561625018715,-53.76823234139935,-33.051298740409905,45.42721858243269,256.8444143047027,504.70933088737326,365.64963636608536,-214.95720107704668,-556.442569580141,-313.99642393049044,-13.827253936893017,-1.7671743937647264,-24.055957751059992,30.848595462793554,34.07430324973742,12.435596103257398,20.70284754573001,16.565224937443503,3.2454179469810587,-2.3964377818181015,-13.907699986643912,-14.327087662489326,0.4782016075451523,6.141711443957252,8.326776459973992,12.954295241885372,7.700924234511469,2.5471244765049197,7.90417606204954,11.390138878231317,8.29150571421451,2.685441174051987,-6.36225328852518,-12.782184865732637,-7.482750869829935,5.197480620493215,13.370555985390986,10.386978230223601,-1.1547978509024812,-11.40357424413024,-14.49281055813876,-15.949702572227514,-20.210743157960657,-21.829575671890108,-18.39422201921692,-14.67745774241269,-10.061688280424184,-2.304148133925704,2.070979817949615,-0.237497254707856,-1.8808635398307523,-0.8172593078707635,-2.0744726192463485,-2.144459635689696,3.099084260704487,5.18070229080492,0.6212502648738791,-2.0569700147797514,-3.227384742394337,-6.072393192970855,-2.166403779627786,5.607699866078337,2.292984500305648,-6.314142535419721,-7.360172960533848,-7.83006793849534,-11.56104880631122,-10.994687371106124,-9.44632132677761,-10.189709788250036,-6.639309163280485,-2.767556405959562,-5.196651340002193,-8.199164190512134,-12.80760299142844,-21.213973212509394,-19.804980049053327,-6.774986210603809,6.2778724795150325,16.61524437373471,6.452325871808856,-31.73754189254666,-52.51710219580477,-44.79140356660213,-52.48710296559041,-62.096141255716134,-27.054346204146157,103.66064542706211,368.8826090280124,510.34524060129775,137.71881365966158,-451.1176911850632,-528.0887347438779,-163.4837452683094,14.979899994968793,-25.51093849384479,11.404431981907862,53.20438705622726,8.626400168748757,0.04245723271766444,27.183856192824468,16.197942948030832,9.144343761690104,20.350922874555252,10.458358233678648,1.5203455896679137,13.453900557911194,18.738577762621645,15.138827178518994,17.72638286291371,17.785157182246646,12.18291017289662,10.38517986606309,8.399835770613562,1.8244723472366424,-4.194545654076151,-10.13857481099863,-12.877054153382684,-3.6525042487063937,8.918179557606466,12.292226989774127,10.359524770428294,4.051331419356875,-9.302560263690093,-19.742170443829192,-20.87837209126625,-17.12573742784204,-11.499141416402296,-10.341338315293424,-16.030809957311725,-15.986192823098097,-8.716306571651506,-8.959611301560793,-13.24581473570795,-8.183341095184442,-2.3674858864384962,-6.185563376725231,-7.934624709214496,0.47713194949145965,6.652941219201209,3.0491764157695265,-0.3027231190964734,1.9038752712194729,2.6750277636411024,2.066100035859452,4.446017388545611,1.3261882867287902,-12.399815869472274,-23.394310310518048,-22.892872464006842,-17.0794439770133,-11.039354673639101,-6.209927880004752,-2.4929058545981526,1.2462155457820252,-2.166671948524421,-17.775307022949843,-31.899501354651175,-32.47661897605715,-23.745613263284035,-7.969077900992474,8.768111980045404,1.4448083902033133,-33.29025754581008,-53.91051514532796,-45.059111346814746,-41.37923264839761,-45.61994463162516,-32.66939147464575,24.72410622183658,216.65363980794945,483.15692764100413,407.6696795726655,-151.1144636409125,-562.444156045773,-373.48622524271275,-41.451878897087944,0.808610597555024,-29.73389529715171,30.933121986946304,42.31160804013958,9.50677019597585,19.944343301351424,26.064451565152957,10.467011678001661,14.530826725699406,20.885003805546464,14.049001013795039,11.372711780037694,9.521275271175181,6.924813656640486,13.816596601119944,22.6991297177134,22.4486053087984,13.657217558675718,3.1379658130348993,-0.5547273288871906,0.3296902153644614,-1.908901215570071,-3.481668209505175,-0.6310861402696963,3.0143504542231607,6.8047713812929755,8.016156854110267,2.5628321844731046,-3.870854399228959,-7.529019359436283,-13.384395979472572,-19.828104269849703,-21.280403232242914,-20.130894951203864,-19.67338834866667,-19.814896311055097,-21.185096001077554,-21.871888976505492,-17.937722622603594,-9.888630449071755,-2.3559332855408144,-0.12671257576541706,-3.0307072949630722,-4.6322498263214005,-1.8478898393206808,1.6301425013595292,3.5365298736854403,4.028042719957455,4.4066818799117495,6.212347760621382,3.187339605421325,-8.86446161707077,-16.393414841235113,-11.362853013873288,-5.836283941156966,-3.4451976200624177,-0.7414535919302008,-6.765193319746945,-18.362711406155338,-20.432187086327012,-21.709450260467904,-29.70030433792514,-26.047235901736705,-10.676440597577535,-3.600078312720651,-5.9824121408485595,-16.234377043126152,-33.06530890176931,-38.669714773444,-36.03575096329305,-41.630014084240955,-41.83536415873694,-9.64717593604103,129.66421503596666,405.2912165932219,500.12559343962727,69.97336332866702,-489.7510536242781,-503.3384327205236,-139.50518356882822,11.945296738631868,-24.85188018733504,16.92010121445927,51.97040883639747,13.076356523079713,12.12400767097482,36.099080193412966,24.9376545805804,18.253885760487062,23.456270764518436,14.353244765892441,10.468637628403709,17.862453662889738,19.179326204712513,18.67080848585484,20.063898382492617,18.37962722679086,15.811174575963022,12.289848209041155,8.387123685088318,5.635885084515733,-4.68218186832638,-20.288237879315375,-22.35962580350899,-11.33034627000461,-3.0289553959110327,0.8816244212528215,2.280113485635974,-2.6056704071381454,-11.378595017283722,-19.623700200018753,-24.553186720485627,-23.607070412399043,-21.602126660469033,-21.415530858427132,-17.704369381861106,-13.43271514397484,-12.654412333477229,-8.165574915510907,-1.229424532415491,0.182267641592194,0.20447364659871425,1.016502707182914,-0.9954686656528615,-0.5976271563846094,3.209099807277833,3.3005186110072087,2.3754017581369036,3.036609162238209,-0.4206423512044921,-5.176374522265387,-5.608243910670712,-3.180392503370385,4.387872973358664,11.272605858527147,0.19610521734766806,-19.74869256528973,-24.874540449363014,-24.256596681213274,-28.724835087716677,-20.919258879321383,-4.117234382305748,-2.9353934200628835,-15.249842237602692,-28.3088847281433,-38.15989171523567,-39.889617105787885,-38.96368473714919,-39.57334390072529,-34.007633464661026,9.264594647951398,186.8938880781796,456.6566894698541,422.5128189765733,-102.8437144863988,-548.1489095598881,-408.3327569023586,-65.01870705167849,9.276462405000427,-20.656751446906206,37.02366739098783,53.62710801776617,14.243393454326112,21.97734570427578,38.36263997366696,24.32720276345797,19.90796631298199,15.047068339555262,-4.522676551179858,-5.314842532820554,7.716589240634409,7.553452651525637,6.861314686679824,13.072563866400916,11.529999945859739,5.610664620807866,4.994419112095294,4.744259958665749,0.02548319120060416,-7.357106585449454,-10.868908356599214,-4.061605773674436,8.6925364663737,19.633389720531994,25.10100753404069,19.194676574720532,4.0188739157953,-9.021950092657724,-19.974033766631628,-30.753648670993506,-32.09228907285417,-25.552277253010207,-22.39965407213172,-21.46158904371918,-18.090098301412887,-12.684028257321803,-5.087550890740314,1.1328675328381,4.129170270327688,6.795352738292815,3.5245740191798376,-6.747029263397906,-9.766349417558644,-4.822226655510271,-3.3841390515777956,-2.0269016294349385,-0.4871334837496075,-9.009039430766782,-18.20414213302604,-13.94998105754663,-7.075704905447125,-8.708018598877057,-13.638525460400555,-20.058333634413955,-28.42297099499203,-31.61407370704615,-25.299212371525016,-9.726520296743638,8.780862603775649,7.690580754599299,-18.957393066952882,-35.47814071230593,-29.634877287072577,-30.551056292665912,-34.48822841954036,-26.077162190642063,21.083008327398545,213.20639894901805,469.7853691500351,359.9627000838194,-193.96957225114727,-547.4097582284599,-343.90108862531747,-51.21518745588676,-11.772101731477722,-16.321041295833783,38.95916042027636,38.21164434119674,12.862479702068448,25.665747308098783,27.0315662987988,11.652628944449326,14.875117685601236,20.57784232362603,15.263755465531457,9.603963667840034,6.110602845512894,7.610379133494361,11.960540512085306,10.610458510840003,8.732320010777006,9.398446753264906,4.016106535914725,-4.206926670337722,-6.141624288892899,-3.73258533514052,-0.05083376871227463,4.803340221688006,10.409766707134002,17.824815025030286,22.22876034794198,16.133364586443605,4.306381147801654,-6.383377885163468,-18.0112225705224,-27.373781708688217,-26.96291557065664,-20.273018200054754,-13.681620788505125,-5.946188859440145,2.0375714136314382,2.164059938602886,-7.6740597158358455,-15.507361556718847,-13.029516133787634,-8.329919727008676,-5.657755893842603,-1.1494909953235855,-3.536244570063481,-16.367057544098245,-20.46514702605036,-11.742520398581062,-8.477342677352256,-9.727061682806955,-4.759099432884216,-3.2480876333417896,-11.333273607520486,-17.628327641013446,-20.030518124144585,-24.591707330728504,-24.79261540541126,-12.925281234650784,1.4582976945839397,-0.24235541459007592,-19.445847629777237,-31.87666811484357,-26.41182017491308,-23.311800058627732,-31.7134909589628,-44.28012102145759,-18.661359452315352,160.78066355658132,435.95177135172355,394.38370600833946,-115.9802059043741,-521.3365205942661,-377.54192807162804,-63.43719193894701,7.5860716285662075,-12.067752310148055,34.238010691947196,43.33331881187193,12.093063634107859,18.23088466674627,28.360445078899325,18.14016724904817,18.43340041035453,18.609411296692883,7.440778342390377,7.711509852818163,15.793787705367297,13.716715718051347,9.52000518855046,8.84146196604307,3.14812600749271,-4.041880117946129,-4.292987629202804,-3.303416870621083,-7.7562339885831815,-12.14387375653325,-8.964575622724315,1.7235830671270898,14.621107087406534,23.42380237093814,24.278217622016637,18.33158205394549,7.599658825781165,-8.414163186307384,-23.09958487335176,-24.242889251597852,-16.47371724048305,-13.443651245462753,-11.18599935811172,-7.367172722841589,-12.525752415551334,-16.072409669722006,-2.9881515782636736,8.073463761995123,4.772261424162535,2.3291956249303,0.010669836369158858,-7.957235048551116,-5.942203712702488,3.757741963689666,-0.7925221189138938,-13.15610565410971,-14.628256169425779,-11.786468953584755,-15.056359621545617,-18.38898683379964,-19.000670387212306,-23.061480928955945,-26.035890456890094,-18.3260537390426,-7.816198972794808,-7.586872358202186,-17.245919306985808,-30.545497322741685,-37.85227456167723,-36.48798127093614,-37.576557452612874,-38.457619791806465,-36.033722965853684,-9.3088391848663,153.69761820521396,422.91392325147865,397.8849044751297,-97.99396336685548,-508.70507244029375,-378.92244362442256,-68.41118519007628,11.916824981958865,-4.058793996898547,33.27765053467774,41.173284093836635,19.508189737150868,23.569814635144823,23.221902421835168,11.703251909102786,11.886640081007403,8.61021745084195,1.8116122789839741,7.060446756932659,11.758665948296004,9.524170111471694,9.708991161354499,8.50354986514775,3.4188020717155965,1.6550252283016516,1.851946296868314,-1.4664553808090166,-7.175037106697089,-11.751904427921161,-9.866316699306942,3.922721047276278,23.47374834134384,32.97333921809356,27.882601753387537,17.330774483427362,4.841773179449365,-10.065782522957283,-19.77800012654665,-20.2612068226235,-17.827006443445924,-16.655501504147548,-17.259458548368066,-17.678694895313278,-12.670665758143702,-6.654090597611702,-7.023727214372087,-4.831230068580249,1.6211861973989397,-3.997485507213865,-14.722617969027876,-9.416637976594677,0.7040450881989475,0.6177803885158291,2.9093697024565355,9.919293370733008,7.480517350054297,-2.984889731049286,-13.918068549844469,-24.64477381699268,-31.857449208715106,-33.52870460046487,-28.333752799951363,-11.434587319255606,8.069156582340117,8.023485716948965,-12.67550537070736,-29.289779649618183,-34.01048259286131,-42.065136146867644,-45.66985747702818,-37.940364989703866,-23.891519697971816,94.61600380607078,366.5751436378978,448.3996782907501,26.436994864860154,-469.61351880022465,-447.62550671210005,-119.98786649653357,11.621231546947039,-10.54585265326335,18.865899273493078,39.07763554787604,15.430530713277069,18.63725389515284,29.408700257751306,16.039401819567146,9.344302071868883,12.990716929262982,11.03182426394979,9.99915539734327,11.874260663209972,12.139803996679255,9.790295835825741,3.30368132467429,0.3221408012293212,6.055779096409623,7.113511956103176,-2.738083874131589,-10.65437446997117,-10.793331624619968,-7.058931315511712,3.221389863977028,20.25635183715593,32.05068898163635,30.797505251070493,22.012213328350093,10.254288053061227,-6.029825122429663,-22.497205258480406,-28.619083839614916,-23.53872884375998,-20.78880031408318,-28.144314644158992,-31.984473905579986,-20.094724237188366,-4.046211908607205,4.7242892539179095,9.324140603133621,6.609774749358165,-2.6093608675758073,-2.9657273575252034,-0.0737371629743322,-9.941197686979985,-16.55813159965043,-10.007387653980699,-11.815531248218246,-20.31670876939022,-16.747971330724653,-13.37669104101457,-21.63019242473374,-27.096734616759665,-23.365680485953376,-13.809907795224477,-0.20736937807200562,4.452421551317526,-8.185712183729297,-21.59936365880651,-23.34907768114401,-23.81221776239402,-26.175036925378997,-29.683811867684668,-38.54282077170871,32.61233770741137,285.7653128841537,481.0660742733322,204.6460702950294,-349.2903373988888,-514.954674070724,-227.05843464812017,-8.791807016392223,-8.857094160344282,-0.29456732964026244,36.089060356240225,22.828653402178375,13.524308893934037,23.95627328933741,17.671756941298057,14.130285854943219,18.46207270446894,8.826282283565973,1.2108628302200235,8.710224742834914,15.357569797817673,13.30679188224716,5.537297882992345,0.1019093559061719,3.6757977831958866,5.513719389503467,-0.5773134307558121,-3.9760906839673087,-7.132005454181262,-17.02095572641303,-18.53118622886647,-0.2068717517180776,22.884202192467257,30.255200397349682,18.220654683481378,1.2036869531576464,-7.746669087614494,-13.968653964093765,-22.96974116162042,-25.04999388758236,-17.802064548603166,-13.697700027157666,-14.2449890130498,-8.241417877256904,2.215985089651168,3.884000678430038,-1.0807363893850663,-1.708010549579127,-3.12237716775903,-10.393467452530523,-11.989220951945697,-6.560274570110025,-3.105488896860111,2.035601889039082,3.1293544255527532,-12.327682986206959,-24.883522104640846,-20.3007185642236,-21.515299479600813,-27.503504213120426,-13.370767308046485,3.316671106218518,-6.419453378329877,-25.764236972238564,-27.992849012370623,-22.893197570651832,-29.630053462077328,-33.167880870618845,-25.9282588352387,-16.75811315965391,94.22357986933216,362.79260641634426,443.2381780611497,13.145900201560949,-490.0360557171145,-460.35085328557705,-121.19187570841318,13.094937493724856,-2.0397657184894307,38.67444871179331,52.63673979923626,15.23950588795585,22.085649850324927,41.28748633161115,26.25215534387383,19.134642657575085,22.916070849091415,10.3179303692397,-6.144447493683608,-11.678890969088878,-3.711307209437477,11.009432764399474,13.400896510524595,7.457862901118511,8.0492413000383,3.774990395468972,-9.062483260600942,-14.45110937560956,-11.256274977750895,-4.611754318723957,3.24168843920726,5.346034087953255,8.377931887262225,17.93949796859293,12.871809356706745,-9.411260943869356,-19.32346274482984,-17.079708524195976,-23.025203566124027,-25.22192237525819,-16.878248342558372,-20.827230355032892,-33.120246368565915,-30.115057005456876,-19.691231324669086,-10.815786062189781,5.858255775426214,18.562610606177465,11.97892174943169,-0.624180018708925,-6.461973403767871,-5.296181252930474,0.8491074203977256,4.688969494217584,5.8682309667250845,3.8825538687335452,-12.442098909304697,-31.005442852621993,-32.95764719740801,-29.74034534435286,-19.85180778248609,-1.22627053702616,-9.461107495737856,-34.445174242067814,-31.189573893479405,-22.943299476077673,-29.169415510665686,-23.0811160645984,28.592572247213013,213.22242907179003,432.39509958286703,253.5269599086098,-328.98178107554037,-589.1194745114096,-264.08127156334405,27.045913017933408,-1.4159390152411184,-10.633407690059201,65.61802189473536,44.13582520081891,5.299524061527908,40.35928309977837,52.16550275152245,26.307191798942647,21.31202621822834,14.947406585026547,1.421896475805433,7.852125574457838,12.022634913854173,8.533615985816244,21.021933723289248,23.764002491347618,1.0870851038238571,-6.788960179117192,4.642231788564705,0.8395459074101486,-12.68322850012854,-10.935762665264367,2.329859851743705,10.921064676430353,12.872980844745237,16.26000204016828,13.567364111232079,-5.77586127499481,-18.956254086624234,-12.617976797921198,-19.103820359161986,-44.571616698437836,-53.93785579523457,-44.00976818130585,-32.004278089483265,-18.334564661293726,-10.472657328213494,-10.739882105804515,-2.5376442211232977,10.222311430124371,11.838463448508554,5.431445944133057,-2.400853362219882,1.6234862053556958,23.4443258513128,24.113316503845414,-12.103720685285337,-29.778520655654845,-13.365125365922065,-12.313898292371665,-26.424966607236858,-19.400872005917847,-4.236611499511122,-10.066331511047245,-26.37125686121866,-26.391618293994014,-19.39772034960302,-27.866799166338033,-26.822647883293214,-8.767224169551138,28.69068542804291,203.57885460433738,424.97247554497153,217.69733295827973,-392.33844394541075,-610.2466368958535,-230.67834359254442,46.09032979815724,-9.408585212845313,-3.2387619384237283,91.82831486753219,74.75974407407693,27.383019123063804,31.055341663382954,25.576237893939748,13.448971625363018,10.344384514874807,1.9740326093285105,9.833605175372295,25.753935843325575,14.215035508028034,-3.061948669047048,3.1271265127957495,19.927380236924996,27.316524843797197,12.96291871370751,-8.073644746892544,-3.3327349119359972,11.954483175195465,7.831371386124026,7.784264010549571,26.471677933122105,34.60297680465344,24.57938420215614,6.33493296416986,-19.108525873058614,-35.607209507215885,-39.05653224765641,-46.64110961295597,-47.889764399274796,-37.40770821264448,-37.93610092926466,-36.62646173000937,-15.566136634699191,-4.881291777068597,-10.14302792508203,-3.032795876737705,5.829337805466409,0.9640411858102276,0.3339840716475173,7.6686550200827375,8.569863947420526,-0.33843967004991526,-12.205876449451834,-10.40890358629583,7.392731553719157,11.917433384736128,-9.893374923672946,-32.806842619507165,-29.6678608812117,-0.12543665197925158,16.152845095092733,-10.039039306713988,-39.05608299182676,-39.056115407111946,-29.468844888230322,-14.882063725198666,-4.703389101823767,47.39914596422557,266.23133673361167,439.309504388297,99.87310563184252,-497.74432687145,-559.4443881416576,-146.936045182525,40.58809490976285,-19.090144947061635,24.799187299014182,80.32514455867427,36.55024178169448,34.04178274412868,56.87970270506457,18.472294595781012,-6.949436025638704,8.474048952872494,10.793016742602985,10.837569911733661,16.52664213014406,8.524153030516436,5.240334517802732,12.534388067844834,13.748419148482553,17.193327422369677,20.722563590440462,6.905978354006351,-8.374196144604833,-0.5165780673901379,20.134670807188904,28.280496418518602,21.44922464251359,16.349460991467573,13.806639430562653,2.0899409376622824,-13.135896858072305,-23.728916998757555,-32.02975683534928,-33.34467291510203,-29.565824830827832,-33.4164090812072,-37.35128374759806,-29.205335757661068,-21.026605877245938,-21.5272617451169,-18.55947700915477,-4.613691766991574,7.394485837067428,2.4411747281406573,-7.944381463847744,-4.989964325113469,-0.3420779289423077,-1.7431655702185935,6.520422535381636,9.683541537473186,-11.050120173138941,-20.75552125090778,-4.735940320634229,-0.3307002691072878,-5.401022431286588,2.679078554803839,-3.7772580912866296,-30.969109982623618,-36.402433151934915,-24.50567586815558,-20.436459033077995,-7.739199885080179,-3.942323972726456,13.400239606527563,197.15676453247366,428.99412104557393,223.61410665221294,-367.2283863006324,-582.4408560973048,-238.93962189835685,23.017862218687135,-9.931752861731194,-1.579893922889152,67.09863345662619,42.43605190483123,17.716140857379873,40.159359014026464,32.91457331270802,17.989615482031237,20.37702210410596,11.226721059125413,5.430084707053483,6.231024911863883,0.6402252761450775,13.125015484618402,28.52647753300273,13.824870811969348,6.257247938378724,20.260797886750343,11.257284111600859,-8.03627330047247,0.9360050085240479,10.682952066637966,5.072571303023437,16.226930730035765,28.329891772246313,6.941300642213477,-9.77072719794549,1.0410347791663854,-9.514735542941231,-37.7158799978643,-30.13639548336927,-10.395601214021074,-22.382750963661955,-37.327658017922474,-28.24206943598572,-13.115751515097728,-4.673477247289535,-4.61643964241661,-11.637146980076949,-12.52179246850903,-2.8286779655049905,4.049253817933588,2.7206425137174755,0.49960137998364296,-1.8841146064447507,-5.6492112140510535,-2.01173198174415,6.590412674906288,3.742423111930334,-7.897404117072655,-17.514887800110696,-26.470116397628228,-24.696606608843773,-4.967281424889467,9.852648772169317,2.5633061203359553,-18.027706181643367,-36.52578827636814,-41.450074027355555,-33.463456357692564,-23.119809914715336,-18.293100661473748,32.16208585988194,233.38942389869771,446.3382636283699,252.8871709240019,-302.2763327171393,-543.285418908328,-261.6690783000689,-7.405260330776649,-16.423067003840494,-13.881718288191955,43.15795084007188,27.792681240426603,12.097602520505033,36.099746281712726,26.31566914725209,8.154441280816023,20.886159771143678,19.927545456381644,5.49498757253214,14.811324614931713,24.462381861611398,11.610016575681971,7.457707743611042,23.597860595704965,27.75244176986064,15.300856723155462,11.877737460308513,7.777356359227731,-14.084280722840816,-24.172818562641062,-7.580100419123857,4.442252849812155,5.96900676313315,11.439042849724006,6.328550733404791,-10.169080309372578,-13.361409729381059,-10.804899154287556,-21.58478487697332,-30.895499801803112,-25.234518405603986,-15.923176279445427,-10.757707657153915,-7.090978470650526,-3.9825301683175667,-0.952965444448882,2.5815583244637015,1.9194807679606516,-6.894435983780669,-13.383922541578723,-4.888258960748617,7.411610008928364,6.406307829232384,-0.6317135645093099,-3.113110429650483,-5.000252990997154,-5.349756574727918,-2.5776191288127404,-4.705956966591348,-11.4907807046879,-19.819306947607956,-30.943152727805927,-30.362283192900037,-10.640117336538985,5.304780913000627,4.706713809305357,-8.205790126424574,-30.808136068483456,-45.06966862421588,-42.35748081367904,-35.38237676283768,-22.707592559072644,-2.120844892575363,89.71005058734187,335.80454017830255,476.15950981535514,115.84383107007628,-429.58472490359844,-473.595071089197,-141.28081963091927,-10.149828851739517,-50.52490598925933,2.640651583569756,52.009990843456535,23.975247821542922,19.20496910421214,22.821182448832502,4.170849593853019,14.029797733188655,27.114579619806896,8.3242471354889,7.685561370490692,28.83987266776019,23.748202279481426,6.104229148580187,4.742546389561219,7.068152233643833,7.56081606668426,7.365916399045712,-3.9514697713747307,-15.065395706724052,-13.905912220813978,-16.1994145078199,-14.961224430130603,7.45933519601649,20.323444262192965,5.452214860727146,-1.9813171771958658,2.7570957073629145,-7.0707132305061045,-18.947345921462535,-16.70820428468868,-16.220396144200134,-19.694688813674247,-16.274413156032946,-12.197136930018747,-10.015293266708222,-3.529089734154411,0.609049550616378,-2.318639158931198,-3.557658134107733,-2.3225763374295276,-3.3590716261424163,-2.1824107478486976,-1.7368874195583004,-9.96026257798134,-12.850391498898649,-0.2461566773638051,5.742441215638199,-3.510260366354226,-6.039640783334857,-1.9696688378338614,-8.505217957423078,-14.884833251753092,-8.458129435032099,-2.864602409805091,-6.7730914979725725,-15.66397055212441,-26.00371956548922,-26.22415118215165,-11.761163635580852,1.8248143473494132,10.31333921458035,10.296166783725422,-17.39508549576386,-52.17109408745749,-54.78729043523666,-43.0102281949013,-39.67940756461997,-25.69357190763796,57.66013967201782,289.88239209755704,504.6655910664475,280.2581722944607,-303.99441550028325,-547.0785443425259,-262.89368951654046,-13.084467357649483,-17.9731700756143,-11.036406664167522,41.12208441489849,25.4214393629997,8.894112970567077,22.564538616018417,10.663249944806562,-1.1014202554782422,10.369262320636752,11.875712577339476,8.155861993279595,15.68608658638379,18.639159023891732,14.393286235885181,14.030563943616448,14.139969852207408,10.978500284625639,7.836676687679633,3.817051601574436,-2.4345134287389105,-7.429732286720547,-11.028640180046626,-14.367776173300033,-9.015336720902807,7.329913896451195,17.09078026389924,12.038738960053717,5.601221262470281,1.5189908949666515,-7.6285870431934395,-17.51702151973701,-22.63342402814972,-26.098837345408608,-25.882601097644667,-18.32480004395165,-9.163471049707319,-4.4745653802750205,-4.383251001693051,-7.379313862319854,-9.614114551402409,-7.34362907430436,-3.714745644523619,-3.0249518386187813,-2.1462340622745106,1.387210541895879,1.5888200352709063,-3.940216738941425,-6.934296058298207,-4.385299916070503,-3.656278660628601,-5.687444620368721,-5.774365984913791,-6.5513248248161595,-8.810024024140766,-7.003118466758022,-3.1683171363287013,-1.541674608238445,-0.340135864700601,-3.5573977779090846,-13.892946193099204,-20.20904982575372,-16.264958912072995,-6.546397537061738,8.419252517137103,19.170372904164484,4.104037931863713,-28.906478143855416,-42.98711527776332,-38.27010050889787,-45.39734988798855,-55.91895781172551,-50.243987905668675,2.7039259117227346,207.98774208891547,485.31041347693963,393.9780024881694,-174.2149469958994,-564.4893740748012,-363.8951685199587,-45.09950590723316,-5.5079782819350385,-26.198799513576642,33.89064360810481,41.81502093417387,11.967728760159533,24.015364390605015,30.529571650281508,17.136804658257436,21.883862542097866,25.485764606464006,13.928672663689827,11.281114243371622,16.002834634134906,15.328965220257224,16.98625943872758,21.72819930694009,17.954388664472553,7.6471484412045445,0.9667806285004867,-5.054056273861878,-16.07013676174698,-24.894480993182338,-25.41857111100064,-20.072993762349657,-10.030168200169367,0.3323880908584069,3.366652601012146,1.3955422898304803,-0.9283244962078179,-6.825861674831762,-15.107658526036932,-19.41164239465973,-20.994717211400406,-22.340611859176683,-18.874311392011805,-9.947165565543344,-3.5984906461902284,-3.992635232076312,-5.50120960453701,-2.5925125701348923,1.8203391884891502,2.9657636190995005,2.5505208032725415,1.9048793082647366,-1.6533245075701508,-4.148123557852017,-0.4190157566970356,3.4182471478963707,3.8590650869772376,4.940161187175182,3.712433228529356,0.15172131813693923,0.11400600830011598,-2.172147547288409,-6.379417492684057,-2.1324883755685384,-3.0640800388599168,-18.149047604483304,-20.784061328215586,-7.854052494963879,-6.218170381074167,-12.306222382634758,-17.364372803865308,-32.54597570905277,-41.75142944805333,-23.2589258054831,-1.9780157495839639,-7.860408378377521,-30.283068134097014,-43.65640516010771,-44.59993137344524,-44.22551710563176,-39.618347672862484,-24.234799460449516,47.1573641326211,272.56314992061124,517.387914528023,350.3849067272764,-231.10273871946924,-553.7561696878578,-318.1079169053967,-29.236187745494203,-3.9594308293137033,-11.321890801014899,43.945600531801176,37.97590888769625,3.5969863599271905,10.158602209763059,15.026372728493167,5.798156684762688,6.33763268169346,7.383689370110416,7.353371999736659,12.40416111949677,13.201959911844167,10.431949232658301,11.101557239302682,11.543845201118721,8.487238095740572,3.149160300917356,-1.9110958630901598,-5.811351303945572,-12.29413898820312,-19.064474555146095,-17.43694080132588,-8.566957116839042,0.7372846043969332,9.213017744008823,13.920151476195267,10.180676829306273,1.493934864149546,-5.817144152487088,-10.787838666585138,-12.85980485270519,-11.207491212379558,-9.834112514038754,-10.491431449569442,-9.278972889122423,-9.087653902504748,-14.469997507351517,-16.153807666507078,-8.992055547462442,-5.264953916050278,-7.511568146892877,-4.961287367119194,0.3734214311509447,2.5410226853326403,3.977495133270918,1.1056335144074723,-5.628673301649144,-3.6775881947903706,3.6393419965356655,4.6809453963202925,5.3464655968980495,3.532217412402332,-11.333499570895228,-21.253293912287887,-10.967177669720918,-0.4088074586143584,0.6315974324351199,0.45808131438566946,-8.930159985116784,-27.845067478066163,-35.55004499422614,-28.79808644365293,-18.810399174479425,-5.660748056440955,5.091713000345744,-3.3202895315585828,-26.30432125602373,-38.81325986642194,-39.43014856534434,-42.81650096479217,-42.5519686828484,-31.385197222606735,39.71955788352207,270.6263707602618,505.1253148274819,311.6799054981417,-265.9290337810512,-551.941601269404,-303.41571114789156,-30.297316338589802,-9.60035984364178,-14.335485013106545,35.359854685342995,32.017523372774534,11.237714743692887,23.757914546386978,24.439358874567453,11.311561303994548,12.087218665346676,12.859486125087809,8.683125966315636,11.174110710972283,14.118082507320267,13.402006569831785,15.169361530174392,18.0242654629725,18.461575055469666,15.912779464229308,8.076884679168993,-2.9106186291742353,-12.359971003033243,-21.174435065633897,-25.452068341388852,-16.038870768210806,1.5014680540852607,12.516900273831688,13.134187072151661,6.5098214726304935,-1.8413241972450631,-6.633181984424912,-13.279635343056226,-23.96696295862865,-25.856734632674648,-17.776076351640402,-11.379466165265423,-5.553990182067881,-1.3489854896558278,-6.972608929425185,-11.143634747315087,-3.6267932027191385,3.4860682679546287,7.8850463221735705,13.654260640992472,7.76237569861769,-8.154806278793531,-13.978976940716198,-12.780214866717888,-15.415560754276747,-12.500869977870366,-2.762257612160628,-1.8003265291069184,-9.575603721928445,-10.03711672669683,-1.0764623557650292,4.400320363317842,3.225382938415134,0.5712385023006536,-6.502288740304401,-16.665792534932518,-22.235346482739914,-29.772166686957398,-40.541702100460185,-35.57648455788812,-14.970585763684031,-2.071414204749722,-7.980901485210353,-27.860011614923323,-44.53674701971033,-44.67237864423038,-41.02992189687649,-42.360045150442176,-36.98973173758729,21.266395650440543,226.292832518701,482.28404616449745,385.5661736497662,-147.25563418277935,-518.6463038120489,-351.52767491481615,-59.33737884066539,-5.49021802346758,-16.290537544999044,31.395419278492046,32.14459432390796,4.160501883896155,17.066513708636904,25.2523118967022,11.426696569117208,11.741497483982776,14.672789282472294,6.340816248151311,4.383957572077093,9.319252473265253,11.801495088720703,13.710049480719805,12.756521981225855,6.845587812314744,2.696119225089575,1.0240037804451627,-4.053452962341463,-8.871502806022827,-6.582416395945688,-2.669462886534779,-0.1948771559835656,10.758219911078088,26.57739253232548,29.58792127234739,20.775479664488874,9.903903230304216,-3.758392604401921,-14.30785121861059,-18.235621054133574,-26.871303451363303,-33.93215716297167,-25.92491711026037,-18.586319694096048,-19.399278083232005,-11.264680345200464,0.631917945063968,4.79422186590039,10.288663007702766,9.456908764375601,-6.381330990000244,-11.793993757488115,0.10270954851367087,5.566885578626387,6.413773177831034,8.76578831203809,-4.035336510038746,-22.908489593956972,-21.75664280784614,-11.754139413555666,-12.323553145222665,-14.554503692402601,-13.293413066999321,-17.007347134957733,-21.77312495471063,-21.957476206485595,-25.264272622078092,-29.84275695427554,-21.208591263929105,-1.9326031559908206,8.087072185129559,-2.5048850448558504,-23.6677832186849,-34.903850985437515,-36.753278810231286,-43.461225923550316,-46.316522853540704,-38.322941190356346,14.80125438195384,219.373620595896,479.1352270711887,375.23822341027574,-159.46644929381836,-515.7004808376089,-343.23595231768434,-59.036972394993136,-3.0853177374421126,-12.269627338268865,25.15522668185481,26.778774534627452,10.518706025712042,21.775521314908346,23.08695321196688,12.207265173350438,14.535869741462854,15.466069653496199,9.665277711580327,10.211680445555903,13.165024561095079,13.797619379900981,15.126703009857483,16.160839406509186,15.644199135464227,13.165667948932011,9.644118258385905,7.091049394938159,0.5191542650682273,-12.155151024077195,-18.435411944446585,-9.613657274224828,6.523589035089458,19.288155760985145,24.780663718932555,21.89968105575127,7.205029427281344,-17.048265450513338,-33.49859859978049,-31.571159687097257,-23.882120021313455,-17.999797395226224,-11.280551781692926,-14.28365698489785,-26.1093023546843,-23.182089682622426,-8.217490057980092,-2.6661192566936887,0.1528111509797938,5.847314153351764,-0.2881130119698394,-9.812101473810625,-5.772498516502701,-2.2278508972650553,-7.794574446948156,-7.078600710090214,-2.0785475238411895,-7.173420188979616,-13.231266944297758,-5.603708520847917,5.347788578649444,1.0480513941722478,-16.56364972061518,-31.877082889774996,-37.77694911436292,-34.917905799722945,-22.515016619687735,-3.116510721732423,9.91377231251705,-0.7061056750291819,-27.64190847781672,-39.59001784486668,-36.25263948469643,-39.60821820411992,-39.62538054883734,-29.756427641390708,27.600210100196577,242.41368974395255,483.5189321134968,320.5829301979935,-228.35720125062596,-517.8242793113621,-301.7854367973117,-43.74146183106936,-4.513162909064928,-0.7330370631012499,34.3791611975348,29.500641162969142,20.10369535932817,30.14004062649043,24.884932109303424,18.271782185031864,23.739207106262764,17.321606677664143,2.365624375837301,-1.618160612623573,1.5999583948016225,3.5205789978883146,5.458086622313016,10.113084706594357,12.206988533086335,2.8953129938178472,-9.725013751013279,-9.54840891594388,-3.0201624095984547,-1.5733877232444908,5.980496354798036,22.732725295751685,27.01541201069638,15.886014469416406,10.413155521352122,10.41980529635546,2.1127504860739625,-8.789636651288925,-18.203465397480826,-34.29868078820929,-46.25371241170596,-37.460954043101665,-19.92309834758538,-9.858482423461489,-4.0059191593149475,-1.5627627044898595,-6.318534457688111,-9.90778392676501,-4.369471186166031,5.119513593192632,9.93728151313171,5.30902988509828,-5.458414532241774,-11.367752155742902,-9.732887646499128,-9.208166449876728,-10.475697466628521,-8.571210621405395,-10.21299660695474,-18.921551983703992,-22.814931269901543,-21.15061482523288,-24.68463507696577,-25.79042430372801,-14.343997850068401,-0.7981247121114592,2.256011413644382,-10.451863953697305,-29.43484056819457,-32.591421444687576,-28.978433679039306,-37.20597412995418,-38.52471629773951,-21.509131312576443,67.51613653573077,314.22482335087614,492.5832625881299,192.90377933523177,-374.72190183357174,-529.7236429367357,-227.21383555813634,-0.0023521145621909767,9.31656410034985,10.259053775040243,25.51292552128829,11.695389339232248,15.503433752422817,23.033116797034094,7.127603029807688,6.232214397546645,18.230703027416112,11.202637684243772,3.835509677485025,9.362634263437307,7.935005615425639,4.671000297734489,15.361071996416062,22.395934331015244,11.23001369108902,2.2726856131207027,5.2900084720616745,1.4123647257582335,-5.894559215382571,3.981090131912476,15.309252160293823,8.834939351532876,5.187161899249546,13.012712279446879,12.100165920861174,3.151394250439698,-4.620326524793189,-16.163661208359528,-25.84328690893543,-30.62614383462571,-38.08845570762324,-33.77138185790593,-13.551225174579386,-11.234057207647552,-28.21318741671291,-24.413309559196463,0.17940444345070006,11.969397417109157,7.0909890584383035,0.46196767598502575,-4.640761321810704,-6.721352067286848,-4.829836172122841,-5.568504104939027,-6.775317436996627,-0.7140861012118247,1.2020177049226213,-8.482504236066625,-11.632907315095775,-8.793463171521617,-20.086933150692577,-31.93671190623547,-24.232419632569737,-11.329847838303685,-7.350130456009168,-12.64575697598653,-22.539134864402975,-25.947427128892716,-28.53828862063287,-32.48805345958198,-23.190425860032818,1.9977038087660617,120.88133008391591,376.2637945018945,424.67884665182345,-45.51947872299188,-548.3293107461723,-468.20292294669605,-106.12278914278025,3.8195276670349827,-16.36570923573612,42.04034379695486,56.398749385753796,13.569162444011567,20.304614300624795,33.62314378207353,15.327217504171958,10.051905546737423,12.707563574574873,7.192803496046941,8.978198732347542,12.223093239265484,9.050120204647895,8.636707972776028,14.693404562026494,22.23565867190412,15.729980403360488,-2.5589243965653647,0.7000005341004192,22.259055612345556,22.07194737324732,6.404247553411331,7.936003142351817,18.910048148109492,15.966724865393985,3.1282695182359497,-0.058243026207057014,2.148463558398248,-19.54203202410677,-56.29894006840926,-59.96504926525912,-35.24763656134826,-29.07634768161688,-35.48215211540337,-26.54124067397145,-19.8863571225818,-25.271601062580437,-15.431212146637415,6.490250518423437,10.272592589578645,2.775264576136273,2.1713159442115852,-1.5650952016529356,-6.397783848459099,3.414012199875325,14.175637128018643,11.488042133077936,4.962305913045865,-7.26294699304151,-24.11887409259707,-19.900761944599793,1.4494353549576084,5.664053742060707,-2.0243449096467083,-2.2441515359806896,-12.390939074725388,-24.843078654484763,-7.438238273807423,3.2550673279592672,-21.211794375979032,-28.509759549742824,-11.645500239356544,65.36559071732432,301.5111227546135,423.176102280894,6.900753803592835,-554.5669008010302,-513.3387477018919,-94.53049448678168,39.39452606269357,-24.603346868813045,27.391799901024797,71.19426998008501,24.58551506937016,17.906242007200536,42.74643080891328,29.65883421040849,11.698178702245727,10.550555289107415,9.14875136161711,8.106774479790012,9.284330166030909,9.648055683145076,8.059372048250747,2.7900512965888646,3.054935663932344,17.72076790335103,29.66242413125653,18.098314789103185,-1.998329102003038,-3.0968215735335924,10.255263726455805,20.379013267864064,23.146960576851146,16.165442433612178,7.878146858888309,10.433774063336731,2.000425908305793,-28.543702318862955,-42.01411308549542,-33.388134939786624,-42.27874177204298,-53.285337269835225,-34.522527800101635,-19.44593142222342,-27.231720065866106,-22.41387113972974,-5.102572495769955,-4.717792357783406,-8.723041711551993,0.5844124242590976,6.80576129345452,1.6758214166031529,-0.8575362516233724,3.599313040476156,3.1926161665882713,-4.972245996060245,-2.858387762151118,10.956922682638682,4.666600435747508,-24.350593618932912,-33.575022012892774,-9.496646918662172,13.351371643273968,10.273978251684124,-4.888876000894697,-18.979222351587644,-40.748864936342045,-44.41882477602023,-5.90328787256432,36.548164193465986,147.995264312367,374.87944748867164,332.0194603661952,-231.99543792114235,-657.6401540710477,-387.0572242989742,18.943615634137473,28.76291247604557,-23.96318991955551,78.348018045154,97.4883764853353,27.43017695817734,20.39478001823609,28.695411163842373,12.80312374409614,15.828903040223246,17.638728671365467,6.740814860976322,11.419236878807036,15.163623546638782,4.356320236450234,5.102073043361497,12.98634788519879,6.2936579314798715,2.039772626026206,11.218073916026235,11.442886069708646,0.8933599807234567,-1.4230980505553958,5.385403909045133,15.87212498024249,24.32933883104646,20.21018721990719,10.032792709825198,3.722420574023743,-9.4155013869831,-30.270481000102308,-40.1430346732982,-32.69883008479243,-19.35541765072353,-16.40349252178796,-27.916426777160602,-34.32798040927702,-22.481086942303993,-6.844083953449125,-0.3128143762798832,-0.6772214981324289,-4.417425254970695,-7.226556624487905,-7.650639208166407,-9.253981542662018,-5.162093973124428,9.511058022433932,10.556132238939487,-15.21493688464404,-27.130481619285682,-5.2773950547835184,-0.24425960640212274,-18.63737316258169,0.25176472788982807,28.690268436901253,-4.281573066298414,-40.593718348308464,-22.357424184575788,-10.057468730740442,-12.032169105129961,2.517630844617777,30.171403736006823,185.02031217368,409.55858594341964,215.4956808431328,-421.2812847071619,-681.9296984717973,-293.9715748103848,36.818248828932944,24.13225930195828,34.72053866487516,103.50398940728974,65.70391942890167,36.560608421372606,64.27834957867994,47.649651351486845,23.59027769209465,30.256950812042664,16.497940121844515,5.794956689756681,19.082873528664866,6.8363877307523,-10.726773889737569,11.7764107816612,29.662977583188667,11.033228286975985,-3.3482851748659836,4.474596538486626,10.010240874962278,-0.04837470560108148,-13.219382197368569,-2.6549974144788457,31.9465017767749,44.516796003439694,12.712413941303431,-22.51131619389378,-27.144870028811454,-17.509888855837108,-21.58296571194151,-40.86009453245411,-46.61189369139565,-25.414717925682382,-16.139252091051272,-33.21824188716806,-23.12184398963908,13.81620122529947,8.03088193427561,-24.54741497941817,-14.8574915988296,12.10114642859606,8.099151178871669,-0.5361854805400963,7.546149157708339,7.671922039347862,-10.246864471945681,-26.284068511253068,-22.93952358992823,-7.130383971858677,1.1573736499910385,-2.303888113447371,-6.807804709009098,-9.211277320936212,-20.505033581649087,-36.74895024037094,-28.27550558128171,-5.3934485365587115,-7.869402277943898,-12.939606487690696,8.41996061022558,85.57048717956306,291.37027401275714,410.11227578442106,15.408279658240843,-603.8173530778993,-632.5767886526371,-154.6073215906712,68.84356020038993,5.205089215510071,51.6586213586282,116.5360351216076,55.4016583161267,31.900588636686575,66.45881445656585,46.55823111889855,17.992560044676583,21.726171184083185,6.2532247551514235,-10.15822431863975,13.536638081917012,32.38359899242834,11.23679612657552,-4.2012256540963895,14.122992872212762,25.855346280529325,17.38170648349445,21.02518620987202,20.27490438064111,-9.213881093524314,-10.732800812244411,36.211791446714386,46.916362889511745,8.398521592368562,3.2149175393424736,13.802081000583637,-24.516626227798852,-55.053806237562426,-38.42477428126402,-41.9205616395579,-51.183998968820866,-13.732465727898287,-7.789758129246511,-53.597921215714344,-38.893311269341524,13.878897572780296,9.112840971882951,-0.8732553641802117,14.06712366440825,-4.211013785506346,-15.586182968707877,12.078527097549596,4.185117908725388,-23.582686893616398,-0.41940402999518067,24.65983203825656,4.812661284916306,-19.82422067954957,-30.996100520857294,-33.18982541608628,-25.763987335776573,-22.425188653569368,-11.699171191620882,7.587337371634312,-9.607633105229816,-39.156295078253024,-24.403428747867842,-7.212666186887706,-5.852409946687718,24.592739210476893,91.3607194599108,256.3399609725083,424.01020574953515,141.2440705482588,-540.1172405583133,-742.0097458524847,-249.3915814879353,97.62591436877008,18.216775605200045,6.468776572107338,111.29345829947567,83.68914722798041,32.5091010967978,55.252300302851985,46.94712839668139,13.561247720543577,13.291040704556071,24.16753699224437,22.920276099434698,-1.6859132484209525,-18.96516088621822,19.308047530876713,49.75320254410186,9.58737461447416,-16.796873476657435,20.16781551745707,38.221116894717085,8.585771840698017,-7.147780396702804,7.374222949731511,23.770329616639216,38.485880359732825,43.76748307788967,13.374651252210747,-27.080692619499764,-23.662469628684047,-4.403587671386173,-23.206760162069745,-42.33045281058157,-24.773465744565502,-19.944516522990344,-43.86606757672555,-42.17218303261921,-11.952492499488578,-2.7139879343672035,-17.21613358678916,-19.253587355096894,-1.294674475527799,13.612790842306346,15.258638361412384,15.15063258403535,16.286154907054744,11.591964591237918,1.8258500087276577,-13.204965976501505,-26.18518760337809,-17.89884584670437,-2.9408488248569995,-14.034153009063566,-36.62881549451092,-43.63459582504667,-38.54932601540748,-19.08662802028304,9.390063839694655,9.211258448228826,-19.143570062357867,-24.16351380470592,-6.463292751063182,-11.256235538675156,-17.119632680623464,8.953927590383444,57.90034508669419,212.0286759423383,435.3559775666863,285.2879962452618,-359.036159719362,-729.2428245845628,-382.0195186213765,18.992243428755597,18.95593416273974,-6.106402092596753,93.99462155209442,88.24287521700353,33.53561824033067,52.55601458568976,51.12462255445027,18.372198697630424,18.412877045607857,21.52437181064875,20.014442019681624,28.051579731828056,15.052494193027492,-3.359752707422519,7.845651840757387,20.597776081472233,19.02398593422055,21.014658523038637,14.006437946143302,-7.794150610857789,-13.27749598116278,3.078708251516371,16.2360971940028,21.74069736557459,27.176707845053606,26.532122994519966,12.57155892378469,-10.614655342030666,-25.658239289102056,-20.33321705157499,-16.51501603552506,-31.93112968045329,-36.647836536155886,-19.772299771133532,-17.467969771428812,-24.726869739348544,-10.00490390468967,1.4993855333603516,-8.212886924569132,-3.0542176825020793,13.796601569846644,7.008919850628527,-2.292944052727785,8.008322617475953,6.300404375560932,-11.79537316295293,-13.006445343773315,-4.571022228275128,-7.930899902615462,-6.540948723311697,4.881246183986654,0.6785609553791829,-17.732738421135547,-24.477299701476444,-22.181467933910156,-27.6738338214772,-30.933651464820898,-19.348020345585812,-6.714037752203037,-3.2692399706960646,-6.997508352490833,-22.14965167727641,-35.470869947538176,-31.871784337853285,-30.0731611188924,-26.590289689205523,-2.4671435708890996,55.80542112080421,242.93158444887854,480.5591037135743,302.8308515522882,-343.6996403415984,-668.8988158437288,-322.3230563865305,21.832263027727492,0.032903284445282566,-15.804804917245187,75.61585469815084,68.49304375716062,25.014388291584837,41.437109222565105,42.0322634249999,21.805111434544685,21.594923401098033,18.461323297625324,12.77849814366688,18.379318354101173,20.54669108202901,20.48632218794218,20.912801088597448,11.429177059150009,2.223425320013291,3.329310884074131,2.6766057857847696,-4.447798398100432,-9.402170412324573,-8.091374515412845,-0.7697505610544155,11.249213075462954,21.639155530808736,21.739965146547707,11.848112080558542,2.4978931756464853,-0.13987417212644004,-2.130540063854226,-12.399641290632536,-28.529679799157957,-37.55307782128244,-34.98762628181582,-27.343064332335445,-18.323476654309754,-13.552958424835916,-14.281936029043488,-4.738467835624631,12.546968409057065,10.367962817152648,-4.934934007281255,-6.13402897838937,-2.5089050786733402,-8.906758892830787,-11.273030447609843,-2.313073599891972,5.490293616929657,2.9733004648648755,-5.625115653622476,-7.205359611916652,0.7469355489177794,4.865292200772254,-1.826968986196512,-14.689684132164064,-26.586612217328238,-32.57726872867052,-35.486280092919614,-33.431562717225205,-17.226367490027307,3.0359399989379696,6.527449525977869,-8.516402675034016,-26.787613856461512,-32.49449800392382,-31.494914621902637,-33.71577381817197,-24.130162468285604,1.3081705017629233,95.9507366920292,350.1294711218758,509.402952461171,126.40412851974446,-500.83811714636477,-573.2769921200819,-164.97482173923018,23.572374155011776,-31.903414071152074,17.526086340502864,79.80233610360068,32.675419561539215,16.871059318501842,42.23970669978985,24.543814065010764,10.715009523798505,22.74087335969378,14.923616510559949,4.694782934812829,16.667443399653212,23.481682264472056,18.96488501263351,24.78892869682303,31.64534115977638,18.469304346358612,2.3065716991337366,4.338583642238239,4.31559349668634,-11.176662088023026,-15.281304034289985,-1.4561802372023012,3.5275873704718776,1.6171283061194177,11.076856456709542,14.286097430713882,-4.757904650128815,-22.84947814213437,-27.209698191062955,-31.600399272419196,-33.029948141981954,-23.146250776129868,-14.664509520616917,-13.833594940006778,-13.531348759688282,-12.421557845465635,-7.021011690341583,2.9727718331084105,6.488731476924664,6.670598190793045,11.437752640920078,6.649372675848622,-9.1681652103276,-14.452940596329958,-10.945523453224684,-10.57724978728907,-5.665166494546819,-0.4276114149934216,-4.726148210546533,-3.8354474471410533,1.5757149044426004,-5.850058609207361,-7.150283883361187,8.220078471747064,4.2650723870082174,-19.577512744078675,-26.823924190884156,-27.57946325232467,-36.59181307158241,-27.89094760892994,-5.60418177193457,1.2575785160541093,-3.2315616660786013,-15.575319315304501,-34.6834752097333,-37.14750165452999,-27.587446388205784,-28.44294485800004,-26.08429528091507,37.23458151796889,252.6105880022399,501.2154121013586,339.0423963640322,-277.8861069497133,-620.4790718881394,-329.58995009823457,-0.48658555121626623,-4.824330296633221,-21.059028936134116,64.14429537798763,58.651478041727856,16.028862280227216,39.42242098004935,46.33811658547007,19.79023312636795,15.572896367738878,12.809109880203192,0.9800477818468376,5.843503784046668,15.667886348392814,16.261225363449324,14.604342933036909,11.354684013448193,9.426197592743815,8.799686923982465,-0.06069017211852268,-9.743230652507087,-8.246409795552292,-5.9408610167046465,-10.446772363114881,-10.165985745048683,0.690326045424388,10.613352267514294,7.278629636053596,-4.752401877443485,-10.593821654151137,-10.41602050256457,-15.482534685170275,-21.975298527905636,-20.548707011661037,-15.440287292847547,-10.186577222191971,-3.795143243307585,-3.2352579896919043,-8.21610077759642,-6.530359553465747,-0.4154935237356945,1.5213110150256917,4.462716796520104,4.628372802063501,-9.032077029381757,-21.37165505928694,-15.486610164734005,-5.497314750190366,-4.505225970027645,-6.066984085346181,-6.42572821241664,-5.219183512568231,-0.7935189016217308,2.0429696130370836,0.3062991218063438,-3.158917830924807,-8.454412629229502,-14.399612229489094,-20.1382792928458,-29.301774630571437,-33.306469613305396,-19.152931649032734,1.5304346169537197,7.474117552366661,-6.656557696358959,-29.090638536944276,-36.17377889664945,-28.48678524927068,-30.689409534194926,-29.831244995091158,-5.983287911337186,66.26987126943453,281.3086616506505,514.8192915868743,306.34642284447364,-328.02696564671015,-623.7600504280372,-305.48003558156273,-0.005354966464393485,-10.515016634565054,-16.42358884478213,57.67388439680123,50.2935160349086,21.534502688540574,37.75030392657682,33.622258648408575,16.834654153562994,18.370625544166256,9.433234069400495,-3.0551756979928153,2.1166517372844473,6.315399742707606,4.6724313780263715,6.866005232283462,5.834884693563385,1.7141144552694012,1.8126939799704789,1.566850177966317,-0.9381892946197634,-1.662960116232052,-2.075483498822077,-0.6979583534829787,6.731629779173071,13.945714309401406,14.182061127132819,11.92339234901576,10.439679124869649,5.535751617333098,-6.719696636829877,-24.119038891190982,-34.371029599466816,-28.941307841946205,-19.046107675581148,-13.889597206700925,-8.740436975448159,-8.986875937976306,-17.40247140489236,-14.761057771750108,-1.3930293820565414,-2.561805846259407,-12.658205285666341,-9.675382930526418,-3.021329272052851,-4.155683336115757,-4.239620973873709,-3.95173657156165,-6.894807272124588,-5.129689785899783,-2.821705512474635,-7.663256609359479,-9.274810669362914,-4.343651331917071,-2.299824422032417,-1.330757825789611,0.13617981104535204,-5.202624888349355,-14.894908561052201,-19.00499230814443,-12.33181313390893,0.6336088151457835,5.272508170299554,-4.201648586943982,-19.568568207897307,-33.91438949796104,-40.46970760731979,-38.95322314599509,-33.43821926427847,-20.254349344124,2.2269397533153565,102.65059493151603,360.18362266596733,503.5591421520562,116.61686847057955,-491.5150968001909,-568.363280448613,-182.7800642471105,14.188796298409827,-26.28582743879073,8.55703288025179,64.59636707237486,33.26737030065224,16.60930097048628,32.1282263800381,23.052636353467086,15.128823795179187,19.12120538701147,12.88372589159368,7.069606266385003,7.40227685047366,8.704191536248565,15.004839363023471,17.904310939236375,12.190035966710205,8.670629042518565,6.870388527372067,2.821008401127136,1.4896257388766205,0.4572686718519803,-0.10099176125012788,7.215841098077037,12.837520467451881,7.862796252802394,5.894540155406056,7.808595731805388,-0.7288471239781931,-11.510189443928393,-16.73267107717443,-29.80084571663633,-43.94439124839578,-39.113139703158296,-26.16606998229107,-20.884039216716637,-16.264022916554815,-10.08842752847645,-7.388307664808995,-3.9058469697101863,0.9671931412595232,2.8550117656426774,4.040180151424651,5.144099348499074,4.352635208625025,3.685794173076557,1.598925696179025,-1.2739590724676102,1.8521492555043366,3.3078016758274735,-8.410885410172352,-17.949476498733418,-10.635150423911472,-3.58020983115639,-7.74371850863891,-7.996047924026378,-5.340113374211882,-16.75084324991843,-29.0732314734821,-19.468243033267722,-1.8083993660166389,2.4168473936727732,-5.263196353981272,-19.34228986201441,-31.366376279982,-34.44182084661982,-34.649393358130695,-29.934145395445043,-13.156472404682695,65.32719341981577,291.4900986440468,478.0473489027106,197.35517252869153,-406.73737258468987,-591.7746645347225,-239.59003453925487,16.722527019298465,-10.951713743414746,-2.201455675215172,62.015080845846626,43.01976211605979,21.96199503175736,39.91499351529687,28.65632311082602,11.074035150141386,18.76714572013978,20.008307507118797,15.28044825353173,18.553764291185203,17.101772020825347,13.282493612609024,14.99430860398387,13.69113450465497,10.27679637636177,11.045109356489721,6.345305071788014,-9.932627636263582,-22.353501027530026,-17.481679176890356,-4.265660848761058,6.306490591940706,15.346127412465268,17.038427383788946,4.061495584403373,-9.659944013200757,-12.451125210146152,-15.616317671232885,-24.55445899751049,-29.758672538907305,-28.30876196486168,-22.87843664255108,-15.444323626198607,-8.196538528042613,-0.32938262024173603,3.173940852994507,-4.499136565775078,-10.849944020010627,-4.980421341363757,-0.5104483799563067,-2.5077569277544924,0.9071737197407028,5.712703374676851,2.730023993031285,-1.7469590544630993,-4.755486569951692,-8.52521034832089,-6.7767458833792125,0.32003585519715294,0.5344829998436325,-7.5473069440566505,-13.717809402720565,-18.00814288127053,-24.112394588539214,-21.200513292305352,-5.108814645885503,6.873305727785853,5.635350980134741,-5.668676062503561,-24.77206451034638,-36.019067008521574,-32.930852391635206,-32.5142091161044,-32.17109043696984,-18.709595405293392,58.71081999540149,287.8856167501546,478.70624341528213,201.64116344166163,-396.6763275705039,-585.1715026689537,-247.6803477024285,11.97412552282328,6.47354273552744,18.737913481252196,67.52699790232849,40.78126681918185,16.883551582491613,31.451650088545954,26.03505647182456,17.18538941846682,23.16474844615156,15.590872259280621,5.041473215102697,10.943772023659772,16.819615945250135,16.88552920408581,19.839984792925694,17.311852701620552,3.1916294294786955,-7.529569177475935,-6.310840970075765,-4.953373405951981,-7.55368211240271,-5.875028991850486,-3.588618190694711,-3.437202478423191,6.288730219477631,20.389061160762054,19.085952842632096,6.4438316604153,-5.101406613865285,-18.875332488283806,-30.38631256264774,-30.05587724773366,-27.118910173296836,-26.114780038386563,-16.73246578572507,-5.9147160954682665,-6.475008411718658,-7.795986777438564,-2.045434972096805,0.6131991862495987,-0.10568274085577833,1.0465252122615247,-3.1146365805489875,-11.608814557617883,-11.291057533531534,-3.843257785774263,-0.7903252761898223,-1.6122330391313966,-0.5104986969300498,1.3248416163447558,-0.0222113339433605,-5.322950124539744,-13.201142774686932,-20.768659443131398,-21.916369229048186,-13.7288374326597,-1.7852243751642378,6.994411892646402,4.0856514789546825,-13.172539315390807,-25.749072742566096,-26.487265048190977,-32.97606220918237,-35.99267174687581,-25.08243189850169,17.437670095145236,197.02991699727693,443.4069834076289,323.71456625394046,-245.97143289529544,-595.854760509297,-351.3033606145413,-20.400364801847058,17.39169346731607,-2.5066098612066767,53.27943635691226,54.94955077753872,22.375420702553402,31.54995559326957,36.43273801524828,19.97660917517936,14.781419780600434,12.914438641389177,8.939305625104703,13.151700327832863,14.89038848761361,9.741205489618949,8.429527396332826,9.064449264946688,7.45255682250088,7.715013797335886,7.123591479156955,1.3570960764274762,-4.893480919262171,-9.057537979255919,-9.499533922341438,1.2513188461875093,18.247199727425922,24.182303636844452,16.90547948474394,5.81954342199319,-4.787845767412809,-11.68661843277474,-16.907156841785742,-24.353473793956727,-25.135576485753543,-19.554191179111612,-23.548943450508382,-29.341041905847334,-20.107730126026762,-9.086107182442696,-6.506468370527045,-2.1912195326915995,0.5314663312044612,-2.1593865644706938,1.0634802319513996,6.076535398479125,4.3849406308704335,5.653738610913662,6.329746851704498,-5.102098729643291,-13.084400424290967,-7.673404527596812,-6.073614050431953,-12.631600398374825,-18.46501414650741,-23.0096807721752,-19.159979221793304,-2.6818182406892435,9.340316034731432,4.73651827220522,-8.941318367698706,-20.082823815515,-25.983061430340452,-30.90631240681181,-29.105684146811477,-22.84018090875732,-1.7505953407289638,140.48599719448254,391.9943062633569,364.9913574778907,-139.26222602759262,-560.9033679406314,-406.2003639707941,-56.722969005155925,24.850556723113918,-4.4317619280759715,41.00706758256265,53.99319117185057,24.45892085686365,30.822352710062283,35.512966724299055,18.365756024937955,15.987404703511256,16.098728314182303,9.625055172750248,15.394011593232657,21.2335221848513,17.862726026203,18.38516500417764,15.239661969605478,2.9258099283280288,-0.7328535539520524,3.498231129094894,-2.233136118713169,-16.84784110178553,-26.56799524900216,-21.17037834386007,-1.1437307074769585,18.071768584277763,25.86152559223678,24.071858355612054,8.676215218960163,-16.273243922550208,-28.621316314510743,-26.760790755403047,-29.380060128211916,-33.679632482781344,-29.787385928465667,-25.572320725701786,-22.23216516992774,-13.162912516933448,-5.935310970500172,-5.201762262986541,-2.8936048370836005,0.46045507232379457,-0.0843281427939715,-0.798501438461237,-0.16626570633647475,-0.033832603428836094,0.984496376711494,1.6502474494230501,0.7837385721385033,1.0336295981042394,-0.047764302165496986,-7.515067544955729,-19.030828301366462,-26.74802400638474,-23.25853758212919,-9.057700877897945,2.242813562611874,-2.7849540990035173,-15.505364998604737,-17.5297966733746,-16.309396332990183,-22.276490709829893,-20.629737960433157,-19.18030741104185,10.305322411105124,193.67849396671159,428.20787112925643,282.31866586484927,-256.96754970315146,-541.3132507009283,-296.68935901694465,-11.355975423239855,17.1630670573101,3.528626597298718,43.973749110271605,39.55471349242662,19.9776890011183,33.79752058720974,34.873917568208086,21.47205423821277,23.23417641980216,20.217747371048688,5.125681514490216,0.6002192378868714,3.488136392445507,0.9248422343773144,-2.183990288948201,-2.867639437753584,-2.9027482518156535,-0.7519613194747181,0.8427765658305,-0.26097221515902014,-2.2316161955565006,-8.067271178769936,-12.942134201357542,-1.5618845844710014,18.99649731284136,24.232467871295338,14.347404008867064,5.210583255697412,-3.492069049685293,-14.901134850199277,-21.824205918230138,-22.03652703568268,-18.88184687971974,-15.1722717033543,-17.78918806358601,-25.185832097641324,-22.647444697439283,-11.51205852534604,-7.588591861702323,-7.103336105136346,-1.0139961941820168,1.0031149999470728,-1.9628784972588686,1.7459553365870253,4.840395002895148,-1.4306827748299664,-5.118032167962104,-3.2173459585870106,-6.575211276375519,-13.994674969531998,-20.776326108488604,-25.517557882106097,-18.5859623890019,-0.119347802372058,8.336619375449512,-4.587200835564914,-21.73850914140729,-25.553587246709974,-23.650955508744808,-23.87653673825382,-21.762940128045734,-24.37988002806579,23.349876378580788,230.20646928440698,429.94004860591747,219.2350290191393,-306.26159028133435,-510.7158048864146,-239.49160865041864,8.241522827353542,18.881427586774535,17.88290870955047,61.11071814453732,51.946607702027485,32.684667727252865,40.30694562873597,25.295114194751257,-1.1930100906445649,-0.9884892996111176,2.1994395901395807,-7.569323328205645,-8.04825617897582,0.14659319314493202,0.4777034188165896,0.9347638402453928,7.336313002875466,4.17752674089086,-7.677772410954972,-10.582497074636073,-6.870239598354614,-5.275704608528326,-0.4848100910185762,7.50897702233822,14.088311201255182,21.418336818169454,24.404803852852613,16.527485589983698,5.234907283011501,-5.185954804854617,-18.79292540184403,-30.356966424293724,-32.42294284041037,-28.277047249732675,-22.288535079799694,-14.919089962268568,-9.13056466937466,-7.31399142222825,-5.6686219401182765,-2.0065401176611477,-1.84533347686647,-5.895742770335598,-5.8980189871062585,-3.2046809996267953,-6.0877549079021485,-7.943072208889205,-2.1509868177705584,-0.06517141382280656,-5.271210633801276,-9.181012223468498,-16.397071829662544,-26.717350314583676,-22.740088348019498,-6.206008612459908,4.621510893730752,4.297439834023688,-8.397283601624803,-25.947909323536976,-30.717397898602886,-25.68469214381513,-22.44533838200313,-24.90761498324153,-6.975386678127649,136.2840388846108,378.24435302457175,349.93399928841814,-118.64588725440507,-505.10892718610387,-366.91303532027814,-49.7528724879452,32.264231053704115,6.999604307469198,36.072502401534265,41.285410527401574,19.639622144099246,29.665953143744844,32.30509614836214,10.549088924376345,3.1266565946516227,6.208499876868655,5.128841838334209,10.28958042250403,16.60234854521218,12.841425361177208,6.760706947632685,4.142321367492924,0.7796563391594962,-3.4091862752382704,-7.976351587270388,-15.596848850241734,-20.99830411935024,-16.430888967858913,-4.573300863513909,11.2161771623727,27.326782907933094,29.473042674479156,15.295456759057286,3.6553614986608842,-1.1254664006947603,-10.280044929521742,-20.104886935186624,-23.537003608235544,-25.61185475686907,-27.701381793918138,-26.91144629770829,-24.229536345698918,-18.058419545873484,-9.193337707783176,-5.875319759202508,-8.654698038164504,-9.011008568701964,-4.996551017486631,-0.7265775853501175,0.9015108481432215,-2.100993489748438,-6.9774125303777765,-6.720598234721246,-2.658461060503944,-4.969969721998364,-15.10683713628541,-21.177078982241667,-16.23971395496583,-6.167959147042241,1.4929743465031091,-0.7538418719168707,-13.701406476549952,-20.2746503251827,-16.708900534444997,-20.35416396660567,-24.3358182146047,-22.296860404793613,3.655908725229594,162.2216524913883,408.72875230512545,345.05485807181276,-157.36013765979786,-525.6118121693476,-362.28241585589524,-59.799374562798384,5.151284856546063,-11.83541770238904,28.259830520178237,37.39130812791528,16.073544019886278,21.17289159479949,24.651279195886826,16.435003008157963,18.687519157183537,17.30730819727222,8.153879537650504,8.670667793083656,12.436122627732328,12.127935639468662,14.348442529540444,12.197061223391511,0.27893944478459964,-8.821904535896154,-9.199940167556978,-5.651808376565496,-0.8047452799790893,1.0057000525963078,0.03403001680270057,5.7194652472691825,16.946187747628073,21.13218644035352,16.834865743331612,10.55034378828745,-0.7701651368421096,-19.309363963589604,-32.17687806290747,-30.409908932806758,-22.86722282867703,-16.406840772841147,-13.457600802463283,-22.52362216481867,-33.42121488460051,-22.747391800593828,-4.333155270285269,-3.7718361454977387,-5.600019997943978,1.5325087335664378,-1.3052051019887383,-7.2480969006072336,2.034621107844176,7.302319147240709,-2.340333874630229,-7.319894300675019,-11.39897319694264,-25.55040047297232,-28.145033423801415,-11.644551848850064,-0.1982488648880789,-2.68740916935519,-13.773819367301812,-27.49268664073367,-29.550120174004313,-21.527186780532986,-19.048899202745233,-23.294148684549036,-9.035891752313418,115.1296462358045,362.2546137624787,407.18249596391416,-24.620581040428917,-512.243091583895,-476.59938384065435,-123.00974689335288,28.471093100447533,1.2642751112283719,23.716532569958517,51.36431896894217,32.189667328123576,29.063783570541176,32.094022419654436,15.312315621382016,11.762896510417644,17.671488730315183,8.301504580062087,4.318082805691569,16.373374813680286,18.833300074263555,7.745193275043308,3.690917657670079,8.115699374946583,9.160496367794385,5.505845135111808,0.13885915235504775,-4.541132265830322,-6.354695744826864,-5.928540224357025,3.1827982993394155,23.609825081404356,32.28881235634716,16.373570312483857,1.367616210900735,-0.4782862995729449,-9.87358196301653,-28.376800573762303,-36.008578403580415,-34.919113881001074,-37.654532286653165,-35.154672405807126,-18.258157841494484,-2.6379604901180294,-3.2955946072420055,-10.599290527273144,-8.583337528039257,2.5306112957446416,8.890016066869855,5.150210274876168,6.366571279704643,14.378342696602882,1.9582727713477475,-26.547122650859492,-28.87699026593361,-10.866330131485833,-11.666477433433837,-18.865766371080824,-9.64412748415154,-6.753448094941284,-21.7795774726929,-31.2174003655851,-26.55984418480688,-23.368723698370935,-24.565447537849344,-19.09206768493076,-15.176806376705333,26.528005528885558,220.62838489360084,436.54530816240714,241.1812807886784,-337.3208475477627,-603.6251079056578,-304.0098499794838,1.4841696948022935,12.7857067852079,3.390781108940658,61.732718572080195,46.743741033902154,13.260994009236615,34.911692334530294,35.71132181880779,11.693678019596979,18.520907587691596,20.39856864269447,-3.6197967489493585,-2.468561967205195,21.76320207021889,20.888371122176217,3.449346839091911,4.362902642887798,15.438242138508674,13.148130305728882,2.6454847913567603,1.3136169380553497,6.553665034801464,3.002070515621755,-5.554830490343782,0.8212319980276233,20.78545267811083,29.550958123598626,16.180433322127463,-5.738041056122388,-22.439060414477918,-32.71810401444,-36.16214277309125,-28.82079399615818,-17.28097459169955,-13.586561650300474,-15.822053164304023,-19.94169627860298,-27.43351280458984,-26.45240470126944,-10.507259231935944,1.3258381232538987,2.1955205399613096,3.05275137976429,-1.5083914259069608,-11.280252855682045,-5.837827187429063,10.338939644811099,9.266390777070882,-8.567946615599556,-17.98416696524749,-13.91986825011959,-6.6197100563597004,5.521783282717672,12.31995018040162,-2.9309269831369917,-15.222074609090757,-12.16485110188749,-26.180036927038515,-38.63932896902296,-11.607916656900997,69.5059433938692,260.1646318902189,404.3462877875002,105.1347382534482,-478.2164297834234,-605.4138020159102,-208.184840908721,47.314260490369946,2.9182639586749524,3.552244768988704,67.30656209504106,53.20957326967123,28.73907018978202,35.788506460886154,24.933137528870645,8.142416211892685,10.44917300047068,22.11422558363467,24.066865264070323,4.3223760007642875,-5.413464942172192,15.929173875389784,24.731609893361863,12.458767111971731,16.983622876338806,21.39946539539897,2.9193203335968883,-9.131119419891375,-5.3727992545758685,0.6658434513451175,14.888857823534034,27.97778842114809,20.659809391203652,5.0266233682367805,-5.875032045714317,-17.80698838270331,-24.50567686609151,-18.628720015976594,-17.854580092483253,-31.717747050682327,-39.27535935826921,-33.44620793412114,-28.792468437265548,-15.881827570111295,9.54192674888117,12.243325502020381,-6.260561050356699,-2.695923888615047,7.392136828461784,-7.319512835253182,-11.748505537273381,5.005029859845711,1.3705589962747204,-10.623076051885645,-1.6186401187510597,-1.0464376615787927,-17.15720606703242,-14.172966807951903,7.874644897942526,20.221103137213948,5.07589020880112,-26.56022089620102,-34.684777580057755,-22.672000672232425,-22.477362170996937,-11.056913377792151,17.365604727058077,87.54042087268047,286.9693367416726,384.02349892912787,-25.19685002240726,-587.6011778917668,-547.1135783576082,-96.7656240882276,57.02528851973485,-23.369439691975387,28.202657320976684,89.20690295269557,37.97789022971918,22.837710753500545,47.15518132022085,22.95566614699644,3.3274178357424162,16.683189122611097,14.530427330436115,9.679487595845902,22.50157270320302,21.27826524782418,8.212530113468281,12.814823753741758,21.036857853400715,15.205748107988523,6.9839521063666705,-1.747367273518983,-7.693216203566317,3.588276162902974,13.28963781387336,4.370348784872629,8.901283315642367,29.34261647580178,20.974935728201714,-6.90774271563971,-18.14215889203261,-32.00881742691483,-51.488895366474594,-35.95253204658782,-6.629433093171022,-15.454653289382051,-34.0879708459318,-22.391141133843046,-10.068706791606509,-14.10340803955651,-5.5861155586034705,9.483409894916587,3.0886215634432936,-4.652465185603537,9.702174954707322,19.4842345174093,8.23246453051085,0.06873834699790038,0.9766672820948727,-3.967294000834938,-11.10098129351049,-18.942019663202412,-31.530913496079343,-24.573799015093055,8.43767642902662,13.895825517605093,-21.845138271972413,-26.726376128410656,4.705765880964961,-8.643219967526473,-41.93210662263749,-21.40042019068616,22.84290549046098,145.82847793503905,384.5542169901175,342.5141879827032,-226.15870010486216,-665.4720559782107,-419.2115965991482,-10.323418808834042,32.969790832039195,-10.84904951829293,70.6909431138773,83.27203562580098,24.149755157311198,24.48557190017035,34.69450870378728,19.420380546965134,24.589902695863373,30.102133804580586,14.45085593256397,6.249369432800248,9.97503195825142,10.138340404758981,3.2930104464894763,-3.100191256657717,5.652720558068706,19.67708787712403,10.142901192698483,-9.896293005327138,-4.656234222903613,14.441861638167472,17.509937168441784,14.556961711384194,17.89624601481554,9.67297661810546,-6.635924048982424,-5.4363154216014244,-2.5226368035981075,-25.744137999357477,-49.3997563109493,-42.13872352865057,-25.31594993874617,-24.54478534062588,-23.675697552949824,-6.8725232356861525,4.589458263889483,-4.763171095189524,-11.339200568990009,-1.552494354288978,4.852309245093897,5.6412496871341595,14.622913684914149,19.89347082080122,11.748380458241002,3.327996818638785,-1.5950313533009677,-3.6714263528890747,-1.946361775863494,-10.938280540006161,-27.00051966127117,-25.497882190830577,-16.47001788042392,-16.142425636664406,-8.883027670544763,-1.3507274163138066,-13.952302550496114,-23.884197940229807,-18.49539589653014,-28.88922694067294,-42.54857068967875,-15.813992108564937,8.829976642708171,25.547790311426354,201.90750052702867,460.6216547280983,292.1622154641169,-332.18509971207925,-626.8091383456601,-302.22308404348803,-5.9916937336850715,-23.65547459483321,-3.612791507059619,90.81359099437758,62.11226333764652,9.676953455848091,26.164897834578156,23.114867340008015,4.330413671736487,15.665956631572012,23.217880078553453,15.718207623190604,7.680109847685317,1.0572317697063074,7.301415831524427,17.259367604268796,15.225364419197417,13.136264073329354,8.204889553539168,-1.8809888084004225,4.67991452970801,13.934035342688311,5.773505622185958,8.36874745660963,20.790025702466195,10.764741562632333,2.454861373268246,16.82220094488894,10.84808750648844,-25.270983457750795,-42.86821769206873,-31.875067657477846,-25.381669828369212,-29.19094111831905,-24.97009509363896,-13.409187002797662,-7.925066514200058,-7.58148534283894,-4.211899652753509,1.5734921515803357,3.067387806244751,-4.349503874286862,-8.607583524341534,8.295828190402922,26.20899562227737,14.494291057084622,-2.558484796978629,0.5274584590274127,-2.9239399222685165,-14.502668702825092,-3.675660569328503,8.352546084900279,-6.69967832763864,-20.122628980587695,-17.059379265944763,-18.940777531696693,-19.018047717658174,-7.7257607391623075,-13.289943810490655,-36.18265361147004,-33.28258619758144,-6.254434145345311,5.303886788095776,2.6694616109072156,-5.51092439756097,-29.987385624858646,-47.38002092418226,-44.84616345112283,-48.029817465363315,-40.063522375510544,-3.0930929918856975,87.81585377792064,324.76992126560583,519.6705352728052,209.7822023356091,-419.3529187086475,-574.3026505863639,-213.81629612715972,-8.43209072268759,-50.49548200220907,-7.929505782678866,57.62741434285794,24.22805453398096,15.742953518707909,37.82728748127186,17.489982700308452,11.028677403507658,26.795252775133378,14.75704040552064,8.971829079695507,21.490868821819802,11.52002774169512,1.3332741110151964,15.934660112367006,23.16838754915143,17.49347439664984,14.32739206621535,3.635233903562395,-6.924962265367249,-1.8200950030113114,4.1759048255220605,8.435476554991897,21.781706897552258,29.149884924118354,19.690384166465527,3.16042415584391,-12.224848193826183,-17.726068215874424,-19.73841523230766,-32.52995825654874,-33.08440718780321,-10.390476280246826,-7.8609475112964144,-26.026782243473253,-14.491943881902987,9.830068242491604,3.966504262175116,-2.2984624326546914,8.253463497816742,-5.1038205500477325,-28.573102522348645,-15.249791976094839,1.962833519405045,-11.641299008030824,-14.678419794350727,2.0723036300286424,-0.7457221219488517,-10.064690090635633,-4.120122632519925,-7.525839226166877,-16.046423584526917,-5.554060790502117,0.6289120046398455,-10.903374991812079,-12.022651512374836,-0.8873808653404947,3.1514840352041062,2.1618246382371975,-1.3217129070113405,-6.7895226596117375,-1.209185911142983,9.486497594858902,-1.6172863538150644,-31.112542759619544,-44.27075843954419,-29.78843819669418,-7.671933595349082,8.551539371905891,8.158471189520021,-21.029558420103022,-52.49723874445005,-55.457460458905125,-52.76365262851562,-52.378644556920435,-31.178824792776755,23.175285583809014,196.77956599090814,471.1054180777003,438.59376253473863,-101.91159537508008,-541.4943844517804,-384.4258548457862,-65.12227221370796,-19.754121191029625,-33.87293092007285,37.034332125163736,42.22342184214636,9.887681738229578,29.30885231114562,27.230475106725237,-3.8227859075871575,4.3396590343017625,21.505830516089684,14.781353579050457,14.106373741116792,18.302298770441016,12.517506413225465,12.890051614275473,19.8298123676169,18.787431309048994,17.25232813761222,19.47368671383387,14.125205722589698,7.004966616763991,7.4534908104678355,1.431079280316852,-12.94294430973549,-14.117683835804318,-2.5553368677334443,3.0836259161915347,-1.917107505117933,-14.877611637456894,-25.090441540911115,-21.205915393805302,-19.968160222320762,-32.96185936065575,-34.09644965575403,-15.499269846829385,-4.167325087349363,-5.94053227309951,-7.520207487958018,-7.9360702627102455,-7.306098235414364,-4.3703000999711215,-2.7506891577650663,1.031311424545419,8.01320631020522,6.200889101645567,-2.320699300966969,-0.27777808337101195,6.339720692470312,1.8005647042946356,-0.16400204346642866,8.041616809298608,0.90496939346977,-18.739897498661147,-17.749681718620316,-6.721395147261157,-8.562581876228016,-3.862536518539901,5.4286787494532,-9.91836380824019,-27.841229836191413,-18.82925857521459,-6.262845209063853,-2.118568161752423,4.463708927327531,0.2957272900190624,-12.512209069840976,-11.4227324354946,-10.988177531100519,-24.05869137613032,-26.19111792107922,-15.00739045262897,-7.36911298477823,-3.8154463663178273,-16.178457284740908,-42.10172084964444,-45.960606772560425,-36.178714116467766,-40.5824400932796,-36.26591151632013,7.936349498739062,163.31729264455208,439.69063852019656,485.47037312560985,8.80243982063186,-493.9275941917935,-416.574422512389,-72.47918754681186,4.925637197714142,-44.69938067580712,2.830042297431568,20.962534597931775,-13.330882090385671,2.7691602563324587,22.01840107340405,6.543628586022636,8.933975281834076,19.937131285649585,10.062204241849855,2.25192383221255,7.708151177479259,12.467826516325864,10.497423123847252,5.790595262673041,7.137918489039944,12.943826757015144,11.99761156331217,5.779370295144764,1.060338293966777,-3.676559437890808,-6.3671228825607145,-1.9931568409543865,4.622066353823392,6.244294515546014,4.298513624048358,2.033272887339767,-2.02611707732674,-8.524547087632877,-15.301827132771887,-20.52705021792621,-21.766784511057875,-17.214934650836867,-8.323751018918008,-1.6440110769457839,-7.459773245768993,-20.075026823182984,-16.07727642046853,2.5057572362347074,9.580273783557011,6.42965537245658,4.8806280128973345,-4.463074452887874,-14.429821071871215,-7.7029972657070385,-1.9562138254282253,-9.943811075524291,-12.750756125693105,-10.102755737324758,-14.011743645866769,-14.298911312543115,-8.05805980598008,-5.188566894038974,-2.595477073783824,-1.548954353118896,-7.566040357015279,-7.412406416244487,3.1702273953859823,6.034910864578316,-0.06416160533910009,-0.8721333231286348,0.48460986137374995,-1.8924497078753353,2.894238029722972,15.47573617460138,13.79522064530072,-9.590000605730328,-33.7727326741077,-44.198202036105485,-43.19950745569618,-31.260501710044544,-11.572847056488632,-1.0165104331417183,-14.21947493051599,-37.35268810649933,-43.01523953054421,-38.791436948653825,-44.44350921839883,-44.72654273258914,-16.704435678277463,106.62488093728801,377.4134417771036,512.7076641156339,131.02762056868093,-439.564888668047,-498.89693283650024,-151.54506485182952,2.2083020976922754,-42.497760910216485,-1.1756260561666743,45.96091183457584,10.575536137623546,7.261311966497905,31.875340593085056,16.14724156627093,4.213620489769693,14.712187004892733,12.502764822598037,9.57511955209868,17.884081325214712,18.83394892246224,14.658829919137661,16.047066209725486,18.35991748237035,21.01739099721926,24.92614558584951,20.564556183593478,5.9364726714419715,-5.630178332620573,-8.958708826166067,-10.353002160524595,-5.060968832723211,8.700493639340534,8.743830591077067,-11.268666002482766,-23.031962062517383,-18.71659711132715,-19.59901236792701,-25.93156251887776,-25.431661029980724,-23.329379182382237,-22.340903852340652,-16.222014144476717,-6.988778511081989,1.573236186337903,6.319917229108193,3.6961454719806017,2.164298538124659,7.418670007547425,11.040259872184295,14.160586267446448,15.79237711596431,-0.3926930010912404,-22.14804310963865,-21.113267420198913,-12.309785524298011,-15.794692861177454,-14.565693922558891,-6.722545605562118,-10.24244885924194,-15.811444325892662,-11.945234425703852,-10.28539274423336,-11.784909315704077,-7.419185167189644,-5.022518670454097,-10.975185004070791,-13.120750947978213,-6.182790539392805,-2.4943891833667546,-4.514131317429019,-1.9314706236301262,-0.04080649104201939,-7.856129900582999,-14.21365773160592,-16.28881909290973,-25.188306362193174,-28.92681946767901,-13.836765644541755,1.9594110522143362,-0.21157255486176574,-18.718425866767973,-39.31397275064978,-45.52725015068457,-42.7000072073772,-41.621089357555455,-33.22520717523482,14.52798966960141,191.19603719991883,467.40734907117593,458.7704359369925,-56.11643856549945,-527.2258791185701,-411.5169459392385,-70.11753171034383,1.2618835436896187,-34.6320343892732,28.125817667989477,49.589014871520504,3.0903008826668814,4.309958327404788,24.20906772646479,14.473517007940169,13.88742458834913,20.972908632303046,7.478572043155861,-7.140227625734896,-4.391213099555697,3.8884295809218816,10.46654887371976,17.951681485471703,21.760421800508645,17.23635562783938,11.237471799018008,10.666768307865214,11.610496686884453,6.654513177590204,-4.655727484839563,-12.178442978457696,-8.262600268334985,-1.293882485337904,0.7195923630851944,0.8129997967990068,-3.6481943402078656,-16.342920040479715,-28.04233573582316,-32.180725708816055,-31.706584998924306,-27.45129154980325,-21.830568546707156,-19.48337241148193,-17.564426209311392,-13.013539182488547,-9.62928283812048,-7.83885818969739,-3.666433102780756,0.48246003029640505,-0.7185850021767823,-3.224214415369234,0.0178114879534661,4.043156992719391,1.504293224077479,-2.315139802035393,-3.1470349246262135,-6.116192331391611,-8.813948430052779,-4.776860172509245,-1.0450737063259474,-3.889350581102624,-5.456293563912439,-3.4896261284379335,-4.862685855512471,-5.683778117700571,-1.219257064484406,-0.7155608937877833,-4.447063703998978,-1.1773877142386269,0.9489533686379428,-10.721648290523406,-24.109089818380248,-28.45853672493132,-28.052333127279493,-19.310143557173262,-1.6804768551349687,7.2926222617708,-4.205081716299606,-25.266062108720355,-35.29449946056515,-31.87127491863238,-31.57727749607807,-38.313425615178275,-32.18366583732567,63.45613977505464,324.84457412058816,530.0889022808515,259.8662375401281,-335.2883680333583,-552.1711485421149,-257.92278222331674,-15.914292835751972,-23.000214274939488,-10.567040174475189,49.75918274383867,31.445053007774064,0.22202746269400286,14.420029430046032,19.261037564635565,11.258979314105318,17.690787232504384,21.501399347587796,12.271189696515165,4.46502772833174,5.600027655523131,9.345545005368052,8.416135693448968,6.6551620802758915,6.811249599474317,2.0477190105974894,-5.447840861727519,-7.8562496464140885,-6.8955598202833706,-4.151980449797759,-1.1066733312421881,-1.9445796196616634,-0.09539595171422333,8.762806357898016,12.330452013286799,5.972972519554175,-2.8852240618833314,-13.402634864833765,-22.38537494261704,-23.546858549162568,-22.20472318457172,-21.57777366166639,-17.45244825471459,-15.18499771762674,-17.564427671541324,-13.523333412930025,-2.565713789070937,2.3388799524556507,0.5938422006942634,0.7660896917612963,1.037154731945419,-2.7803826268886294,-4.642152482632659,-1.0685508393894825,1.0539860302733395,-1.0965492498903728,-3.4106184312739813,-4.579396262947677,-4.248287925312507,-2.8494457606491856,-3.8829643205395072,-5.981813947057518,-5.113774575983561,-3.32518966566459,-3.0790409497857603,-3.6886107409708107,-3.762243995337009,-1.9449479910818397,-2.288493486105338,-9.07688643761246,-17.298817912470614,-22.124236412849164,-22.041034728052608,-12.711908777580124,4.3208093714176865,16.404115714663302,7.091912820916235,-23.451194994427,-46.641732674241865,-47.052058941571104,-40.30823593198045,-32.443901624805775,-11.767341532602096,91.7839305294915,348.4505892656615,508.51917433877014,175.0971251182514,-397.56552655090746,-515.5454293089672,-198.45781496608512,-19.83427147619126,-44.0458015883097,-7.397526807297602,41.88904745449885,18.75588940668501,16.19527489008665,32.02058434708178,14.404174316860267,6.625681678353155,15.120166882575386,6.031676919563417,-0.23107376273975344,5.31357486744064,2.372136981883168,0.6641052670390696,9.403708090730978,14.984337662499078,13.55120008305653,7.864069839581855,-0.3445997308871567,-3.3783260274074074,-1.3437874459970627,-0.9416147419137917,0.7175307844557619,5.248157427829528,6.564431133774129,5.431746325264412,6.215763994588826,5.00240061532511,-2.9127254096083277,-14.135039872001327,-22.952201184508265,-27.75504276059029,-27.457697632155625,-20.877004895055727,-14.249338536363755,-13.985784932904004,-13.837631539907393,-9.137760673504326,-6.526965539412663,-5.43150878779206,-0.5670934228695934,1.4504024003243643,-1.6429020264643732,0.18008261329619746,6.3538549340393145,7.997867194407376,6.587097163335171,5.910272031472276,5.085766660132661,6.312045739256284,9.30692541120475,6.524052366684482,-3.3412955850027544,-11.587537872049062,-12.24482961927988,-7.500583037503194,-5.620330063124079,-13.723867325337721,-25.40865604983025,-29.79353069469773,-29.65986088476734,-27.075750464541315,-15.454148514823089,-2.472361520335687,-3.1554884146921403,-17.20174837954406,-35.662580778171986,-46.1871133982295,-43.88960033264549,-40.139977094779425,-37.96038990733132,-29.45474109251273,36.18576048441014,259.8092329556621,510.20089779163385,358.035959954238,-211.50606400513078,-543.5750123327084,-329.95681116665446,-46.45152667226941,-10.141177914925347,-14.102214465875083,37.231530310613316,34.14462476516624,7.985612001142394,23.01189917625237,32.72641805294057,19.90069074725326,14.842008474947823,12.86463944945587,4.889046803490695,1.1742321931935673,2.502886383616474,3.066217856339188,3.2980469201654734,3.261027783192328,1.0906476599692558,-1.069697741264804,-0.9365503387100569,-1.7969108452137577,-5.048308476966712,-6.816327636399579,-5.294668044151465,0.5781580134547022,11.280502930247689,20.008269315342197,19.912463132959825,12.42271928980859,1.5061693531477012,-9.378376790188188,-17.45261535630699,-22.056485141482217,-22.944794163414826,-21.842253058474924,-19.215359157747397,-10.426032147908327,-0.3978074140683656,-1.8422472681693396,-9.608476132500098,-11.37809179151971,-10.622037294694838,-10.717817933936097,-8.339677199165305,-5.736377072584137,-3.268474580630089,0.8720423692233048,3.8397164950801628,6.279219830074528,5.399250095992452,-4.896356490705184,-12.122453800341967,-5.6221234777841635,0.5791022648771946,0.8612347905259181,0.9384899984364878,-8.267934549852804,-25.956197152694195,-35.50988584777951,-37.61054540099744,-34.7654936926843,-18.250401435699526,1.5015501422835182,4.078748442335934,-11.13851580216527,-30.325274785766894,-39.047484327178346,-37.263304611867184,-34.610478840775514,-33.88505793260354,-28.868849288849376,57.27719148829374,310.82295213980524,505.25169519741405,240.05294328255462,-314.3562616806292,-510.37097612958485,-250.39961501844724,-27.955902620507622,-15.145533919944125,-6.136397615667924,32.693503058074526,23.85671260688958,10.532498205513493,21.693382865852268,21.820803970497717,15.855340823441768,20.53004653141078,20.542377913026556,12.394141466861653,10.134628451452976,12.343436354561327,10.116003624885213,8.672539277459148,12.42414603471666,11.914169571942391,6.086576704006245,4.391782983733973,3.9339315249473614,0.4667468454274517,-0.2402121413794806,0.7714719842355527,3.477829424668302,15.531433006883631,24.625271352991273,11.967743510006516,-7.559762710746295,-14.065019134699341,-19.470708680087277,-32.31112126820235,-37.23101952047841,-31.5411199584915,-28.064484818736474,-24.614871921539894,-15.857337666510727,-9.959666551131482,-7.244349860706652,-1.4738628933369107,1.75127710689614,3.529683395403632,10.417052879953285,7.56376485333746,-8.965025852112358,-12.340401093302322,-1.6314431114026302,-0.13804511334623548,-1.7359356282592646,0.4135028506856884,-7.769062061132587,-17.208241323135354,-14.032435431970876,-13.21850070796549,-18.682103269978246,-20.19133746999735,-23.29148968226883,-24.067566582236644,-10.479682720146204,2.8169110955069288,-1.6032692192929474,-17.14728475047604,-30.640026381746218,-37.020807997728994,-39.482373984679285,-39.076854215363504,-38.675415102237224,-17.4119641983117,130.68049163442748,402.68361274402616,437.49672415276865,-7.317885618105052,-468.9069447567581,-421.018186680177,-109.66139929960717,7.108447228291874,-11.234786713271944,19.299250277904505,37.38868741368879,15.463090787026438,19.293482626796017,29.391282736656187,16.946978371368942,11.767708611445148,16.19789240395722,13.139777930716061,11.46629975502361,15.369152706231935,16.763379778040957,16.624994103935368,17.408523009527098,14.093249492987212,2.793104371578646,-9.903854112276782,-14.051525753024798,-13.388903144714906,-15.7727089105958,-12.580370457668636,4.623695231131665,24.030547320256243,31.412407684139666,25.961099176649185,13.163521643807783,-0.172684959016963,-9.682481634667583,-17.40006022051137,-24.140759645652174,-26.655541126175613,-25.75416967020202,-23.363680749483784,-17.79392251186006,-11.541406799682793,-8.525128997413862,-5.770206864750051,-3.9904783002936313,-7.991951954742836,-10.244474622625551,-4.361333651536871,-1.4443834916511271,-3.660366201242132,0.9644043312803561,4.195748087614822,-7.150445761760761,-16.058877431304534,-9.639454339151593,-4.787746220305639,-9.005189352349586,-15.655630719622685,-28.454376486573537,-39.58609869575493,-29.16632678650393,-6.274490717688826,1.8877546580890048,-9.696850243402437,-24.15645432296864,-29.420071616686027,-32.07723536270255,-34.519844365011004,-32.85215034528686,-24.94326689228477,72.1925123615006,325.65199021386906,455.23561881703574,104.82458022873767,-420.10372542850683,-488.84660987059715,-167.61703554020764,19.050017258080974,0.6951519750795541,8.494966537990546,44.97706861453452,37.063694296165394,25.875668824973673,30.388675525117474,28.634618714123615,23.696073158184657,18.864857072632336,10.702530286936703,1.8431432381781265,-2.971314144008718,0.521389772511554,2.9886591560467775,-3.438792043208772,-3.9485687107465335,2.808024537298868,-0.7191607292644111,-7.73727959371891,-6.891727035345154,-8.690434674305182,-10.405178577377905,1.6137925060301634,18.142134604430016,25.977285619083023,25.19646843477624,15.721168390229991,3.106305312808034,-3.965617847348824,-11.607658737196317,-23.856885597321014,-31.246690047272025,-32.97174430396497,-31.54806367153649,-21.208037047967075,-9.06716465934956,-4.8141078088071545,1.8791737564763853,9.080963949770757,0.44980808517059856,-9.042804155682482,0.04033599165508406,10.574837030408192,11.518670848271405,13.094247933210871,10.348140847301785,-1.492191151662281,-10.946616226638783,-15.037474711309716,-15.658533052307455,-13.942975035003922,-19.883232683119466,-29.949873828333313,-28.104897489609833,-21.717767654674276,-25.85210318668557,-31.989294119696506,-29.74592517136011,-29.67008761029271,-36.66035102737694,-34.90426364786644,-27.669233958891468,13.405622624028823,205.5921524939486,452.03345736364207,312.3861115709825,-254.90952687861568,-573.1948663602809,-321.7872510116781,-17.686109036305325,13.12548510453098,9.884441594916886,63.7075171897894,52.26121848556492,17.722646108999502,18.446988601207256,10.610363084381076,0.9019236630751619,6.864206463266326,4.435821766002162,1.0903726782167809,5.1455158165318595,3.6601344633672785,6.345687156993142,11.30773554679691,4.13128560700396,4.612645427035632,16.805121703457118,11.471560561478965,-4.065215528409173,-5.732969953163603,-2.8367590222774677,-1.0103264556752143,8.094785578316467,16.15105328428244,15.794923426093785,12.434539997954573,5.446396351457063,-6.3105368154236325,-16.444086279653053,-20.29041992415399,-20.725011581277926,-25.37024535320882,-30.81505996453361,-26.200899964646062,-19.24707356781636,-17.65830225048982,-8.673473598707053,4.466684763111495,3.0584109616216857,-5.347340574792085,-3.29630446136946,4.517306809435578,5.3733756880445505,3.7352224073909683,13.588410016978745,19.470410115176634,-3.860427919413091,-28.785777400569177,-24.46823113217109,-17.626420418590474,-20.133028641357157,-8.750523255587048,7.745856332677832,6.888135087899945,-10.37847213321615,-29.30143972218805,-30.82643645944652,-19.06592247805983,-13.215247399787746,-15.367966606359168,9.3479757317901,167.94972720949886,413.9632231855786,329.3565067535374,-227.1363090758752,-600.464660885786,-358.4648111529373,-17.75357978135525,10.927697125584388,-6.6222617233705385,58.590576264864154,45.39715989036071,1.5593609682035297,14.996174672887431,13.450653704326596,-3.5653196003354584,9.802270516474529,15.89929746677146,5.740519147235015,6.239442634946207,5.305807717821844,4.1189987468274785,13.649544825651342,12.785147322485576,2.543586440436762,7.893233146764505,16.18186993854344,5.078460999134688,-10.378686683408198,-7.990696985712463,9.932858220239071,25.224402619599445,22.796375229331915,11.013353508755769,11.451301772811409,15.357742821253714,-3.2488944965781172,-29.318167274154884,-34.25358935173527,-34.30945027089933,-43.12360306957683,-35.4463167981536,-14.346116538410996,-11.311157628907296,-14.617477784010145,-5.571581420233901,-6.526656557831416,-15.534528804815036,-1.2298332535679117,16.70044420042659,4.604624535387338,-7.81961669295907,5.521072198412009,8.371650284305867,-11.156786697843387,-10.447340403715856,5.860993281742712,-7.01546939445511,-26.352146632431605,-11.656614529953615,3.5246919975558964,-7.427315442482119,-13.042771894599827,-5.061168816748726,-8.787182632984663,-26.579085947393374,-34.0696061779512,-21.448208347666274,8.5764966567384,133.23299860138548,366.4188404294591,354.98466435207297,-147.5738061456857,-590.4616381605038,-411.8456303557567,-28.229121903550638,27.8408937530274,-21.612579744181055,49.6695055454924,65.17185341619486,12.38374015862885,20.10937517505056,36.77608125446059,24.743362580829466,25.13315928050067,13.597283009356952,-9.17915656527902,-2.473302829829397,11.754412874495777,12.367122300286379,10.884579625215656,4.567679630010944,3.0158956742916265,8.887020911270337,2.101909759374502,-0.07495474280489223,8.828322014568842,-7.375083593276126,-19.62984305761179,17.344623643055698,44.11380681288699,18.200078121925465,-4.4353340633368035,-6.776048578537221,-23.08662086565854,-36.41289086206795,-26.65687867150521,-23.833016299086765,-34.64760097712121,-30.65581778317455,-18.10193171836523,-21.17410022549034,-26.263146663516427,-15.154840023953327,-4.425438852693254,-5.620098557936762,-2.039201364452696,11.786019560426038,16.746835659414607,3.9585326578728237,-9.097026860677804,-4.868477382506635,7.210354353030025,6.687844243503557,-4.175108858624953,-11.330593514819679,-14.832313487981715,-8.207996111734857,16.40623672909176,21.31367733176618,-13.778010188408718,-28.73798897894462,-14.461237479036242,-26.805390766409158,-24.56459265879998,17.88203934774822,54.98866473430877,198.4853321438875,392.9210542799245,157.66144216784107,-454.143335760718,-614.2084951860128,-198.54352675876748,45.25021322019786,-20.62478655502425,13.76295068793667,94.27588601008388,51.38467631262674,30.979039121509707,52.29188018427686,14.245686668010764,-6.826839733878016,28.098954343578974,33.47907214873458,11.264600574939095,6.261015691701055,4.5518192428459425,6.640275235812751,22.125335713825127,23.058938206834686,5.005703323718808,3.8097126622951265,19.769601398370735,17.395787472506537,0.21058646006857118,-0.4967434809672846,8.29507159147514,7.87115016926535,8.108496549131203,5.235919428443879,-11.826958336565335,-18.806068235085203,-13.152480474871464,-26.66617921631736,-42.14612467652982,-32.74799002528363,-28.794297047861008,-39.6408335708996,-34.95494745522101,-16.948394792334696,-0.996570975888531,6.534439264573804,-5.478146290162568,-17.469865576985615,-3.5692679547746753,12.835231756316025,11.580518683548675,4.600819379308538,-3.6849793320261828,-6.80712813285154,-1.5141215873277076,-4.676613495519893,-8.748860700665194,1.0413767148931354,0.3270153884817866,-11.004152538136498,-2.5722694615557646,5.952976585775595,-6.034805366782265,-13.205815605566407,-15.309135438966582,-17.49797823063536,-6.83814752149808,19.186884734572317,149.41375862384484,380.2387833626624,300.8742618095313,-274.1992617561693,-666.1838094004935,-381.6493208841642,19.08517104672509,43.115349671184276,-7.482966779110519,71.63355115084467,87.00489933094156,30.576118266104167,26.21603632650538,33.82607503862367,11.526323991657813,2.1700509434163617,15.834658520174715,24.713450956622154,15.30801958938605,3.945685408300082,8.621363607832125,17.68564960161774,23.257260230643727,27.043873527410938,12.336080665212418,-10.325494988784861,-5.246742426165399,8.961022888622958,0.6204701668136456,-2.9925851928552785,14.510189040258842,20.635742960846077,9.790972988870308,4.912949800132141,-1.1248053964297906,-16.847638582855865,-21.521653761302254,-15.791479913347917,-24.87648947920434,-37.990650007684536,-28.247084980831204,-13.31938643598184,-22.047030456450376,-35.8696961480171,-23.310979230759816,-0.9322294391843151,-0.6589927791525554,-4.2463841246645835,11.379091199124609,14.062385577694387,-6.641035549203853,-6.235195775637521,10.566594051212846,3.9058901285537733,-4.611378247189249,5.223811936756379,-0.7168125523803024,-24.70631275873773,-28.380938155325037,-7.304357745556938,4.6865828753942935,-14.500235929056785,-36.211521470409316,-28.311347058248245,-15.9958062336766,-12.101733082514194,-0.25805013339362404,24.920362788186623,158.1331054449495,394.02305518023746,323.1674294561137,-227.63119310044013,-600.9055137950052,-345.3264522003182,1.5221813557784074,8.64275716479952,-25.058886367375493,58.53138332439853,68.33147629378362,25.435181548298143,37.98564428126524,41.010131812704486,12.22881974363311,3.399768507157063,3.142351352087873,1.7064012459201323,12.646033896053558,20.50090375409792,18.59316614166214,16.42355952303653,12.066653912994804,7.999287601653085,5.803733144776437,-2.009743360128915,-12.515145929621074,-17.3442222384258,-11.993958411302643,3.70102130512695,16.62301253520388,18.0211422369989,17.50860244997571,15.442243691086885,1.8393474737962858,-15.939084064704158,-22.36965827363327,-18.050932006306954,-17.53257367351572,-25.079120829471986,-23.866668300304596,-9.214804687782966,-3.8012344182219877,-12.318436074578567,-10.954410203938423,3.5707452540671056,8.868703536027887,1.16510114167309,-0.9114795199081307,3.190846789578348,-3.0108546747246248,-10.760235236929308,-3.2478269031113456,4.064726344091854,-0.5406060438944955,-5.276417746185851,-12.784833032243215,-22.675173307176507,-19.123235172533708,-15.461131450209146,-21.373586358871385,-10.268015547162149,3.686811585790032,-14.478653426498283,-28.285172671555006,-14.918752263133978,-17.771865058155015,-26.494006123906317,-13.99642251302248,14.558498392198118,166.1155983237655,421.99469348194594,344.3463857960978,-210.19700724477093,-569.7657575019854,-328.8672643712099,-12.54400250535183,3.8120282283476996,-13.205919070966456,44.5667749922158,29.08666836314469,-0.1439535060415702,28.008804944219502,29.98504247134408,9.420895576884144,16.326292427947834,18.212086857101863,9.888312235676825,13.30952167273285,11.703163944971717,7.520488187132353,14.53161294895132,17.887942194751002,16.00162355034196,13.608347613012176,-0.04673750153928857,-12.995182859770969,-9.004876465594462,-4.873505141716883,-8.30721037875326,-2.998739146938168,9.38328911108438,12.715390066366037,6.551769434063093,1.4062363206263613,-0.9067466510876967,-8.689004634790232,-20.46694860996274,-21.816587249992267,-13.432915061525907,-11.399794826112366,-15.978193338682043,-15.397244757381168,-8.82217699261321,0.0081705549718194,9.481223299593964,11.736866474241598,3.6152460966472475,-1.7456124670672626,1.1769795492574344,-0.7800292265125606,-7.855696559540674,-5.588904081847121,-0.36092558659599305,-6.615660824270632,-12.855670192425684,-7.413914574547892,-3.5633954775000394,-5.549290471556644,-2.0403880171509243,-5.195555133480427,-26.030849347578656,-31.964474292072545,-7.480815349964271,7.724060625726293,-5.7053809834818825,-27.938638889494563,-46.5179482895678,-51.97841051189785,-46.052540197002415,-42.29916438974206,-32.50100194084099,1.456459275941512,129.45110926131923,389.0017606488329,467.74952820334704,32.323892072754674,-489.9553376293175,-449.89830732260185,-95.43831499298348,2.979337442411257,-47.04158245707385,12.996504300622359,54.35343592279078,19.91153767570804,25.48111444603346,42.912470944488824,18.136392434321998,3.3209436723558143,11.71091954386008,11.465021641329685,7.432694167144332,10.769334503912098,13.767389424952185,9.313292008563284,3.207902034069622,5.000802954564652,7.2390103071765335,0.9116865502796427,-5.533970892139776,-10.57178991952527,-18.386703540975848,-16.8736189113934,-2.880146432553175,7.329997445971456,10.857503336594101,14.381352811783602,13.356500571917607,7.783939070617649,4.60268602747925,-2.1166714178698793,-17.106274658161322,-26.893530947003825,-25.04966154031667,-22.426381109004065,-19.095163510489854,-7.959609832290461,0.18087989471728427,-2.4180317676409313,-3.223760285791183,-0.03485837440371853,-2.968160995875726,-6.472813300526657,-2.680731931715277,2.572221484626523,5.179865924033134,5.006180714141838,3.5921328684417198,4.892611610023541,0.9618154232546523,-12.845721889077252,-17.40264366149069,-10.28983808627241,-14.762760084056824,-26.207212462333587,-27.225789213281057,-27.558744404294487,-28.268818291645104,-15.18686184513674,1.6128635852358784,4.991773854752969,-6.150920577337413,-24.36722209439091,-34.75331522274113,-35.66103533755603,-37.462346359918755,-35.04184950546229,-8.456190566642007,124.1851918897846,399.5096542933299,493.66929711100124,55.85359946144982,-505.1647944487081,-505.3407767377456,-133.07862929885871,11.572393552773303,-28.6981934663233,20.345099919459734,59.25279748889674,17.010226679773155,13.150294994218793,33.79484257999958,18.912189588174684,17.09156024079266,29.73565973913607,13.902894623094758,-1.6820322675937924,6.774390487208756,12.791862205763676,11.333896477081073,12.742358931675826,10.535901950779287,6.29860450600682,6.654770236300605,3.671613915411165,-6.247086176373337,-14.511574944259875,-15.373369685486546,-8.212595000727509,1.6090009460085777,5.536773331534526,5.070503313572486,6.12861456613839,5.540234453150637,-0.7474342725982286,-9.317416548288218,-15.646673009429094,-18.403754681122425,-17.340865781893285,-13.25691394257764,-10.956124859543118,-12.504999468070007,-8.984152167855449,1.353575089972896,1.9529907992423823,-9.66478865018951,-13.217375801908364,-5.861073316832725,-3.8654522617057303,-7.401044343587342,-6.833577977002829,-3.6739333621981345,-0.8992585518748726,1.4002419905504713,-1.3308855780878002,-7.891823742161376,-7.851995497751464,-2.538408207890553,-5.03089372969405,-12.79956343548298,-14.888482735573426,-20.073130900118088,-33.873426828192045,-35.50637550401553,-17.724968286302555,0.1784263191694846,6.57277639837822,-4.451526523188463,-27.17152866235122,-33.34035168631482,-26.723451047599905,-31.54924928819699,-29.345718919487453,-6.369140856078737,84.73239546380765,333.2647549182072,511.7371701921795,184.13875244654355,-417.4958636694852,-547.7883936914412,-201.90606650113818,-3.19086792029794,-38.27527077766618,-6.8287703883789845,50.98782422656634,24.686794371292024,14.654035991771972,35.93011327643164,23.732788539444726,15.438046759629291,26.821363984406883,17.15606025791048,4.47954394045396,11.361226602891485,13.652387223124599,9.910161748178874,15.706031787212568,19.398158825719303,11.144607435532743,0.16579215123519275,-7.477273163808576,-11.664706107404244,-12.827311472977414,-12.491586100500486,-7.58205647549482,4.836640582976857,15.499025400536768,15.286109667584345,11.091719997257819,7.240107206501389,-6.40071568379852,-26.357856847077336,-33.83976044749343,-31.05358564717683,-31.994979962379524,-31.344563136837003,-23.023780653882508,-14.028437376732732,-5.904773152979953,0.7559952385176558,1.3732488684161996,1.1749450502875778,2.986522727273355,-0.41263556765257015,-4.795080948798994,-2.78016593456028,-2.644745042038757,-7.815292928387644,-8.92857765078097,-5.308460027890732,-3.128928481522589,-2.667916283864656,-3.5567986413203645,-6.62733151852607,-9.382582367875488,-10.392892789876292,-13.170947797489116,-19.816443526964186,-25.113424246529114,-22.022326734940258,-9.076691237346486,6.088552304401816,6.029822703194741,-12.01552231712877,-22.780057712358737,-24.950815738439875,-42.5100876776566,-53.51251608927729,-33.400778464718705,28.499793697270988,225.4157587981488,489.7841503507945,384.84064014365987,-199.64356849457528,-595.2122457346422,-382.0699802855295,-47.59015229330991,-1.964208250588019,-24.074367896434236,34.38980395872896,42.969201222110286,14.41305254083765,27.79094175416897,34.91403350611087,19.037929004619,19.410677646550667,22.378669233576773,16.44537532525971,19.499852866444577,23.781495759429045,21.545388500223968,23.449857071352575,21.837055176131255,9.549117548295557,2.637379954489909,0.6414089525101927,-14.35338629298234,-33.20628121068171,-35.48365395345043,-26.18204727731941,-16.15848514476152,-3.8105471229776358,8.896479794498148,13.970681720638357,9.629706918401922,1.5724989399212124,-6.259865746189632,-17.44479850544822,-30.117239258600215,-32.203169716401774,-24.323918731454935,-18.75710003494541,-14.909781654889072,-8.99835139533236,-6.512703407116696,-5.690637147312659,-0.7309057512055794,3.0331861388987065,1.4269481041624932,-1.0452128906532359,-2.1361374690474175,-1.7725454282432906,0.8883885303097045,2.8112419031978435,0.4262746791371974,-3.95878827854893,-5.638461515412798,-4.3177998760391,-3.6828272136111444,-4.9454206314316735,-8.18904559368493,-16.631433923504936,-25.132364335441526,-19.296934088892232,0.011215226181333193,16.31688861458226,16.481930759407668,-6.853462285115782,-39.49233204312071,-51.433160565376745,-46.124738432461044,-41.26892980605603,-31.84935363754693,-4.992442932044462,119.62057721006389,380.7662846855913,457.07324823066085,26.33834004508769,-492.176557558501,-470.31889510690405,-120.5816392212168,11.338509118211638,-19.98804116135148,21.955952018681526,53.713332593095956,25.41081168970163,25.905545526782344,38.52518783740911,26.924227528414505,24.887202934530556,29.733364694759313,19.22187717968896,2.7814403260099283,-10.82096491236773,-13.392708363941013,-2.1691111326562638,4.722049703746054,1.408509282514788,-0.8480090796059399,-2.4970393037097205,-7.433709226895961,-13.010232930047357,-18.225398520910183,-19.37592558111795,-10.96333400081937,2.686670056523984,12.016199842047389,14.071714179248698,10.563374722917258,2.5806286200528623,-6.642828553425259,-13.150942781636786,-17.4865731329334,-19.813482880891442,-18.423347214327567,-16.009994558825554,-13.886764791307167,-8.567365608763897,-1.1023883454503132,4.565571822518214,5.308434692160171,-2.8787925023435044,-13.369401994358906,-12.050459833424792,-2.698799177044883,0.3129323508591817,-2.2968534297061503,-3.3273963616958824,-3.705527371629316,-4.273329053946124,-1.8463208900498174,2.1455409780688015,0.33056239375790675,-10.345257988525654,-23.749187511026882,-31.744101273644496,-28.706561196371645,-13.957513750718489,1.648976129816412,1.83127977941108,-14.965869638802388,-30.542823449429818,-32.8077286983734,-31.197779597507044,-29.664961718503555,-26.746133498727758,-14.241568299257722,103.60662371854411,375.45723799300765,482.8399332612647,86.20844450123795,-448.96651488877285,-490.81865191177104,-162.17908125537662,7.129426866923968,-5.517253794304089,27.359036009607067,61.243951292364486,28.02939236023929,5.9310354260136116,11.167357054586581,6.913090632919626,4.088200890845102,7.17738047034358,5.815587000700917,4.450990144371118,2.923046613472036,2.0844760985707023,6.41106564179284,8.562374162478097,6.242544381096266,3.027976920200399,-5.565440142058887,