ECG,-1.4305239045388363,6.882062396158407,14.833479049060822,17.857481221937586,18.32824709382,20.52089902014263,14.840187229211436,-1.9560574035618545,-9.342079987853559,-2.761703575691099,-7.696372051908414,-25.238065729413023,-29.275821371465597,-23.364802528245093,-27.515247647282187,-31.534715187525258,-20.6677151999766,-7.3722109049913715,-5.349257032078123,-9.126618070491112,-8.760616176018807,-4.3652925153836115,-2.603398803796125,-3.404651382788696,-1.102727892787927,2.0525370546562307,0.8013718824621403,-2.547329486312533,-5.121090154997908,-6.5769502171456455,-4.859171745002296,-1.1744949213057865,-0.3349082279608595,-2.7285296181265046,-5.125049234551348,-6.4490614875685495,-7.754325583130713,-8.74138009873355,-8.380663072087891,-8.80210397066924,-10.354596349025353,-8.14985457818053,-3.815701536551078,-3.3775624299662663,-2.6134060597646194,-0.13386545054805588,-4.8921271020121715,-11.865562455841054,-9.157837647292359,-5.070875061848151,-10.170371194192821,-20.12758354797152,-28.188125409446467,-26.553194329102205,-15.079302500271625,-5.297084719778847,1.9177871269941225,0.6336215359837567,-22.20837888935275,-39.08705591464738,-30.214415233875528,-27.514090587642677,-27.022652019212742,4.003201867028402,101.77182230928456,327.5167760382741,481.48278744104607,144.42301341243032,-464.5765221091226,-565.8677461007276,-158.66741218770414,49.75471678989086,-23.369174525687075,1.3225831057528836,73.63513692771794,41.63422134493014,23.771963112513447,42.392894235463615,16.989285812619944,-3.177220311083465,11.702225783595757,12.331958801101528,6.036921775155953,12.768564832049535,10.109408852936433,0.16151921011060688,4.758248016496914,14.44580670588532,13.272789216737749,11.86776154631102,15.569495329764194,5.599801251442787,-14.011678913396551,-15.889299552402756,-7.9468539294077205,-9.392130331410726,-5.157459663737513,6.427159161915313,2.8891405130603083,-6.6960851226017,-4.839997832178534,-5.265641051523708,-13.25996949335457,-14.755311562144104,-12.129291043977101,-13.164687589594028,-13.250089293337869,-12.304949244827231,-11.486187854184804,-5.065128362597033,0.5109852297037101,-4.746833633821133,-8.675730874774594,-2.0295781888768367,0.5968025787256934,-4.439720752634427,-4.2168550008185495,-3.3223065203142177,-10.191965354584632,-13.912538031968111,-9.852480773764764,-6.72584577782203,-5.223244135678325,-5.309397175161926,-10.026818687752876,-12.579255777553005,-9.556075402296823,-7.4186181998684795,-5.4423973734652265,-2.911177095737502,-5.528088325196595,-8.564278175730282,-5.9729211238630295,-3.9995071145453487,-2.9314325019857,2.088038039224781,3.76253740625857,-2.364425889730633,-7.1802119671873665,-7.050047247971001,-8.595727464128412,-14.44292213132741,-20.575881071912757,-21.674646303637537,-13.057421849478448,-2.5197514354709867,-11.433466978519263,-32.659303549055544,-33.534446039164486,-26.623565639452906,-35.198920641004634,-27.54560299868445,22.357335462286457,162.81381580092238,418.8541193178393,469.9564239124263,-25.323969560597533,-592.4830199973012,-515.6103464684574,-85.79182789246093,34.853630659992206,-26.077743796045826,38.22006194108709,68.89344052526488,8.499499043151639,13.454049025505036,37.59038971450916,11.274011988729162,7.875774986801497,21.266954060539643,7.352831286739731,4.856970414152519,17.33981918644461,12.182709002369194,5.940334502942687,8.49544526264419,5.473123552295801,3.996547200062073,5.953481619439944,0.42771522262464756,-3.6587598958209044,-0.39364448315990797,-2.526077358640114,-8.776253452268286,-6.888581811535996,0.6060820867582504,8.017826973459327,15.437413476567531,16.16031428219145,5.388341758286108,-7.200342639994397,-14.023017137467862,-18.204967007566125,-18.540733415193067,-12.965693177541107,-11.213650202741448,-16.87681035735787,-16.97146731010593,-8.526303703439606,-2.245180415357485,2.247644350199743,7.841689011277451,6.743404192711946,0.5314264148624943,-0.01883519867695327,3.9601426253256538,4.66592428727351,-3.232117184687647,-18.963935746393048,-27.484371553845335,-19.7726535103897,-10.782251488099241,-9.298483696355449,-7.214646049232599,-6.661036197599056,-12.685547926374937,-15.052045376128934,-7.1598516494542395,1.8817821037021716,3.1877891609901905,-1.0162586224960606,-4.044423408483219,-4.7824894153386115,-5.663816402476673,-8.864117480740951,-16.164560644078723,-20.22955216555016,-13.381119030809652,-5.553382837533535,-4.319055136824616,-8.037139520097998,-21.187260220747795,-30.314422067781095,-23.132536057311434,-27.475562172877368,-41.780316789553154,-25.12252767221995,53.115097814219894,259.26321215347167,489.0788783015865,311.2399493666145,-311.26216283199574,-641.2513798069365,-333.9095138863911,1.1640281074320882,0.5953160648727476,-15.956503767038893,59.27330493393889,50.773819431170296,13.767309985515455,32.220151960666186,31.434230473308574,11.477939060126898,16.801397307958073,16.376144928641324,6.036328210563012,8.779002616794399,9.113115055157163,4.932071117121055,9.749440904297966,12.245456485694463,7.497330194636071,5.798452011619565,5.919666183255565,5.073133514746068,5.400694455312519,3.2598939111372913,-2.036347615033204,-2.2695557809185463,6.947556211904226,19.280868425966645,24.775955433855657,18.630367146184774,2.3507110856367746,-16.508544344415128,-26.627225480652708,-27.34613446248055,-29.028715396318688,-30.55148080620973,-25.329110352383104,-22.01528609755602,-23.558933347241698,-16.747883755428873,-4.717445372859778,-1.8930586636280342,-2.552181541414093,0.470717572350269,-0.5438314061729095,-3.3172725639856697,0.8414391703899344,6.359853675618901,8.702652857786468,9.815313950595161,4.310544180085276,-5.353263870424316,-4.876341172922511,3.6227710656176066,9.100201878215561,13.035658454431168,10.65563274938741,-4.790171208327145,-14.669744286029495,-8.524800657475664,-8.096661869486262,-17.435626868811685,-21.76027072852785,-32.57792057581903,-51.541820330890786,-47.65919596440196,-22.66592887326533,-7.097946113903422,-4.860147320987579,-16.084249528199685,-37.65192676266186,-41.437849866288275,-31.49838540321209,-32.51437404979367,-27.937197490416924,7.133103268713441,141.8725381183831,404.7574385723449,464.14625479451314,-7.258115356769167,-546.9154434851762,-490.5609827453669,-102.75038212678136,22.893209995411556,-21.15670843702606,27.163486781472233,57.532898458456444,21.87164852202622,27.866909201147354,42.99659420207546,22.189349839867177,15.972817475556747,20.80379200395234,9.081395322886468,5.063556915689191,10.541746059930915,2.4596595396940018,-8.363184424345633,-5.381210747041198,1.2530197464314061,1.407076798621667,0.6323581371536657,0.8848326805674713,-3.007632248142162,-7.131665009005575,-6.017270540696279,-3.188249098986379,1.6083570773405254,9.768239620165142,14.013881392303828,12.085838987137459,9.154629898573102,6.118765038370452,1.5307142159484783,-8.120878260132185,-23.345927778508432,-31.144597510645358,-25.103652869688005,-18.161700067532635,-14.2536018533937,-6.899370488424475,-2.402712360550801,-2.932620892308698,1.5491706672446082,5.368183089393248,0.4305439013140653,1.6258172057403346,10.70252262665852,3.824737412031306,-14.250580810386598,-14.025446783358202,-1.13781902835089,1.0778438171528997,-1.7088220345755438,-2.869572146828336,-13.2085806253048,-23.960463566037344,-17.102663542769477,-6.071886707313952,-8.958472177380077,-15.948016455969714,-20.242082592990933,-28.570452851701805,-30.498746103631483,-13.911431073707044,6.094034392616024,11.621501400506983,-0.39498762023585954,-21.81249661860117,-32.15846411252042,-30.66422887903974,-34.25820605956881,-30.487843087713742,-11.814406743751825,54.87729062576811,274.14715700428974,496.89043813630155,270.3661865032262,-334.5489407362586,-578.65905093522,-264.8689174207628,3.2709412146872143,-15.678384165973355,-21.365106992333704,39.07868253346533,29.536642418919428,10.323869259436812,27.490154298093145,20.28556416854348,4.3053603971705074,9.241783506629156,8.557298955112751,5.581352442938487,11.341700434086427,8.258631028967084,2.277039075569203,6.964605952838343,9.938552927135717,7.729343597852388,8.661379396389743,7.590682357881387,0.3820043925720924,-6.915773029173861,-10.132934347326279,-6.986953140745303,1.4089322327870706,8.561409028613193,13.637274072869868,18.23891090489745,15.318239609143033,3.5535692397355696,-5.319134781962884,-9.649805949638468,-19.39888086987125,-29.834555569644326,-27.9449807440837,-19.888959277818195,-18.28001065286471,-16.93522889987667,-8.515652683378667,-1.7534692875612592,-0.1514209989774109,2.293301013063367,4.092760533671633,6.9934351970920385,14.456468595248595,10.434011789087181,-9.025697932004913,-14.904566104042281,-2.7803865546964115,0.3821191390234482,-2.860398370598265,0.5896578818029568,-4.7855591422406505,-18.446683746462455,-17.162394840249753,-9.276989745747263,-15.133557963537495,-24.701365890585123,-26.0634401811113,-22.146849165904413,-9.826754893463306,8.047146117687767,9.254736476479248,-13.005257223829062,-29.964980029656097,-26.976116581531645,-30.746854539016425,-43.641658284930294,-39.446566308697534,-20.100977261824177,80.30030358783692,337.70158505445204,471.7613341122877,103.44591109076589,-443.76190797893946,-499.30149377624,-155.14726278026612,22.79299562520759,-6.698470527940472,13.125917409635537,51.456013026048296,29.0113845131682,18.338921326714825,31.098649945645366,26.284461693189122,20.122228705395404,18.089331164728396,7.4867454775126205,3.5620300226801174,10.388695026187358,13.616865609786243,12.896758392287367,9.415128714829219,2.1806787449605287,-0.46980708876801147,1.6757969266104866,-1.547796167531959,-10.46046226988014,-18.669510145029363,-21.23156266785582,-14.53218901546687,-3.289645164344002,7.087746067931452,19.38934190258428,26.628834959812497,17.92590551699363,5.202585242056019,1.082941117357736,-3.2691540888913906,-11.788882389866432,-20.863513848533493,-33.62772475333658,-40.73127599642844,-29.24392520840766,-12.352446839229696,-4.12020564019819,-1.9275393853934126,-9.060932542197605,-20.898355942810777,-17.500028427409067,-3.2164700560913406,1.9604668122062314,0.2682428533458179,-1.9999887964435565,-7.048032584793315,-7.489530286471695,0.5578844838422263,6.394064621929908,5.029448977749025,1.0501298314261973,-4.617637177191739,-17.448137114638104,-36.03394480540777,-40.37213416249641,-19.752556450181398,1.7333601786869988,1.1597036264070937,-15.150137184068853,-29.651795639478618,-31.308916113674858,-29.62425563384462,-34.805908855987425,-34.18174898100718,-29.551575687778794,20.295372647367543,229.54327819155097,455.50910288597555,271.1474748662224,-274.37433656499917,-525.3989558177764,-270.0862830498428,-6.1187688836563545,12.922623083188956,4.021731211530849,43.975310018124105,37.98363893979841,14.109337558667264,17.56057695885104,16.965887600763395,9.647088691604988,12.054853472984563,13.683634904795206,10.319220930907859,6.6702105347347675,3.5456350916360906,4.412150413514059,7.1611988950001715,7.59238227258847,8.151798715807825,5.606076810330379,-2.5901334452327096,-6.832426012260315,-5.153140686302567,-5.512554706996695,-4.533876764511029,4.0745212721544934,15.08836328543794,22.48963064882347,25.291489335693388,24.039854136311213,18.925067491007823,5.544178187864301,-15.657626899133433,-29.920176922839218,-28.830304758255963,-20.646470403541695,-10.454676407978127,-1.858873687392622,-6.5646924074159045,-20.394540270746095,-20.700581076071078,-6.872647491782894,0.4551198259573255,1.4194734487262597,7.22545127413083,5.826415169225111,-12.298627871999766,-26.48872902020701,-22.778450844863034,-15.739782345055817,-14.65160935750615,-12.519707140251086,-8.738523496026193,-7.839050724890576,-9.29267655146067,-14.846633827723593,-23.607676476848713,-24.112665812114663,-13.515912327136359,-3.0137109586499555,0.18593644652726127,-9.590499229439473,-28.99031751208673,-36.1059235686818,-32.280988645622585,-36.26537842171337,-36.22750718456941,-29.170136653206704,20.191639400260115,225.8077966383762,458.308020371701,290.5156473224164,-249.0301041247738,-515.32824324486,-279.79138905030493,-19.939732618165735,5.643505864307244,-2.259883942435767,34.409905503379846,30.013542653316826,10.720424792007236,17.86819549374195,21.239301254908654,16.524810233675016,16.032120499597085,10.27848510338129,2.6519195285788713,2.033994397344197,3.4248762974058486,6.736948282664576,11.598122083353694,8.589823827989987,0.6556513713012588,-0.5595114340099547,1.6829572781902875,0.8957514641178426,1.4708103574151883,1.9642452117440241,-2.7012670101380847,-1.5425588645367707,13.14243814736125,26.43869659540412,27.474161931881344,20.05280036529307,5.688393361033517,-8.710319622378883,-13.055524162125117,-14.334020214514071,-17.476627481222742,-14.9044989761552,-13.399742448126066,-19.327975336509773,-19.948086446502977,-15.82386848946248,-15.275738255405024,-8.890315101936391,-1.7359982273864336,-9.178512664857667,-14.177218421496224,-4.738697559968795,-1.2640576332025617,-3.199757042707585,4.209501960555745,5.193837847021051,-7.249254230391536,-11.21215691149916,-6.264674372877639,-8.328082499747243,-15.658084087742075,-26.467386852668398,-37.30867272714156,-27.9886869007778,-0.14792995838476042,12.963736440883327,-1.6397763231911853,-25.452465882677476,-40.12879874075948,-42.80937708309094,-40.77704571937615,-36.99475499203708,-37.43966978488107,-21.37052750843914,121.2541644772302,387.1118024305424,416.861137215644,-24.55904853867601,-474.2379758440876,-410.78820884548907,-87.29576459552979,25.920462704132248,-7.454783782086601,17.461756875155153,38.9172059299871,13.939783610081571,12.593689114857616,24.92192858914068,16.15879829035118,10.564025774427426,12.985463823794,7.792855097141977,4.421984710918862,8.204435221915132,9.889803933165066,8.333840292054528,7.823908288720892,9.605384453255038,9.474547846888346,1.872671812362631,-7.929835425444733,-11.548413165120996,-11.657501200865577,-10.375758379477174,-2.751042567590994,11.398582652190564,26.673747024456958,35.15206107663816,29.978283866605732,17.396547062464577,6.014281262090845,-9.84555912016294,-28.152012657317595,-34.24236449332502,-32.615276918335155,-33.90745484102396,-28.572163527343513,-14.803690214806444,-5.423879663398498,-0.09371677438115533,0.8057796295776747,-9.584135357907465,-16.83817748293334,-8.085177310122788,0.9013970499884607,1.8909094835495726,3.4420372824621825,2.5095433181046136,-1.731719506037372,0.4473286068121034,4.068911419160374,0.11841768299102107,-4.778831125018078,-6.573808854037029,-10.42957593843612,-18.764591613727777,-28.76833872284633,-27.847991972185888,-7.078999976698784,13.163847941169767,6.984739368861536,-17.180069189181182,-32.87426189164755,-35.19670939340415,-39.237041770447625,-45.24029412531857,-46.95594531320155,-44.78201847846473,42.90892904304313,300.1503908881469,474.1181531231069,180.10333941240643,-352.51318757002855,-486.6601574366823,-199.2598315934199,4.547918634630529,-0.40146584241708894,3.226828663134487,36.201893178742786,25.21056781946518,13.180292922692217,21.154083890417475,16.6732567248676,6.3040448529183255,3.9409571267497614,1.3188984336828824,-0.048038160653529616,4.546731952058261,6.910924504214759,4.136917342101495,5.9151339580305695,12.434589259694004,11.825538769477939,5.4636437223713905,3.8468167741712262,4.8535897315241625,3.432618777528546,-0.4637059215816244,-8.141469607309972,-11.767862344367714,-0.848765198890312,13.50944240975111,15.644935684271847,10.686970059721009,6.027880442433446,-3.227068939663246,-17.475609772677323,-27.18263114553845,-27.22994065726863,-20.501323879638004,-9.870800506253165,-0.791040515072476,-2.9545225145878877,-12.644528149863408,-14.065705956016057,-7.899040053461633,-3.991106819522816,1.182410030526496,3.9405085467776715,-7.591566875865649,-19.34656298109371,-13.121071359836886,-2.987729074094762,-4.001285466739194,-7.3790238330154985,-5.930358831866801,-4.562954880862744,-7.21048494173427,-13.071547757992258,-21.19639754701215,-29.96162407707492,-29.660717793016097,-12.44934978218443,7.67951590068849,9.976116399899084,-5.851645991621517,-23.77596577923571,-32.194953569850185,-35.71380624367988,-38.04749371824446,-35.656506760167474,-28.899985421770158,50.543962903115755,291.20546376504313,477.6116554327772,219.32965233175082,-315.4306693853269,-493.12419288417004,-227.24397813167616,-10.483606125070402,-8.295692908504137,-9.946590160340435,22.950416580931243,16.871492655295796,8.953249821228068,19.449368863505935,17.487540366819836,11.943587804498666,13.146747567362384,10.681130054086502,8.685497295718262,10.406870589956405,11.332948066253458,11.30808234134247,5.539187815385808,-5.071032248669523,-7.388472277610792,-1.9482446436340455,-0.8389595345989163,-3.1795694118643714,-3.6768116835425144,-6.003482381114921,-8.893467594949971,-1.843105079590007,14.48507514792288,26.20822063413148,28.46081918370953,24.27239847546997,10.39175162832174,-9.265409607363164,-20.01566052136739,-20.0707373225565,-18.422108561097588,-19.640413472820605,-26.477703589508398,-31.877125451506668,-23.499490208946987,-10.17263399644563,-3.4626840144414626,3.261630300966937,3.3079239654938632,-12.026426143418885,-17.879069983659534,-4.099437036631695,1.2652546316163988,-4.594384453347075,-2.3883998487747284,-0.7378886693786608,-8.553520345205385,-14.600159191024717,-18.388372169108877,-21.139114476342186,-12.748992218987087,1.1118602191274531,2.7899296129993862,-9.68022376891054,-23.412047405823984,-27.458976170732107,-27.15751064896172,-30.490071148072794,-34.025290535341405,-33.8388291374333,34.68632585470907,262.68250527593153,457.45767456812996,224.06658922707228,-311.990616692421,-511.0438143248735,-234.63610073487826,12.399005966910892,16.515105449521222,4.195972554450332,41.5374606845064,35.404656092214715,15.701634471117284,19.819244095756602,15.242675004357539,8.616442640037285,15.088646417456113,11.4804576405831,-2.040426516581727,-5.105126324486312,-3.1649675934638584,-4.285424876068846,-0.851832448197605,5.035732294682083,3.671668487199312,-0.5759812824572323,-1.612776374011176,-4.710493224219827,-8.841222676768837,-5.648577185168297,0.708675422800014,2.9982146810661394,7.678473021455997,17.18644916928111,18.8670110848539,9.961506970638748,3.290816491933599,-1.853810158611516,-15.881120805364361,-29.006505039346173,-26.83711804889918,-15.831604460969398,-7.529248745229987,-9.729086448258755,-24.045093217214387,-28.77426372408767,-9.231010964381404,7.666052904066545,5.438751404903665,4.263327629258653,4.2679059358656914,-7.869206680351088,-14.63206284038312,-7.088037753077842,-4.559538142057086,-8.802893500066826,-12.752094862325604,-21.02801888539996,-22.15379336192143,-6.731598893674029,2.7297704558065945,-7.2703019369991075,-21.61758910570015,-29.705899123079533,-33.243393573059784,-31.885695880662787,-25.56373100044057,-24.780683282542814,6.088270290598501,182.02200455178536,433.2952800551693,355.4569158810218,-172.9938885574405,-567.8465791356823,-395.00239524915656,-45.7365605300518,40.610271783349454,6.1153819050100875,43.32125820983738,65.95079563869061,38.747488073537795,33.93534686875449,38.8120378742728,16.973850256201043,-1.9386495824106609,2.6432711410879355,8.633165234723613,4.028212096141322,0.9555586999448338,3.9440762813693024,4.500333328068326,2.5826541487582615,4.1632375072451335,5.816994236383744,1.9980347639807645,-4.071345769343845,-8.168340325486453,-13.596990658563831,-19.14986289413311,-11.674521803588904,8.3405658046253,20.94343873764597,21.237592353220702,16.991680865051936,5.161258394666005,-9.996330188948384,-17.392239713889918,-24.87895025118141,-36.994142802753245,-38.08270551805909,-25.457744805186444,-14.714845494451794,-9.90373135272532,-1.742013083858291,8.321985165360163,4.281723215216825,-11.89678943748389,-14.323117258565127,-2.198766033080478,2.1347224788357817,5.085628293463937,13.988489967134656,4.798682347092907,-18.033344800464416,-21.230012147468752,-12.660333861250965,-12.932757770659855,-11.79532741156986,-9.253061063206182,-16.756781410752698,-26.437725255034692,-31.084328014688623,-30.982196941133953,-27.135501451300485,-25.091757172051736,-26.828129709605022,-27.98785578838523,44.8049291987664,289.23773645112743,479.52748104661293,181.51698696860376,-412.96793029766894,-572.9433878939391,-223.31073785291323,30.903665148057698,18.042536072032625,22.21369403710335,72.63225667747898,51.34240929798656,14.870312909448856,16.392657960236058,15.779977776572068,5.365793175199423,4.313282907618097,11.238670323982388,16.517048717271795,13.771735904854587,10.319803877925336,12.575423104479954,9.439869687391392,1.392582957371323,3.7427435375027738,10.802263403693082,5.616866933905954,-7.696663895704431,-14.723386520434076,-14.49351654361702,-13.318316464441402,-8.90032828885617,3.4925622374561773,16.29552753652654,17.57781414799475,8.483330745441961,-2.450800662082962,-13.620968942691967,-25.092463329729483,-32.44325374993886,-34.49311142918367,-31.929943024269093,-24.04647675892356,-17.172969495449088,-15.36175475185658,-10.255757578665754,-2.354259232493316,-0.9332611544974903,-0.3439217474980847,4.889960048595,8.535762824199383,12.336904633463796,16.517271145760777,13.2006974393675,9.384301489076195,9.470336085464591,-1.8037405063874186,-21.751953739684076,-31.037865190035706,-29.50046394441003,-17.566913120169065,4.392151553993356,3.3923269114755925,-30.93164720772935,-49.42891318790041,-41.848952756905945,-42.50706294814387,-35.72044092442282,-15.980133669991798,27.108034984523513,217.41589400326762,457.0294561010867,278.09380521054396,-314.1437417866303,-580.1201979049442,-266.3717399939788,25.847392765577148,12.46180314358104,-6.315116419379159,47.54029584700804,31.82130851804631,1.8787329437848985,22.75866264095283,28.293369886028742,11.879581825040722,13.62390658493019,15.743244508411994,3.5725850057024466,-0.8697369535464223,9.109530595752107,15.447881455389776,11.309330310714227,9.393759247193266,10.839793713758047,5.278788699907858,1.0914450203601842,7.033851505614441,8.45884286828291,-0.966692972480609,-4.412288984863833,6.514958723958914,17.261270163397544,12.755974691744346,0.9308602414168412,-3.2476386870355274,-7.383811326018424,-19.560860133554048,-25.3151853775856,-25.040760177067916,-35.57954540734606,-40.66281168333714,-22.13946907478615,-9.702188292211567,-17.92545562919156,-15.440583153578169,-4.482430552357709,-10.416487430588933,-8.223497241963491,13.70330921107526,11.872433881306021,-6.2190278399781,4.05048735193326,10.964502189186051,-13.3029295158751,-14.825515917057004,11.529619943394142,7.770791591293514,-11.916882969191025,-9.684782389142715,-11.743884293069671,-25.025214439710957,-20.68020384864871,-9.620522906243892,-11.757725484849708,-24.955374143275414,-43.54689358332044,-41.02799267347203,-20.342032329116225,-0.5439929078537915,141.38747644895042,424.355442759726,405.8253380446031,-153.7126691115804,-605.8159247454323,-404.7958352092159,-32.05666445928679,8.351799002793566,-29.32246865239502,54.11323414548923,66.56278820810391,7.3423343896510715,12.884183614819959,27.794610816682894,7.608694168583791,5.661378096576218,14.110688241119002,10.318046571228834,3.546719401194399,-7.50853899479511,-3.485681426325801,23.053020373417496,30.1762940128676,16.74627796688516,18.840784541011047,21.58981184990673,6.405879857867736,-2.722205932379485,0.21039809045149038,1.9214309690057623,10.971950631929019,28.18326746858889,31.715788638053453,16.925499473897588,-0.9977894637758364,-14.49622876120324,-23.963472610100414,-30.187114483608855,-32.22678977887158,-28.83116023147012,-28.891720076838105,-36.67177438010117,-32.92683250595202,-13.491486820963065,-4.790933644087982,-10.677665873980708,-14.063432165993257,-15.997119908209559,-13.680917638696698,0.17207833676137696,9.037599388089088,6.847409799659234,10.013060837259054,12.895542757692505,1.3838946053832792,-11.826912601537773,-12.782164660560236,-7.984491091777958,-4.292483785196527,-1.9165563805733719,-6.1345018759964205,-12.478772604202783,-8.427546813475892,-13.225646677575295,-36.16817657007454,-34.992736154479246,-15.829543526045965,-24.11227537895315,-30.74807263192173,-0.7947208848204141,114.07343902089036,361.8367458207552,432.2375261934213,-40.312508032143796,-582.3555102491483,-483.25248758038435,-66.54614914304875,22.64777386599497,-44.3149450482684,34.404843504714684,75.71164010762922,10.67441134041796,5.271559709946308,37.81385881664322,23.19548505727927,8.704549363235966,15.788388989869933,9.699974545031983,-1.8241867154512255,0.7217618772322485,10.597263936391805,17.610286895762833,15.797872988416774,8.224048086996435,9.292456636959482,18.691823412495587,18.766213260328847,11.164766089371666,11.28594098102369,12.820593522033569,8.564130171657286,12.039342766761258,23.36409233227937,26.421180130222453,19.235452944023713,3.8222501209474666,-16.93332009686442,-27.235045749522364,-30.01641872309689,-43.55687638148929,-51.05188968902578,-37.152088559768984,-28.67665090247317,-28.805784052612463,-17.36505052603019,-14.177660419610614,-22.110273488688485,-5.755305464220825,15.897229549275487,8.319254601781582,-1.235603683899832,0.29990289361000677,-3.790907178421188,2.0528097097628066,14.940812775091779,5.19062390478264,-7.423574607883063,0.6152009468786019,1.5895446039534917,-16.218431879392867,-24.95693092580759,-11.07411060761308,8.319777201703321,10.43975832789785,-8.914135264195966,-33.23700582380262,-43.99262669975009,-44.98486725814816,-48.57253691080541,-34.469249748736175,-5.789760507074853,19.996447481740987,176.6105568038439,466.1166486632137,387.6790065408577,-250.1954107144751,-658.87031103394,-353.93761095204115,7.021632900101036,-12.58074472197059,-26.637729300708095,79.78910362573347,55.14537418782637,-12.25769899027771,24.1525874273839,42.19110672015644,6.234448033795529,5.856065650692697,17.947213844115232,3.5665422357399974,0.9199267633273427,15.221345524752735,12.648311794407615,0.9819133024185005,5.2361211296941015,14.103018013753264,12.829251325730269,10.660071161030588,9.376976886559916,11.758525138263762,27.30736093642711,28.409041531277925,2.646567569230889,5.733672059889056,39.604237380092655,29.666447432405132,-12.442965449213998,-18.939603329290165,-11.347691174731363,-28.129937874520692,-42.38410923408715,-38.82696163182388,-33.13600494028735,-28.429032996547686,-23.002218932944263,-17.280772645320653,-14.785918323696304,-18.656841091105342,-16.18766965330839,-6.138878787472317,-1.3914718715311736,8.207962879172856,16.778322239557294,0.3964735934590582,-8.836695125524834,12.8474833466982,16.57760482496081,-4.291417778007727,-3.1643521960056136,8.329078308020039,2.6736487224870586,-7.570598267633514,-21.29992968185881,-36.264386537584414,-34.46613394457177,-24.220466337081064,-9.94666369704918,7.169869173230569,-11.45792312294779,-44.484415243631794,-21.96794951656438,-2.9272419674702697,-43.59084102635197,-36.76862475308537,33.343328628646994,118.10132025458823,333.7325541863763,489.92559165443095,83.38577709403607,-578.8910582063984,-608.2578843922465,-129.6802177574238,57.964825347744345,-31.729476330328698,8.64400600116694,71.72445883109917,24.27991444461219,15.624198408304505,50.429358046595624,33.07865055282668,6.1626418907725755,9.56081382122817,14.201400737151612,11.694775867448984,9.18062806258051,9.235942597224039,9.280104903415676,3.5243584448730063,2.7181466383352717,11.640924382431836,16.106746726677976,18.959817811584056,22.64515135566384,11.951159468749278,1.7563101328211284,14.336828695810695,24.94577910518713,19.173321047270683,21.74669254347525,25.211780608839398,2.158044208566526,-28.418665798703334,-35.48577924213193,-26.42466536975094,-26.06725390183138,-41.88045663598703,-53.89711045235911,-43.541348021828014,-22.531342208758705,-7.374235846706444,0.012562726777236577,-0.9461774423590974,-3.1560990879112243,2.870307712643868,8.921504320962761,8.371070127823273,10.575627038386255,17.02908683295427,10.7425705160489,-17.149407737879585,-37.253927337506624,-17.841934945521018,12.073106927811288,10.260419634878009,-5.576795216737139,-12.802609873167441,-26.54384024133306,-39.76428809220712,-28.142706588593704,-11.993163739797987,-13.051324068732175,-3.474130262361186,14.11558041733153,-10.183675107502033,-47.632696310226166,-33.63289836543597,-11.10785686208965,-16.924160821561003,-2.0583175569702448,53.20054601933745,209.16901036462735,442.47460651555065,328.46388307587563,-304.86124173458086,-709.219734532196,-381.5393136895377,27.9345260890671,14.688370782161627,-35.028071036854506,78.36606470379279,95.0966084458504,19.625929044111977,11.849419481251878,30.266267999343857,31.64058968127862,33.407431097692935,15.704798757128234,-3.673965676510324,4.427960891364297,11.465725958645873,7.65913402444971,13.95488357512796,22.942704902989774,18.472227064152683,6.558964330435876,4.139865674953635,15.38148307431009,24.694697750461373,22.813052799985634,15.810923716422028,8.746066754799374,8.78449602068372,18.783587055009427,21.800579963954906,3.830316705729306,-22.331107917903402,-33.41069116759349,-27.073798055523895,-25.462414296429596,-35.47573433186896,-36.6596184442109,-26.98203407519376,-23.981611109623582,-25.530465849780967,-25.282330206605426,-25.03082755610386,-14.361996247560562,3.2749539941488717,3.5385306327908044,-5.492940576156606,-1.6871370269729233,2.502496434867739,2.3256379480345846,10.526709984052143,9.853983170776026,-3.7640284436300213,-0.8350888166160999,5.008316491369281,-7.19894298173247,-3.693655900344975,10.709573690759953,-5.860360655001259,-21.49937574247333,-9.890310016441198,-15.404046915774876,-28.493401492454357,-6.0926488433436266,12.389682206036014,-6.747582736678925,-20.486557690894394,-15.691995042385528,-31.677098497365034,-52.110967323465346,-22.74714278705573,25.118281736972065,87.32568958807366,291.3815743220771,475.4277133654415,151.62676562070067,-510.02190887505935,-656.062386720759,-213.84196650514596,48.69416433070262,-19.93416803492594,0.979115245817372,90.98644466544658,58.53860965396474,26.689956586778614,53.83132642135772,41.320461150446036,18.98930645626446,29.97894128604534,22.286780216011838,2.6502142775202144,7.807406053005721,10.683155754579099,5.143967200117611,17.1629305347834,25.073983023369685,9.679408074933466,3.0868109110548616,13.588849433035492,12.642030473129402,3.1677754654023156,5.193193136777975,12.689967954777337,16.000638168031475,15.80912435182573,8.938070409585606,-5.425682421301509,-19.152437142383874,-24.65037093183843,-24.78394361536902,-30.021192996593225,-38.63910869381572,-38.72647087353093,-33.88538789161694,-31.307790751140146,-23.235256978947124,-12.007535800211688,-9.435260470768185,-7.3610873919878905,1.0015816998059197,2.74103670457416,-1.2470564036039296,1.6791859997454068,5.563309379187528,4.954448626232939,6.548216867251488,5.955577533696246,1.9927866641740817,7.923769501752411,15.034839365124528,4.216586815429086,-7.643452496881594,-2.097147370705855,0.7836785793933547,-9.384760995884303,-15.787514705523867,-21.862205512247492,-32.70903037523546,-26.036162317230264,-9.383088621781978,-13.187764562071624,-19.514838601490254,-14.974154869883101,-26.342910599715292,-38.659431486245886,-30.386999183115186,-27.69769668282422,-26.698794362144234,-3.430650915858749,99.3227701544645,359.06630224420866,501.8242311071643,82.88631888375878,-540.6773985254308,-557.6895330215954,-127.87792393750209,33.19138644907353,-27.814057426124243,24.711868943270645,64.71054373161803,19.777903050418093,30.25851995551753,50.136264515776745,25.28720145890728,32.65136717347914,44.18600954341784,14.829512499950821,3.4555088930835898,11.407134875874455,2.5288175184082577,1.8296528088082555,6.11207593526051,-10.922342493623754,-19.633566694240386,-2.1255992129933543,11.310174381541419,8.462342540976437,-0.20693917955251884,-9.724787952201822,-13.615303264006391,-7.717810229411245,3.1342038282835056,12.978894113223253,14.725337243266827,4.105132212614154,-10.677382309170282,-17.76561263948611,-18.438712933076886,-23.160293310658226,-29.661652920202542,-26.105400071215197,-19.16871806215553,-19.045447177783558,-12.398441481541603,1.1074547490644164,0.47524915349212904,-3.7820233923745494,6.626642959845414,13.718248756080776,12.087504483073902,14.028573911034469,6.4249330715123225,-4.779175394599554,4.965205199943613,7.187277884310823,-17.746996491887508,-25.408939783334368,-11.294877172063643,-13.476637992686992,-15.126226468718027,-1.5481256116313666,-4.796374888147458,-16.074054336196824,-11.829726405725646,-19.203998016594394,-31.923986137012285,-10.070440569940484,12.586668274451085,-5.0483072498690245,-26.941203294756022,-29.92746135957485,-33.11319059741861,-38.56148003949971,-39.77842972916523,-29.90756558563402,-4.890025668700446,71.4465198239836,294.8067190798453,512.9049351493477,263.0206588980214,-375.631539450518,-604.5290667477637,-235.23145993917512,33.59790823356455,-23.112050071502132,-15.50326357827689,66.48330884156265,25.165709519756803,-16.409523608824735,19.681494998412,21.603039411001934,2.2326199428012083,12.763410211978591,9.572980461125708,-1.6372756560345056,7.867044239359597,8.446452457799099,3.127000160515857,14.390732285041143,13.194163562914676,-2.955071659453653,3.2237233871891213,13.74121150598323,-1.154671799571465,-9.542075629080804,2.4042559478731325,0.4857527160027866,-8.461102922123827,5.726410852460553,20.960000042519127,11.784214138161197,-0.8866011292626963,-1.8083975326310435,-4.759920904072333,-16.05251762357667,-26.782183129653845,-30.91148941313209,-28.87232788240698,-23.329478565471256,-18.026981608575944,-13.601313416689726,-6.024926962362308,1.8377365877777656,1.953358250296084,0.9354547858665914,6.76248450746633,7.167181518001584,-0.7774703663196725,-0.17869232488798836,4.613403757831755,0.2847545489739254,1.093410752057408,8.674131581874805,-1.6633467985367645,-19.26514403765973,-15.078519379144574,-2.901251316679991,-0.5534079106831307,0.7527411841665064,-5.50630307389687,-26.335975334675805,-40.3677919136867,-36.61834643227341,-23.381322140491157,-6.335825578670487,6.266356497477138,9.32065745249137,-1.95161862376915,-28.050887415535524,-37.737050447929434,-23.768984815964004,-26.120040281390825,-33.252867396432144,-6.166274378909947,92.93973290682324,331.26187637236575,498.9269682794657,152.21404235823536,-481.1726100178896,-591.3162097444774,-180.9228890987523,26.748189273107403,-40.36930465296663,0.28983218919102427,75.64595481296874,29.12507487842658,4.083724186541017,34.8076085994786,26.412464742127902,14.772076090552508,27.91433970983354,20.111406198605344,6.789547917265137,11.584025050004163,9.83706362690719,5.872472179115078,15.441518165941009,17.259882614969353,6.6081042439256015,5.026874802719463,6.054398465861961,-4.757109058480278,-12.9048723626654,-9.989859692315125,-9.796034435501264,-11.930437965870645,-1.8478424708201535,15.604103074802822,19.9372722684736,7.7891051801721085,-3.8810644274963657,-7.676701417046,-11.053742842129616,-14.356287785847632,-15.417731679489599,-17.235343870532375,-12.70283734033285,-1.1353485819727922,-3.8048398335200844,-18.93046116698633,-17.191916409311524,-2.3886913871495263,1.3365922342905385,0.686833096780691,4.55996853431166,1.7082784504875699,-4.2605203107664575,-1.759554877624753,0.9042721578631436,-3.5607523042044793,-7.882382756587964,-6.974619123984212,-2.7026199122576138,-2.1961514658236574,-7.842058157207026,-4.220358789044,12.579481507608039,13.990756909719149,-8.727308754389757,-24.535584418516663,-23.537375468656887,-22.239165788494134,-15.792621083637465,1.6632525312722262,9.640073170083284,-4.902133838867002,-28.19481212407607,-38.19739703265637,-34.749953684787734,-38.56612848814993,-42.16271806619696,-27.34065665784901,27.4076597734487,219.87527908625313,477.9033767890698,345.5535396879987,-278.2375985618426,-650.3079246536221,-350.3547963895925,9.700624207218466,5.8648214047340765,-20.887037568297988,69.23722832626696,57.716905786136,-1.3190689092647476,25.115158529920286,41.63842655262867,13.667674191315829,13.550571858201831,20.269591849457207,5.931644800170686,3.022226485402916,11.295830469909157,12.87311482793707,12.64491390122476,10.320756159773184,6.1954715034971795,6.090108815514659,3.153529786913825,-4.825570801767842,-7.7211305950359925,-6.442918861150487,-8.472979350723227,-9.514936199664598,-1.0986111877659646,12.790928761638265,17.5645424342748,12.118912569651865,11.385824448307623,10.763036910937016,-6.451140243943065,-24.00033874025489,-20.866839769025496,-14.706770052631262,-18.903922341151173,-19.412774378720545,-16.13057267607077,-17.07276698931703,-15.329178962397323,-11.29713094092223,-7.768446942720313,3.4263314507984646,11.2646851163402,-0.13693210835721992,-11.031826071252876,-6.226378284777793,-3.372827775689178,-4.927686460625223,0.28483193458058764,0.4845232506218764,-8.563738471156693,-9.377027504364278,-3.9309890707499893,-6.43713783924618,-11.556191446968146,-11.534158412508766,-11.4607204325661,-15.49276693363947,-20.344196357452354,-18.71023487225881,-5.806770794610825,10.178997895800649,6.361393505016622,-23.703939218514144,-42.77968962762242,-31.08463681993363,-26.379237379136715,-33.49184374877436,-20.13721313827201,32.692013744219764,211.91552624142494,464.76938189683216,349.2578819873635,-261.7351680534629,-645.7715065454172,-362.3574717908955,2.4271986848473324,12.181920978677816,-20.34225473183324,58.91066452213876,62.531934044997726,21.156495699740958,35.07934917393509,37.23222189866781,17.638623664559784,22.6992211621397,22.664831064221914,9.32534892646605,9.674653203253229,9.230046575604586,2.33302594003929,8.939904872497975,19.92435650574575,17.695782201481318,9.988321559655528,5.528671147863895,0.7929337691384983,-4.055707987642341,-5.645262893338967,-8.626673904172296,-14.378302159407724,-11.665485015462284,2.335942740860321,14.647453272038579,17.660251815499123,13.068103015129253,4.452117545738851,-2.6292701037495547,-8.844397975577541,-18.034655801084135,-22.748745500700842,-17.343083583463553,-9.068182438073581,-3.5019418695267994,-4.149697057002465,-11.652966894772433,-13.268036394914956,-4.985283345148755,-1.169574677065361,-1.8225310805150752,0.7319137306030346,-3.021837152120213,-12.716597841782303,-13.15626968535558,-7.246882029798126,-2.719969118694003,2.7367379547692074,2.084728209346814,-5.269136222901965,-4.11231699527589,0.2523527574196027,-6.407229567562247,-15.658642335944865,-22.989156535974228,-30.253444505118985,-23.326626404477608,-4.62166891890215,0.19651253920477174,-12.478911621731196,-25.530153039790193,-31.3505374961828,-35.884417675059964,-38.20995113611423,-26.295466763599336,-5.475386574232239,73.170542018521,310.28104983575844,493.73924109937525,171.3886607441857,-457.804755507881,-604.5589855674967,-208.2688871711249,43.949273852355404,-2.2346994027168705,4.638787109467891,68.29964058196836,45.19616892881629,25.646325621328486,46.39970235380084,33.92551965694471,14.57986085045048,21.848436330753593,20.34664630408564,8.138761169376782,4.8057424954910966,3.583004250921297,3.0950800182608225,7.151843760068635,9.549156665251122,9.438235003919232,8.724436700682798,4.526163414904344,-0.8513645009110731,-2.9824495199349377,-4.989290515623329,-9.765362101071554,-10.723561756364253,0.8371366330979719,18.25812959266666,19.153549297835404,-0.7334206505685579,-14.196358821886903,-11.064986773477504,-14.79558546786318,-26.761015932495788,-25.104206157713357,-17.178736756731222,-17.21259015658529,-13.203361261241433,-3.069081407859601,2.922913802221399,8.983844106713986,10.273699483695417,-2.2224343639772837,-10.151538911471883,-5.7432393621426705,-8.520296363779034,-14.485139938651866,-8.280635617888871,-3.615069026865081,-8.50822473715484,-7.638843684892528,-1.3810961624960534,-2.8359928013339157,-7.817762428417961,-8.647140557502361,-13.006862250901374,-23.444144601868892,-24.150356657683197,-8.856827374156488,7.497511188207257,12.046657465593086,-1.9953191299191175,-27.960464957019255,-38.09972303127746,-32.607756186939454,-33.607446730242266,-26.157028125234245,-4.528470686066264,65.00492277777032,285.6824088673778,472.0626195455628,170.9902104594858,-443.8460565713124,-594.5943088372246,-209.31443351377874,42.173489394492776,2.1837595368943035,6.209791097576591,64.79847563541037,46.02186800410544,25.273980254089054,34.35855011427948,21.824180422427034,13.42338883241432,21.98043485683828,19.07063748688318,14.4223780999131,14.8855203639443,12.358338345651717,14.839045592007537,13.322302157929093,-1.6320400510018094,-8.27399861240901,-4.175725300640881,-8.587940983870993,-13.590813661310865,-9.855532021844848,-8.708269554342689,-6.311418853656047,6.383028299720456,14.2452881336928,10.310957899539893,10.614834095798784,14.537465875411755,7.7980404670812415,-2.7625241193199432,-8.697663834973744,-20.321669801782896,-34.97469120409123,-35.53823878999887,-26.73809881654286,-22.424382172566055,-18.090986283292853,-10.617556177324046,-7.749557233426945,-7.946509541996885,-5.3637624536339725,-1.8826743526969665,1.789020100704235,3.9852907390130916,-0.10881221841772692,-4.136957237797342,-1.6916385364989885,-1.8086158780082968,-4.954230903790112,-0.701313938735046,3.749730402669403,-1.350903459502252,-11.130512887803905,-24.343284169369973,-31.98130863088579,-15.970804057991478,9.207677205929501,14.461052588381381,1.60192219902018,-14.201184763471737,-22.91408473733925,-23.9796636362412,-26.690662322748306,-26.732707261916577,-23.438927258032244,16.94032988179285,210.88405952668998,450.14271484358596,281.57379636934667,-310.86286800620354,-609.8853480336954,-313.2412111915421,6.969331208506242,18.790967940627066,2.956773815278808,65.71922418997335,59.624020481750186,22.664542692324424,35.54770237281223,42.34993228723066,22.767253705457417,11.418989731743437,3.6770761878432663,-5.735300359134137,-5.87178012221678,0.03447053088159546,5.642044866677377,8.801235259107498,8.520793649875142,6.646650552645555,1.9638444664214183,-4.586817154942688,-7.854986835823427,-10.58096489426525,-14.712141932030745,-12.129184693545898,-0.8967442724137591,11.992047586082256,22.209001817184326,26.097347162749905,23.04635547972361,17.0405576693812,3.0100406851404617,-21.349394842589952,-35.28853338556697,-27.880271500130846,-19.85805932930558,-20.05425835827274,-16.49862147735137,-14.19470125346984,-18.92591000444594,-16.532424063934887,-7.691284390668832,-5.7987453978504995,-4.233629467963691,0.7766389701155649,-1.9725988245796522,-6.892583752878952,-3.9803321012884965,-2.2345006982583797,-4.174440198268872,-3.3987425016321815,-5.459886397512232,-10.87201655483259,-13.07311061793051,-18.42684830461551,-23.624922040190004,-11.13238115707968,9.358195031019013,13.21497568713272,0.07077966137383207,-17.10339695070455,-25.573019967529273,-22.819109894706575,-22.189644033218666,-22.380014915241667,-21.157956995363868,-2.374239070908942,147.38448894570752,408.3683463248075,372.55672413742604,-150.0006140448446,-569.8760538003912,-394.83322919812645,-34.15240646475576,37.6361755023571,-8.432486214157109,30.69585675944912,45.29040999755166,14.444786751551039,21.40174291995014,31.47283199060581,14.280153980369597,9.69396652253073,12.831486591910668,3.1846409575815304,-0.4814981039204218,7.268693535364767,11.965840927670826,12.523299617551142,10.609391027665989,4.7699433715244455,0.38971292690532877,0.2739143370592412,-0.5083036443582825,-2.4663050306531353,-3.129711374662926,-6.9920073513798044,-12.605129394092375,-5.399085184240557,13.958385928903086,24.632050159718933,21.61313115664514,13.568293848537035,-3.6945767803206913,-27.410458621501633,-37.605437160514086,-32.24041098080558,-26.585291758164892,-23.540435776386854,-20.689980989151007,-18.72645889923999,-13.016047092453652,-3.8849068617176634,0.9297312633028039,1.6719984124309963,1.450668047927909,0.038202879726169314,1.0904921543925923,4.055583886691183,2.571267108892913,0.3516762335306911,1.158737159783536,-4.372234002544573,-15.849605067487161,-20.204753997262642,-21.590151178620577,-28.123743545622663,-23.81748405293456,-1.3953982063838906,13.502715855876543,3.162615087820493,-17.359395910766118,-25.770851432527444,-21.781636493269403,-19.889042436210335,-17.380743028284492,-15.591102915815977,-8.833043820589836,115.0468265800483,379.09163480221196,410.3544123294469,-54.301143624689914,-516.9938573195258,-428.55352211108845,-85.57473467747018,23.393626797877257,-6.296343493003818,27.219240409383826,45.1286463903034,18.55380050447492,20.028376393387656,27.64680007169812,15.560773193432215,14.428822279256233,15.934934659999582,0.9507646392824185,-8.17669570601844,-1.4583908733788853,3.359853838093381,3.9345717450992703,8.707792801356137,9.209939277635938,-1.0318071223287415,-6.443982371909023,-0.9845159758653694,-0.5399846117953944,-5.0391709883840266,-1.8078949772944943,1.581924756722528,0.9876238560870427,11.95587371045838,29.43108879239268,30.206708444859768,15.75909524024398,-1.963768939295898,-24.73881046620716,-43.98604438723605,-42.63894363740127,-28.636304897316446,-20.651809978277598,-17.82097057292776,-13.64168811680818,-9.988243244116996,-6.228600024211339,-0.9564470912617047,1.242324449145654,-1.1384227881166478,-4.045433234055064,-5.271404274491985,-5.284832054537107,-5.8699324729224465,-6.56283235617483,-3.5888060348291653,-0.4707903925830106,-5.781373218087872,-16.910297582732976,-24.7285049767724,-24.36751141715255,-13.431598243513145,2.1767451449241397,8.142712933771927,-1.269798858373175,-16.5369631103134,-24.202641742006797,-22.88721233717486,-19.099385997289247,-18.39548179400493,-32.67001994559689,-8.85514791524757,182.17135635010476,424.74790976741997,295.8959319725252,-222.67764322298703,-512.7800230524024,-291.7458058057056,-11.625472689461724,24.615191344932313,7.146624561789412,40.74260077835873,39.691426250039704,20.00991088078591,21.97235440775115,16.23562876499355,7.146757027739664,9.670416366834377,5.9150375052492885,0.05774433812830182,1.7989869435253087,-0.6369252823706928,-2.7226500641927283,4.13888128168448,7.733764091300755,3.6874201980219654,-1.2098528785378697,-7.263735918410797,-12.766396470846,-12.96591306659786,-9.10969858512552,-3.089822166004665,5.4550676010574115,16.10332058462187,25.536480051685306,27.678715030736676,21.523204182558608,11.671573861387438,-1.035909598603693,-16.638278512327865,-28.77821073959627,-29.830895850701737,-21.261583043419854,-14.20381421373569,-13.628081207380088,-13.790531122162104,-14.96549161317626,-18.266367863281182,-14.108582378669986,-3.5040263802089164,0.5890637195484878,-1.0240948709851612,-3.885229745932909,-10.536646269032516,-13.579177820708905,-7.751523766462643,-3.7017826343723286,-5.661087799364534,-11.738779395092251,-23.728166898289768,-27.181018644162997,-8.13036979844638,11.553043862689886,8.995987952444391,-4.531721810748596,-15.077004859529438,-26.021338742580483,-39.05771458243834,-43.08371856714105,-36.31293296244876,-33.189449843828285,25.995433900714303,241.5871640938492,433.9243938540393,216.32824661420025,-300.9685621483163,-501.43905715217943,-236.57143253784326,9.375641490944906,13.732615403950552,-3.1366745293774976,38.00399919369643,37.815692183397914,15.986338589555658,22.809654908007705,23.95366217273667,10.4424951373443,9.98310971911134,13.774126688107609,9.885243046085707,10.894334374813083,13.689521433926444,7.012231863506239,1.7598625385668445,3.5631613409181075,0.0039904805280697175,-6.837628621696497,-7.53400452647961,-9.891551281707592,-16.592967388330734,-16.071602516144992,-6.844858434863175,7.728246148043112,26.91150835381833,36.2261212735355,25.988766278883062,13.090700200434373,5.493285256225958,-10.335691222038461,-29.108083839656977,-33.35470114800169,-29.65219964766461,-28.751046856026477,-24.209373348513022,-14.944700492220427,-8.056302516696697,-3.502281818007191,-3.022174767584879,-8.643316474447179,-9.38839768834734,-0.7813988087874204,3.812605326575322,2.078006924653643,3.83765292270712,2.4350608252825143,-9.686545289232187,-17.5280470241399,-13.745247247709548,-13.527562636612569,-18.320005969460503,-12.757234993380598,0.4612488907756962,3.0605372445136876,-12.219118918706776,-32.158026187268035,-36.3130007480086,-29.45334372944717,-29.772699263943323,-29.852197823465346,-31.196571968545086,-12.305690492168054,147.23405807488615,394.8177802404472,326.4446281899117,-165.66492851317616,-504.3231705323907,-323.1761420255409,-27.700790633373302,24.91331404425783,0.2239296930720407,32.68674412707256,36.013219902609194,12.43482178830656,16.784874461144877,22.880743827821718,18.004836169857086,18.6668697940755,16.35338462268102,11.102954281806609,12.344251179706756,11.183797991049591,6.07416907176027,7.134374270373813,10.690556736286231,8.263261353819823,2.4305573135002847,-1.162781499128205,-2.44084856576607,-3.962810502607825,-5.855830611753185,-6.609304060146442,-3.67320927140803,5.9118582213932465,16.38541287822516,16.139058692247406,6.577482423136811,-2.8905051208470844,-12.69060051763924,-23.8044607954629,-29.075121921602673,-26.189668956570177,-21.097367952189153,-18.884443628051592,-18.542019285137513,-14.62140743310241,-7.531341232572052,-2.421645276109862,3.6104968904005386,9.903453245730722,4.523670563636378,-8.216062458958032,-10.146373978771276,-3.202973186993912,2.04426977300475,6.702546707431664,7.232363438356792,-1.287669750503376,-12.95038417206538,-25.435004971090905,-32.674149737799326,-18.23846875103842,6.363365453018897,3.4933935773282734,-28.13142046732679,-48.1714328142335,-42.761354773616105,-38.50542573269355,-39.28959666800962,-33.100566691309574,-22.46198475825943,74.58804613165675,323.2892887309582,429.7274171404631,55.64357137304367,-447.3298485378786,-464.915930112475,-131.97418695572352,27.34170206022131,0.8198442864779381,18.849770292631234,45.24177136271545,22.428275768725726,20.64416546279937,33.869238741243066,18.38309690550081,6.070713876630518,15.37187097115029,17.884917584919997,8.438998323291685,4.133615130740028,7.9153687807681425,13.051766146251785,16.52215372681247,15.913215790658008,8.636362496428523,-0.9782750155111717,-7.42848952849922,-12.878959314784337,-16.556721015092002,-10.155832932181461,4.31749613038172,12.13686913622097,11.339637797467645,15.175578302955161,19.848013646996,9.383583558025101,-5.729679715032896,-10.153535481882063,-20.07620888584319,-39.56192096185769,-39.19783062324897,-17.366102211404908,-4.375963034995321,-4.917363144812427,-6.54334380934786,-10.58128687953217,-14.943073661044732,-10.139467296495196,3.0579441245666974,15.665873810922609,15.698734407085652,0.38591764246294247,-11.331908571159378,-9.412690147412679,-10.516309178728303,-18.654514651348933,-22.207527178334306,-26.418459676715507,-32.51725055358693,-24.682052579464266,-5.602049970336662,4.08566239639009,-6.688252639536952,-28.770075518754126,-36.86080301858031,-29.018098725856717,-27.76250383903158,-29.668561575179147,-27.095734034899824,23.112958860265792,232.08404830546033,461.41773134250275,270.6723758474284,-301.46006698715314,-563.5000622811572,-281.4456505415975,4.545096994767825,15.175905101895452,-0.9411987668264317,46.07417107265337,41.87679420522981,16.859512272370488,26.511731110187934,27.969265044060716,15.054636345394712,15.467973623435991,15.658364108673812,7.488623141709368,6.992478663089722,12.956887261426404,13.170226185404974,9.92292771517009,11.952194026595615,15.505079960774635,9.76116143653806,-0.7406455905108752,-4.042138297614427,-4.838801220982338,-8.829650176697658,-8.451218468397522,-2.268340777999222,10.083276358893796,30.53287994397075,35.35807788068429,10.173684778853701,-10.435030262333669,-10.058236634308152,-15.290928018894522,-26.790221528711967,-31.089568702628902,-36.30027588451602,-34.21671844673889,-17.66591774590971,-10.305072445396442,-9.530626478600425,3.9254925823588653,7.590975627754354,-6.797617753413839,-6.386977868078121,4.070127018128996,-2.0686308443839234,-5.670852585422811,7.598155478451251,8.76119091420898,-9.451224466711114,-20.55436335176849,-16.893791033151622,-8.034241110242887,-3.0718590630107556,-10.068651352106661,-17.51566667032283,-15.185237128421402,-20.65677445047288,-29.53010401248412,-22.795099262634757,-21.848631751022303,-32.76652219535727,-35.86572727849328,-9.01526823646833,154.22945694685805,417.2175726165117,348.91581525781584,-198.64902593917287,-574.1241299390736,-349.1416482352038,-14.494622143523536,22.210367603946562,-7.691270407758942,41.02219742256395,38.99914589731008,8.173053872208468,28.53518307327858,44.02964650839037,22.361662865878984,4.599586386245843,3.7214446288831367,4.793815949807014,3.974549330429256,10.410974137432813,19.310724411243484,11.67326129533048,-0.1641135760290897,7.027297161387273,17.61699776761446,15.282147815859423,8.883201141559665,2.353568999715882,-2.181850238362926,-0.2792711929169318,4.693923931837932,12.205345902761483,17.019366626703444,9.20956959231692,0.12649310029066285,0.3150008490931837,-2.067502517272965,-10.264256919277917,-21.538029087730834,-38.268387866187425,-41.62799387642514,-21.736244488740557,-10.112694038831,-14.878353723601611,-9.031181958201742,-2.0358532250054537,-11.78226460686545,-16.09143778586096,-11.416294851213738,-15.07863402626647,-9.125362383987259,9.96935632806166,10.275047020235458,0.7555269412304497,3.956577879489574,-3.251568833848573,-25.965984438783895,-33.92205655558196,-27.466527920788494,-21.10658754755125,-8.159568558352477,5.195836666135715,-3.9588889459854855,-26.758450175203613,-30.78499862616256,-23.56098870163537,-26.094272259910333,-18.53338664168249,-2.6263423052281922,54.79630079651069,272.1737562760041,452.9069919857246,127.14955951293965,-477.0372849801508,-554.7299616165936,-143.72493793009636,44.008355076346355,-19.313297772222317,26.7436614097304,80.21637899486521,26.85796618417654,14.64988072975802,31.488762347399344,8.241072080127026,6.739375529724592,9.535202230242817,-12.04680466817862,4.586255028281361,26.235023694569687,-2.1784428301768406,-9.904673165529225,20.869327057375592,23.107011279375193,9.680226673111381,12.275814601097377,7.925604773800682,3.5570827447996587,14.715872761618792,14.862007378734015,6.426255078277643,19.82092608534049,38.16955148842332,28.6900469666082,-0.10408546190585621,-21.15199715037053,-19.39161672543896,-0.7471488965499447,5.33233323927945,-20.04301245962381,-47.36030222465642,-39.93690120166268,-19.135042674313397,-24.1727918046142,-40.151904077006556,-37.60001331011366,-24.491177447391536,-13.019293782895403,-3.665776508823873,1.1435996262325272,5.190147701075038,5.66521802064041,-3.78311733732043,-4.368001389794337,9.118792421838215,10.653806330336757,3.922668518478819,1.547710411001665,-16.142822774498132,-34.143835876228906,-16.02314374000628,6.577779676070162,2.347630098771562,0.15375633226761565,-3.8621494872013713,-26.896912285175105,-33.688194319274906,-31.858967410198936,-47.141177699134225,-31.40154655632196,13.879687504610985,102.59767318982162,335.92441771685213,445.64848202274874,-1.8211635522151255,-575.1486085052937,-501.24830980909934,-80.61890408828495,7.729128805755607,-55.42425555375272,34.178154645229455,75.6978903707707,22.457462657018123,25.47452332191548,25.660988754732735,-0.7181364667786467,27.505071352448585,45.25029506247206,6.292208787439023,-5.615663464260803,9.552847498159029,-0.6027873867199571,-3.3232548402729574,17.144215333073554,17.784717705413335,3.591363678744024,12.796933079026951,29.701734056398507,17.91079370132458,-2.922858398985369,6.1526012030643304,27.590323890337835,29.103651758203405,26.237032883802346,28.23815305889613,10.31466513564659,-18.408219717514797,-25.250268066655643,-20.644391600760756,-27.412169295250592,-37.47671896359195,-42.12355935914421,-42.79261704373795,-34.47856785319624,-22.588867605479404,-22.209000906709086,-24.783016745388146,-15.411620447983188,-5.668295666687319,-0.8655806964851038,8.95324143545729,9.1351996121349,-2.9471869995670783,5.91457048654982,18.6006307914937,-7.328753908805112,-25.98276360408285,4.545029221675906,21.70044630450003,0.19398669836822258,-3.167638917992006,6.82467815812975,-6.448905635109286,-14.573146139636322,-6.752288836082936,-16.419227124558784,-31.947044827047975,-23.35393218704361,-8.26731558412145,-17.794222278524394,-41.643845632389485,-39.980462560763726,-21.880735706988396,-31.688424131588018,-46.100121204970556,-18.722292541135744,98.92958525828267,360.6776049383948,498.30664974906347,80.29691488503212,-548.0002756266028,-569.4096502670026,-126.60038832258748,36.019757963636394,-47.93495288458993,7.544663030278173,77.45146214502367,29.021170335452293,16.392541804274053,43.048161299694414,24.82024434624593,12.531859035886018,20.664724592384193,14.097480542711004,10.2294851542933,3.632023934475919,-9.106356266670698,9.792223698849257,33.072902130328416,21.871741960456788,19.869472745767116,28.392624547235393,5.457848568579943,-3.699116365161375,23.287732414753606,21.908196347614187,5.539254853137825,24.076586645093933,34.037372827390755,16.807126909917187,10.81134459514012,0.4479335232503807,-23.999104016562505,-35.50145659739863,-46.06263479495057,-53.02194262219017,-36.13239908107258,-31.577540435363805,-42.7827400910102,-28.783489117810387,-17.620558839166172,-25.457556375766895,-9.324385831365753,13.115583263171647,10.469482687239372,6.15239941216004,1.7134219970599744,4.245921946539127,32.4256780585439,34.37151135015223,-4.3019583985655885,-13.766631208912553,-4.245715003677672,-15.786757060323605,-10.440593534868697,-0.6885940037244005,-26.23482994400912,-30.675998072682003,1.7056001799519862,2.329343152392859,-19.475534593371233,-14.456047005379132,4.433675792650726,12.937262473638398,-1.2335329960370487,-27.400316727193264,-25.29309192543012,-8.141386692632661,-16.115132764029003,-22.84647259709361,-12.280304825274856,-10.667843487452224,-7.433032373467277,-4.691654198252273,-26.181420478665995,-30.845244390089903,-9.73950061240936,-29.053014765970996,-55.745965834715086,-17.549286477539894,60.21320534106739,228.00497556971152,471.08645426756425,372.26982244900773,-237.75748494608075,-657.6822810371051,-396.4846950933238,-19.401503459206463,-2.309121295601969,-30.76224133164682,69.58306530653525,76.28064460277902,10.756793515317861,22.75512530431069,48.94360336201197,33.20710884645948,15.113517280960895,0.818471401805045,-0.49321811043651653,18.551746000929658,22.732238549299822,5.711351936008509,-4.409201649585305,-4.378915707431925,-4.424152810806939,0.9436962092368582,17.955036019930926,26.77262877656612,16.13046797000002,15.276447078742509,24.85606616890835,18.000441014497195,19.665149692795964,37.13718575083293,26.271848407729642,1.4562582589500472,-11.221697244292736,-38.01752045659765,-55.0266389416089,-36.4751722057563,-40.07192813387734,-64.0452888305466,-43.374027894997894,-8.763246528015479,-11.221641031868451,-19.624247455789842,-13.9807157021874,-10.279167851768024,-4.440248859834426,4.800279071002237,7.707384412689391,12.367152959912271,19.454904664605863,7.791925422840833,-12.852620229406112,-3.375467999412515,20.827174517760227,11.30287845321972,-11.84756831471071,-8.99696122628367,-0.9154583517294874,-1.2474384475801923,0.8985044449308983,-12.127321603859908,-34.069086224061294,-26.44895909058035,-4.497399099842342,-1.6573411049986984,-4.604495074069639,-5.997264103543415,-15.740977687529494,-16.16649859141193,-0.053087536475029395,3.2173083801480367,-8.19165702307133,-6.217833110760038,-2.769114329280635,-16.645791013598505,-14.723718780909381,6.681404572914056,-4.081674915962804,-31.40265031954749,-20.927631993852188,-2.3653328879888154,-7.099544555864323,-5.077362164112065,-5.4509587312650005,-27.739590593558304,-39.6996493729702,-39.19793134820645,-38.15033167114264,-15.99012728204134,42.04478315644879,210.59761731378114,456.1435358519224,368.85013569731024,-205.31226181249326,-592.3316802984115,-343.84478441751986,-10.225436991976622,-11.994740020202713,-36.70197545290863,51.91315361106474,48.54725617593887,-2.550372372276347,15.210093136754177,24.835543154558415,8.173823892458461,15.113017662558914,16.498253063186155,3.71870248141858,3.116396296789133,3.5421672761798986,4.267842460195563,12.664048596259963,12.47533059577615,7.5925184168244915,9.575417487530597,11.542078483536356,21.94975308504509,36.13846796191531,20.730347837692328,-6.577140860928568,-2.5106487488717537,11.486349430669243,14.04136438232815,26.55123523708578,25.57376129940863,-14.575842109666036,-37.35486587003157,-20.271140605351256,-20.264844101213555,-35.079292931960936,-26.286114392180544,-24.696193709691475,-44.41858733461311,-41.72007168238911,-19.52364981702993,-10.030918956372215,-7.06180806233608,-7.154353917943137,-11.855788873549914,-3.0092798402469576,10.184810523900895,5.798411359326772,4.070868232216162,15.50423427296938,9.86724564668728,-10.479078372785636,-6.359574770783657,15.878637814062692,11.552019712602664,-14.176004863872576,-15.104528268853013,3.3206563560128366,-0.6150275050365632,-15.897271135833815,-8.229844830258234,7.359753550011507,3.2297242989496926,-12.767702427259433,-20.54529871008641,-12.904364091853395,0.019061661857749712,3.6776072877304564,1.928451973785668,-0.40132026890909245,-13.4630722766994,-27.221939986959125,-19.64221584392589,-5.40664798070628,-6.342160331880265,-11.825466448216538,-13.476254484454433,-15.016395695114216,-13.936740507861913,-18.462254260891754,-29.5766019502628,-21.978178130709267,-1.069912898402995,0.8123510985017837,-9.092612345123435,-15.975876960175277,-28.984967685310117,-39.456990882340826,-36.93491382601575,-33.73503497835551,-29.412761636165456,32.20358028479673,244.96959402875015,489.4419096648586,348.87032295589745,-211.49656445311268,-528.8168004629182,-287.67828019417374,-19.77787279611675,-33.95742917826936,-34.26069293722655,52.56294404110343,35.898789203115484,-16.551013449154766,4.778506167349381,14.005170588201318,-8.760692707522308,1.5278251491015329,18.146597037666144,5.8756125781695285,-4.635685372064538,0.732997466896073,7.312224884733721,10.515055440689695,10.226593462572767,8.479824684289825,9.866653535516797,11.206206472344405,11.204275444437247,14.436616442802148,15.98997060722755,12.659061118348665,13.73579202592731,15.336243605452918,7.553594061134893,5.004794053145767,13.92428298451559,11.270840391573898,-5.050834738069938,-15.631805445409661,-21.751040290469827,-26.00835599317184,-22.627043893476248,-22.65564321777207,-28.3836612984959,-24.09678056623766,-17.353033362266395,-20.46151654640843,-19.941845186512346,-13.155587959530923,-11.733024850269686,-8.761813958618252,-0.8018160914016104,-1.0038933383525173,-5.731792029918063,-1.8632339571145167,2.582685328229955,-2.621939965889391,-7.7498064549588275,-4.271675758474311,0.1418206474002659,-2.059317317279236,-8.265546844510123,-12.249474782812811,-10.40574389857195,-6.43821318722123,-6.902784165255829,-9.631737348847548,-8.55821084932655,-3.8466822210853824,0.6109071373673594,-0.7227313055219522,-7.034014441666734,-6.14091640990409,1.2576017366486703,-0.7098170295341859,-6.977135243724026,-3.775909906657242,-2.6369718394794344,-9.78329133777313,-8.200339892728532,2.8857320543800995,8.879063013478214,6.048678112685309,-9.911991504593036,-34.60795981385668,-41.38157339538162,-22.263592381246156,2.637152497315256,14.887575939745966,-5.300151849890391,-47.28655704380572,-60.03430242186278,-48.96839487715797,-53.130304681711074,-43.88871211057594,-0.08216820084720666,109.61150623444625,353.13111897536953,486.4054863437567,118.57037077090382,-426.59604641282766,-451.64318620554207,-107.89575147510241,5.728482083107348,-51.93225853349465,3.3089704767462607,52.51400810715275,15.38743409441056,11.608143862741672,30.085387392989574,17.785908251927967,8.548905960925598,0.8875229583543294,-11.82364340796357,-4.491634323775677,1.6693117755861007,-11.97183027056581,-15.210999191001187,-0.9583619232370322,10.60646823458136,13.992469162894034,10.10449823962534,5.399515597666771,9.320789272324813,13.097660132604435,5.4561206696014155,-2.496321866217917,2.480171642859461,11.987376702285966,14.141334409545655,12.42158553181124,7.561174195305185,-5.265128195618022,-14.715100518991818,-14.97177239908362,-21.63323621782871,-30.162274238658277,-25.45336892548489,-24.480818910272752,-32.24350407289862,-22.49690724131657,-3.8425199994404373,-4.574602349010441,-11.681587942325251,-7.35000565579244,-1.3839177569497778,1.5460428411119693,3.7607007858863515,2.642326715753968,0.9937395614161737,0.16302585170945605,-2.5164045782620477,-3.8388240368781013,-4.321431470640691,-6.4593188500271275,-4.902926651769669,-2.7765045142787024,-7.769570519130189,-9.376945140379123,-0.3391216072521708,4.015528347387029,-2.5398891265157513,-6.652979925024191,-6.161695171020176,-6.901308425127452,0.7423528089761415,17.47564150573483,17.92665790564456,-1.6080127285701913,-11.209545210110942,-5.8527360666444626,-3.857894557501904,1.048375449389189,11.590556249207902,3.2178279246616555,-19.614665325331604,-23.17274254516644,-12.937583577673315,-19.021874301822482,-34.54975066929742,-34.860374410118254,-23.152420081383756,-14.688331506702408,-12.030948607789886,-18.400291511073974,-33.99734353053162,-42.12913789485363,-42.73638227857897,-49.086009771884385,-43.67723521476673,-14.889595789385794,72.98638863148012,307.2858570056735,506.281279932261,236.45457413549212,-355.510812990978,-532.2587212044089,-201.27154546052984,13.473541394862114,-32.07275632244826,-15.23847857202362,50.97854662402162,25.379277189198337,2.7320428829628804,22.01322520467832,12.750853606132416,0.3500532217422263,11.16855869261976,8.293080652508745,-1.7942259406251129,3.2091451507202606,7.64312251686191,6.470130798355846,9.810747117557293,12.250433643104428,9.538210015398626,8.580875294856089,10.215233309947026,10.473456588532994,11.06251264524916,12.007154284603805,8.283835997174798,3.1809823069194456,6.940766145253458,17.27172223955608,19.95725277036635,9.908243040842336,-4.5069017904174355,-15.81179712204589,-22.340449595992787,-22.360183665898838,-16.62304334812475,-14.406695574924159,-22.47986530823101,-31.199973603208413,-29.413843797899645,-22.302023105424748,-15.228262651705604,-5.541178243901966,0.35532580964939875,-1.2399841726384935,0.4205428129855555,2.125476620321235,-5.769557803809576,-8.567328458190056,-0.4626564567769691,-0.7237067873227332,-8.108120842787901,-8.671906689421377,-8.681793258366946,-9.461618166152675,-4.23936243127052,-1.8078634698704654,-4.589544699637786,-3.3071832445846656,-2.172745328791887,-3.71886447601379,-1.6249014056285187,-3.7097397314239906,-14.433200100096352,-18.573117318987123,-13.112358877270864,-11.084208909898564,-11.979181875108761,-7.671782885394991,-1.1084481779740898,1.373965207813086,-1.409853372224159,-7.2876412694174775,-12.074484611081996,-14.924848582842735,-19.649608976212424,-24.904971341364114,-24.170447983669835,-14.437684433346167,0.17319792054723404,2.1430889031472127,-19.153178457352695,-37.08079684203868,-36.17949175660498,-41.71763743450245,-45.506591918518524,-21.240448122441418,45.98669368865042,240.198335003768,486.42681592312454,354.0890533156985,-235.20533660164128,-584.8657198068073,-322.45443704288056,-2.6312097125391674,0.2588913307336256,-26.543947468655865,42.265022325803265,42.54633286956298,8.253269180982763,25.204273075268585,30.955966600707434,13.890677521935196,14.264409073042904,12.228573163421178,3.8045702617369517,8.185980268531175,10.322621244454192,5.614896040168577,9.498494687943406,16.561372699493894,16.95127688049256,11.599282761682982,3.810447001963543,1.8997564544057206,5.090874147448883,1.8693238991315098,-2.864476927174671,0.5968195402834625,6.337918028084607,12.121713367603878,15.487941488271279,3.966743584353363,-12.610009387416932,-13.404221041870512,-9.262635313370781,-13.009637679776056,-16.619252635006795,-24.7354472504948,-38.81813861251152,-37.38648339069992,-21.477591282888216,-10.995407987436396,-2.777184867044994,3.6379033672897805,-2.159515672161344,-5.773008338334632,3.440021162502145,7.409908458521421,4.01367565971028,6.107047706824551,5.238951041400352,-4.189551327876787,-8.847708048268304,-6.1107556092673185,-4.616487827717911,-7.32615231449215,-14.124782237461195,-20.047153883800675,-17.816051894502664,-11.841226337861267,-10.895097222930838,-12.036532964070865,-9.424567554416528,-7.494906813524853,-9.917507283634773,-8.696662329147848,-1.9761141589282918,-1.9171910798704008,-7.263145580125894,-4.318898122774371,0.0030590659199578596,-5.926262517382979,-11.824617170787052,-14.517023533598763,-22.679107899210454,-25.658219137666784,-15.53482994497099,-4.503596617433432,3.225046244616399,-0.01828894283405802,-21.4084418962382,-31.69913267342276,-24.116778571827254,-33.853098298740406,-44.02893772804819,-12.253735707343807,102.30093984892063,347.077968932487,496.01920778281163,144.50254614739248,-458.8070234358206,-559.2273461507905,-175.12326684168045,28.082759870806832,-19.86839255895843,12.723202779587524,60.9415499884528,8.453542752927099,-5.667631927059196,29.870260311347597,18.571047206524497,4.147449144209318,18.15882530724329,12.95030575807738,-0.6994894359197277,5.4480635213234585,13.630791369181086,14.7106284974752,13.183330849176766,7.526070773637081,4.420364928485338,6.8494743682276615,5.991951631573874,2.2098485072013343,1.4942211251893154,-0.710850172481365,-7.527297687613152,-10.299554349505543,-4.066423204078777,5.06155769480284,11.150036850183573,10.936548347264234,2.846159747523375,-7.441911375621409,-13.362598954921971,-15.984763790825925,-17.669345226954857,-19.32115540834574,-21.53394876061349,-19.93303034274396,-11.983220163102681,-4.915273444533264,-2.508154516916445,0.23398800914585838,2.840436046998329,2.904246178884957,6.261025339451914,11.385430536114477,7.407464555631237,-0.9883835776971033,-2.3679264922008603,-2.597577660236335,-5.769897978759545,-3.720541331494138,-0.33312495660289443,-3.3499726230646605,-5.306097623663813,-4.47412070740069,-7.325482004547663,-6.093068252250752,2.3107431222380814,1.6103675436749771,-8.970569029439883,-12.242366089512242,-10.991928214747618,-17.055125838369364,-22.579478204250325,-21.735217829788304,-24.51591329899453,-30.732356802030502,-29.19326215732243,-20.317776007874606,-9.831618076750608,1.1407865184770198,1.8971826528034903,-15.565116455884283,-29.590843953879073,-29.027660059811392,-37.74164507193265,-47.796615625121966,-29.146564425332283,35.82561871332162,224.54325872752966,479.60496094875833,385.9469015143409,-195.1223608770967,-606.7225173330188,-386.9275558468522,-29.325201640402273,13.78963130678398,-21.502430488037625,35.69614413414104,41.42456480042323,9.115216935031468,24.75827072381373,31.52898151661692,13.529578458890839,11.946413514342765,9.567390253993882,2.010748168667078,7.800866799695795,11.871934054979231,9.809143639856968,12.40214520078695,11.308834328667732,7.366582251163132,10.644119090791882,13.496969136847158,9.69941458733842,3.627876171041413,-3.2187318373208402,-7.822022637098002,-6.377410610841816,-0.9952516667978373,4.869052751078778,6.913630255378051,3.080477774843612,-0.8198978045882006,-2.355336447063788,-6.792801809267191,-14.029008179452187,-19.86443001390013,-23.090426513002324,-20.90245931650036,-11.78844186043197,-0.7733604892598436,5.428980859819912,0.8656098061156392,-12.488639890237845,-19.5968816506689,-13.879291847588537,-7.1946891904224355,-5.2323386674003185,-3.355148112314275,-2.835563710441706,-4.080597135013132,-2.094416031262617,2.4102641208421636,5.336524173202516,5.274844662636879,3.934139637070661,6.420876806193833,9.80713543339055,4.256552327975665,-4.454606054816548,-5.246059526975657,-3.8876830199339967,-3.642266680976533,-0.6932875703437382,-6.210639617190445,-25.58859523889379,-39.98768293150192,-39.589502540179495,-31.71325868600353,-16.80107221523289,-1.5137667183529082,-9.15473067245928,-37.4957878213708,-49.735664237589766,-40.7241790127143,-40.162540062932806,-41.80205762562085,-27.119500755293757,33.29841107187447,239.84689176656562,498.03531428545824,363.4220621876318,-229.1093065225835,-586.4800674493883,-341.2501644946747,-22.96863472203529,-1.4236181451975511,-19.888313459247094,43.76546847464256,45.89542638467618,15.361532206692395,27.149223142861942,28.999516404487654,14.0223270279042,14.569409561543019,10.707078549601071,0.747003866016033,1.6504472596124984,2.336628728309683,2.2860836634708104,10.183095395196883,14.939694173182637,12.710457015893692,12.188391209763157,11.183670091090608,6.1144377793721745,2.8861136789794872,2.8002581598493164,-3.139694265465458,-15.67827576045909,-18.852580371578643,-6.419874837993979,6.408358947656099,10.244689582623963,8.134413975943765,0.09033258015456624,-10.984982431128827,-17.60981796368435,-19.32290418164883,-18.69390651635017,-16.637720940065176,-14.300639111072156,-10.351212501924826,-4.143143871476356,2.213934475801845,5.869059115084674,2.4481187421260575,-2.2969096887142015,2.7953816280391326,5.041683236173501,-8.16156393619438,-14.746220145965882,-5.850067547779041,-3.761158948339828,-4.824676879163938,3.098418632659193,-0.7304640233669666,-16.699838836974077,-16.102607171479107,-6.937816271400639,-9.879137802284593,-11.485365387469916,-6.639002785901246,-9.786222130351991,-16.956802972613353,-22.22556661461784,-28.502336031631096,-23.558194793036037,-3.858376652341617,9.015374454866002,4.838162930043027,-11.590843493003153,-30.84888911565009,-35.71064392784693,-31.639556115234612,-35.1355199466961,-34.783379552596635,-13.739204507371099,97.93641462556795,363.14612898493704,505.90112827536194,139.26279517624562,-432.9712962240749,-519.9818191278868,-183.10308766934565,2.8708946850872596,-18.63278690185933,7.135887070426357,43.2564120027236,16.149757662113167,11.277394491682596,29.671369485214186,21.72336322227155,16.54112330732054,16.4519616555682,-4.023821428032923,-15.840750162200093,-3.778027722586498,3.40246000170729,2.257829401894874,5.219807312268567,5.769272350385476,2.2210755866831016,0.8559082865438684,0.3382701604907352,0.5783557901700394,1.0004587492928687,-2.710632962350457,-5.704994223816993,-1.5705598164061625,6.492508917785207,15.14000944257078,20.635262229289957,17.7302397730204,8.213542066250971,-4.440823648717261,-15.988078188766014,-18.74123016729888,-16.69502106061075,-17.751325511049764,-16.093640647690297,-13.638884553818883,-19.38938127513675,-20.962807488384534,-9.746935024616452,-0.9106896399202018,1.6063941092362075,2.9836063694433825,-4.519374873090506,-15.826055121582009,-14.487868923513492,-7.369906523258599,-6.436844973556475,-5.499986469725036,-2.49017429014434,-3.1901810178172596,-4.555827750280391,-2.484017326241206,0.6711041834071221,2.4921048031594033,0.6490034756770768,-6.849784986356173,-19.0895190206001,-32.24413383348961,-36.70780893320858,-24.608412141645065,-3.906622408917416,8.333794721087937,0.5870141296310756,-22.391421271680077,-36.74705717520317,-33.76792407540441,-32.78460062004852,-35.73711846504395,-34.84238587590484,-3.2378000172882935,170.6171039256394,453.64726192788095,442.30340912364437,-58.37422395698967,-506.4787615348398,-411.42880556807626,-95.5261553929558,1.8213097560280893,-15.624925414781966,23.401994902623716,40.96443725814191,17.464916707209177,21.04589824672847,30.46170744128775,18.789303169714337,13.405540274288331,15.244510896369821,10.252191877233214,6.615780713076878,6.354536775364167,5.225939330273126,6.801350716796746,6.657387811434884,-1.5355070530666253,-8.9822075356002,-8.894856456550961,-8.119461194988842,-10.1007092707557,-10.182597093557838,-7.067036291794845,-3.343107680366444,2.7546378653470733,16.65526986561315,32.16759892884851,32.52899826723773,18.99195921010459,5.5024844613712744,-11.190223959502925,-30.11093413763499,-33.31438186938205,-25.870357903134753,-23.944469207457324,-19.5028272208877,-14.357828135523388,-22.706576495895376,-27.482076480632035,-14.969141473603168,-6.278101270781848,-5.872808059258556,0.290302598109502,2.639086355166672,-5.283832724819959,-8.167458084622949,-4.377070460757141,-2.3812363325485464,0.08888956412396354,0.4449578367863811,-4.850692893298703,-5.8670435421755975,-2.0374414408544403,-4.630017152746973,-10.38003863798097,-15.677113973206517,-28.26700256123534,-35.835030543525306,-18.2296898442181,8.350403326538546,15.834658856257807,4.417712100905845,-13.281956414276053,-31.505619775553004,-48.03985239220417,-54.16808880694031,-45.402822279215826,-36.30267056872167,29.047299053660666,262.3880566921436,483.51990368175484,265.93809841286304,-290.3576918492452,-519.2474771574026,-255.5399580524367,-11.649182122146058,-5.273707298851779,-7.678217319935545,35.62672610634034,29.229085188528526,14.17263610880238,24.893861890518536,20.31969283442701,9.510167397262057,12.422591463276719,11.029091022596504,5.628869283260526,5.448182574761484,4.017032311999122,3.6326365742127718,7.920764803521198,10.077511209922086,9.319433567856981,8.638151584243301,6.417263894262141,1.6450127354131192,-2.611243570954066,-0.440219224122381,6.648213693735686,12.737950403163667,23.529182494173817,35.720801315517534,30.48819255049167,16.732901363007482,12.614706523958247,1.8384138968318222,-19.311384962776867,-29.287901480363963,-37.51783264483228,-52.32102434931742,-49.05527295695217,-32.95274204006041,-28.994029077123013,-24.65292077740684,-12.405280514206044,-10.300606095687009,-12.583296118831903,-6.062036011578513,-0.783543282617746,0.09117138012643977,2.7464079070766996,1.838046377571672,-3.2060642470875003,-4.121828836040979,-1.792850065118774,0.7631603848392139,5.8397639828265255,8.505181494291904,-1.4199234057487082,-22.287845949400694,-38.742408811700614,-37.461179497324316,-21.026997199579764,-2.741397351984954,6.535089771432418,-1.6818339642818358,-24.189686686278765,-35.45561335014986,-27.754277487286846,-27.008113155113833,-36.97239345339218,-44.8616925060568,-17.96306617498587,156.10091929978563,430.6540724050888,394.6751201055455,-111.2260618144443,-514.2048602604091,-370.77586765567116,-59.32746284569548,11.202320479022564,-9.022137728738901,33.31912493875697,40.13898824258909,10.660458018911921,18.991349434924043,29.16085887221636,15.483700518630474,12.725984432640248,15.771007636633033,7.2675935503011,2.633184832960521,5.977472624523976,7.455852788500594,9.324627736627919,12.253305238051624,11.729031226781249,9.259233337751626,6.380685413688983,4.100050922515445,4.970471965343962,4.915862666302425,-0.6975436601020193,-6.921303804321471,-5.397314357415563,7.4106876366033,22.13277316845244,23.18250653929111,12.83745968581131,0.6943591632397776,-17.992817301726358,-38.28227415807814,-41.81861107959976,-32.12197296028343,-24.065654848183463,-17.389885644047553,-10.950063742171771,-7.925848622043777,-5.564013444381313,-1.92122517097844,1.5601098350725966,5.684344799894532,11.778770135816181,15.73506001918749,7.744618710805274,-8.317257965111343,-12.720872286800702,-8.202749850122327,-12.941654563621523,-16.034550190598797,-6.485006321190568,-4.259011245668983,-15.197859214027662,-25.322290540254293,-34.03116840418969,-34.70501801818513,-16.896189495980188,0.4623284589849943,-2.7406573156972662,-18.68156717532107,-32.01977492878445,-35.47681109406504,-35.07775782269777,-36.44912617348159,-37.19261316309468,-29.433577229612595,73.10472329604413,336.0768468471054,471.78796216762765,115.37971032452118,-415.4886178776906,-474.7161599178378,-148.94015840691,21.621596006566573,-4.57144590244534,13.162022682133077,45.882865541320434,23.006384751705212,14.11056916651436,27.098354923013346,23.13744220525543,19.322194414045654,20.598530157331695,13.06096874899858,7.785224864357007,8.139721602073838,6.211506045174995,5.471804730377444,4.130474185080002,-0.43797442186978586,1.1432213799708517,6.2661804408411115,2.147037186411711,-6.615523394437638,-11.444102918300068,-14.119551362538616,-8.942107332802095,8.41511950410714,24.5028060400876,32.685215432510745,35.80498216439662,23.527291233155445,-1.9995157508939823,-16.096772532074795,-18.463493364277987,-23.911484895387275,-22.615893684574452,-13.732156529022886,-15.780345095865584,-20.942117499462924,-17.575023466198665,-19.305965427589975,-21.066634089969853,-7.974359773515651,0.45358577101957387,-5.352063403508385,-2.4211595057631534,6.121036267772997,-0.08589710439100529,-8.85159357569887,-5.827327986584207,-1.3354284914506778,-0.5250888178950941,-1.1502750338648848,-6.731499422090682,-15.625464828927072,-22.62529565518652,-23.482542720226373,-12.864791074066737,0.7737065987264273,0.468899032249702,-13.014962987100962,-25.01688262510899,-27.3978650037857,-30.770682141031234,-43.44936777148087,-46.627336609046274,-38.28320567939761,6.767618317072859,206.28245461513478,462.527269776601,329.9923382378585,-227.3877072439971,-538.29321529301,-298.79859640617804,-13.796294744636139,5.271733661118439,-11.363401528058251,37.524796290651,40.76269630776504,17.364379771601644,19.10618641822352,17.328335854864658,9.820737303685446,6.82102856288852,-2.560881281180973,-2.8947892599240257,13.127544183994836,15.147686798325076,0.22161400343234394,-0.1667686614066084,13.940246097418926,14.302205547511974,1.1907010266709266,-1.9409374593837225,4.237394779536107,0.7471534705125302,-9.36819866850483,-6.97913099852707,7.16151962205824,18.450456849323004,27.390018879728103,34.85523250432176,25.38023911050016,2.2347082987607987,-9.29283767241148,-12.341681167821829,-27.267169394107054,-43.97827614713127,-44.27391188078373,-32.635658874620795,-19.048855451327427,-12.08384840053631,-15.608973114010944,-15.033330172256782,-2.7941811599582174,1.239684578691179,-9.014459739127705,-11.130619530222551,0.3564442378598489,8.087932569444156,6.067046314578351,0.012929480628020684,-4.338963754339652,-3.5213517706917266,-4.6467266603898665,-13.307231568037645,-20.39415686928554,-23.0095775082438,-24.289042853122478,-14.968584473874877,2.1833419687507893,2.0380703592222567,-17.182697933637286,-25.17630516702305,-18.24612982982544,-25.075153551018428,-37.76246638091465,-35.33334930444982,-22.344083792239005,95.39474295246485,381.09706601319806,480.899799681231,39.670684654418494,-497.52856065652105,-478.4298557479009,-124.16202551987709,11.20060948872124,-23.329156797398674,13.334876572745117,50.71177537298377,23.436864564736396,6.330266460415233,10.836804879423484,11.177442731623735,11.472384755418808,6.413044407807036,1.208865707428155,8.115419676806948,12.9216439450623,9.408063053114217,8.33852803193313,9.080764649957285,10.031066250264544,9.876051753538432,4.881960252804264,6.079092405907767,12.899010076994148,5.742602345914893,-1.7639822538170895,9.940866852326568,18.098271775612677,18.841759794595983,30.451708307721514,26.128086115812273,-6.005476996514034,-24.300407388541316,-25.073570613259477,-32.34847864124905,-35.28615925325545,-35.276002404411535,-42.26335825899856,-35.22577819350313,-20.572384225671954,-24.283648846934195,-25.254437827634252,-7.201335973067172,7.256470333797786,7.525005013384259,-3.8276467027889076,-14.644386521734285,-5.544933165594582,5.970608539899059,2.6797331025227393,8.05213406488404,10.685645229708271,-17.989703551457005,-38.478742780043575,-21.74422553077363,-5.58013840602133,-5.778693450634375,-5.369779400314236,-4.162632399527993,-7.655049324467072,-19.542259830889527,-32.39914653421604,-27.914113448517064,-14.46680548546648,-11.48080060905163,-22.59616142714238,-2.1197379161431513,177.88224080192887,438.48935534727457,324.37629579006256,-247.19257851144766,-579.8522576415016,-313.23088912631306,0.22954233801573665,4.037109470441898,-13.217870549374652,64.03198100825297,65.97263131801131,18.47538825432779,17.372822709884527,22.56117253705021,7.692247564512423,-0.9733461768697467,5.75130481124226,14.569971907354223,3.1774980557616157,-10.159723085093058,5.863466066329461,17.760591119534396,5.626295716653316,9.288401190924864,23.396305560435415,15.70329680633649,6.393705628158983,8.155437674505182,3.6495858022035352,-1.3995624674312603,0.48463780505558973,2.7279199542745123,9.670282252997973,16.563373162414386,7.9152504539987865,-8.794614337248431,-19.791239508803393,-28.745259952102934,-38.064681154459095,-40.92062354032559,-35.296445249149215,-27.42134578565008,-21.685489532136017,-17.10985504747675,-15.725714320721153,-16.867362836967594,-11.468205727565335,-2.8259646928600226,-1.469868318453825,0.681141600027031,7.128005487179528,4.495587175840804,-3.682904167280899,-6.964626127197551,-7.6234881869924145,0.7494692432234906,12.70078548230893,-1.682545238228304,-32.12550458092242,-34.28778480602356,-10.240394206720353,8.936395474784865,12.583022161213982,-5.831617344349851,-35.10645231006014,-41.869117382380246,-34.28141341663995,-33.04384473337964,-17.023840079063234,1.1498574625035474,45.99609964774591,254.49107463901385,464.9347020514499,190.3180293594383,-429.16587667907305,-591.7620216073511,-204.39870895367372,41.72331587521908,-7.5259886276824,9.84448483153075,82.88007690014777,50.87117813508977,14.378912763906422,30.696918730727727,28.47898763886855,13.951187756876173,18.140536545609017,26.447849023568715,24.49627417378046,12.123973294859606,7.316575850885059,11.647244253096446,2.5273236286242384,-3.7593064594493772,8.648056118816807,7.450223504976049,-5.873275699425278,0.16468883535080658,6.788140697983832,-4.920316987016246,-5.852105694131723,13.381900273600234,18.927441271622772,3.3297439795786814,3.111577133367623,18.56489573786296,5.196225572302167,-26.008130688595884,-29.75305358905601,-28.466871068981806,-47.62579518850748,-45.73600329006381,-12.753841075462532,-0.4277864758107377,-22.911161742311236,-37.842678491878914,-15.660360366816507,17.59336049450598,15.985063362010663,-7.162441981122164,-3.6113961923271436,13.478708194156951,9.153590455990038,3.9381047042947617,9.790255794765628,1.6460503578163372,-10.022662750208731,-4.375602635597142,-2.201984317805671,-13.697357626593908,-26.59301979176649,-38.41112737087483,-29.22009787086821,10.959867515324241,25.2202463685241,-19.083334439625126,-52.00120472752944,-30.503123849185727,-17.042373478591145,-31.81295399763243,-19.77729292245065,22.366136329914696,141.53956558114135,386.2595970125455,413.7483332177557,-109.81769117578779,-634.9811257615718,-468.86035351566966,-22.294107058024174,42.915865929595505,-44.594998065872055,40.05260421644235,92.97895643580489,39.14642966339176,35.12508876703742,45.40061944499155,15.80159645478653,18.2820342272121,39.04945982345562,23.557547930777858,2.15629067304962,-3.933649972584898,-10.459633332924106,-10.069496005782444,5.40604420665329,21.26422276810151,21.09512994307977,1.6093424133049528,-19.76657589668666,-17.186870189940706,7.791342240081525,21.53549677090148,9.186631238527422,2.893526352968734,19.129868570189473,19.866293314753364,-4.391446470142494,-10.357145808654131,-4.566673056886152,-26.120011243588582,-47.0472288156201,-39.40325294750179,-35.05091177483101,-36.4616690014173,-24.284282670377845,-18.140480799591174,-15.575494287931205,-0.017933151016753968,0.5769957444604827,-9.486682675198775,6.724840006548321,17.577580866367335,-5.7737126375436745,-16.097461919422557,4.11306274969037,15.794400335323525,7.743669978221895,-3.795013103625312,-9.733901265978417,-9.291939112325878,-10.049830720476775,-11.497528229276742,-4.578456586838657,-0.14467441081237453,-10.231498078025705,-18.70769020096218,-15.277169523820874,-13.321735894056571,-14.734621484550676,-10.884354597162343,-8.154941758632809,-18.331241608183475,-41.1243376325158,-50.14512452569344,-22.353256649568962,22.460627942632655,133.45001431290177,382.77518967472275,476.8342712308141,21.470011176649678,-581.5464288738907,-564.2122829059949,-117.90758860495824,41.62805359346417,-35.8477887000999,29.26965905278923,100.05555806805299,23.13317780511211,-12.785081567099049,38.41504893178261,42.13779364082143,13.030627949138637,13.286848455725664,11.643380418971926,-4.993340078157525,-6.541720986790438,13.055033708264155,28.585979812283078,18.802387074627585,5.608348293899899,10.85400913067938,6.536745667176152,-7.053379934942011,6.232113545443463,17.07566240347898,-5.591343710559445,-10.62407562887632,19.110712535112313,29.94483500993598,15.642607518839544,9.965330702683403,6.534242468048205,-10.601422087626144,-24.870512204685127,-24.405102196358285,-28.448250518417957,-45.23367235275167,-50.7785028522359,-37.892163192435966,-27.156889276540888,-24.50735940499182,-22.574908511017494,-16.462018476350302,-3.638184792360029,6.6085490354267,10.735601856745195,16.341145688875454,12.616805005013795,0.45294535932542246,7.37466600852161,19.38053531017164,0.9094345711063543,-22.75275440089826,-14.072710799092516,2.085127273817916,-5.4288710544257,-16.419089696789577,-15.428199231160544,-20.014150103401743,-16.54697444865192,10.548524115643701,7.815234907547779,-37.62800664613228,-43.37686323043759,-1.9884578169813416,7.394154625697568,-10.103417820071206,-2.8196771252184245,6.269074553484781,-12.150284042973695,-31.802683051617635,-39.6391583675823,-41.15002596136758,-19.872817685450965,22.409009834059546,123.74902122328983,361.07794933473724,477.9778155456704,41.08745116583286,-602.6638864434665,-612.2076573666982,-125.48892882985463,64.40052267749705,-26.25388554048315,26.17259496612098,97.67861897370776,36.59276850619943,17.69971897630603,54.08252835653022,40.03517966461807,24.481892457862905,29.25463189060612,7.647437180756612,-9.482579250577434,9.33261602628112,25.510307060875395,13.297198987111086,-3.046740372839188,0.6699094879822471,11.01308936010386,9.302988912064317,2.4799950246482387,-3.044363444628986,-4.1499825472259895,7.596965879002145,20.0574280043263,19.578715298138306,20.70242162081641,27.442326183466946,20.202347143838416,-5.065232828109076,-30.342080886790207,-35.022771815635345,-21.256994696132242,-21.98945842846601,-45.22589042391488,-52.1978799079205,-35.38639079647929,-28.810492441836235,-28.03608365664096,-11.783404712959241,-1.6215537721073652,-7.573732700263079,-5.04360526096511,2.3635418912606045,3.271154201281659,14.815268285876401,26.99738828856985,12.649752527988717,-6.681733618415478,-5.5731458343773,-0.405123270724161,-1.5596019333435507,-2.262599422565099,-3.993155161464413,-6.598511402868187,-7.027010946924296,-6.097085484256974,-4.962287147493299,-9.433751340803902,-18.141682360710988,-21.841335145997085,-27.34310569184853,-33.572814106331066,-23.129969507851712,-10.765615303629394,-9.02365862948419,6.520730190785116,13.67751935660279,-23.879149120481422,-48.541660303487575,-26.694738967878095,-20.17763404311702,-24.7653226878406,6.623610644625181,78.4488917865896,266.2664549142431,488.216445126568,298.043644980433,-342.8877914257931,-671.3030396855561,-337.4915783405639,22.272142396157026,14.722869720196108,-28.277093674079026,49.11666429613234,69.1387815121391,33.52073663281716,27.617327128775422,23.794417501492134,15.740093539289605,17.42716413028817,13.084561876351323,9.21024220206829,8.75486215046105,3.5083741945667803,5.646222015441245,12.148262774057919,16.367110342849518,26.966378588995163,22.059445333270002,-5.0917102082975365,-7.512842813086261,13.178160846829845,11.417628127279961,5.443824457581626,17.780821423582957,11.336689361370132,-10.936766029111768,-5.565977681312722,5.468268928626102,-9.537254730786142,-17.96470148913387,-13.33654627505932,-31.152577345527884,-50.756366477627324,-38.13958552675062,-22.616456281393766,-21.204088373840722,-9.780468711146202,1.267198720024993,-5.185429684134872,-2.303835725163262,10.773926627748528,-0.1452423813579209,-15.845400393267669,-2.1225569136585545,7.364065791644727,-9.65561774524727,-11.814496582054442,3.792899224818388,-0.27544244573413934,-6.959299572219443,2.142887775721217,-5.268277276321369,-19.91121638853555,-4.830273175606344,6.975118723948814,-11.033563979845184,-13.560277170283864,6.348575918344558,4.862940416800344,-9.699600919195923,-9.009923676012738,-7.1193382401554555,-15.270069730834392,-24.801169699976125,-27.69087375706828,-12.444991885863578,10.705241307977703,10.008826190511364,-11.15275386586957,-24.53510075228834,-29.924814608950335,-37.75196992531235,-33.782951685985495,-12.11134760684801,17.90754808546866,135.2581153839082,390.10513274893736,455.0357786806974,-12.597828298029896,-563.7932565404295,-508.3262877188796,-98.46837599445777,28.740382039829854,-39.1720097675753,8.841109180129799,59.13634503424683,26.160214321416586,26.08454228482147,44.426123547786034,25.406023900599415,14.482027194252396,16.356180336172795,3.7503026803352686,0.8434064003272965,17.772250669602094,25.44395638095168,12.015940921708946,0.6999434115866601,11.23499110653308,22.841809355236926,16.8143778847506,13.576077170194768,14.788351919722718,2.58270056973398,-2.429449049474214,10.033973144916366,9.779940060487284,1.3248048501657577,6.015862285198626,-1.3995115200513268,-26.88009455440556,-28.449085092795404,-10.097842399132846,-16.490712105209035,-38.37714574839609,-38.18027018536246,-25.36498050037289,-24.14536252813388,-24.688232563606007,-14.844755531889946,-6.001021461128303,-5.253485534078511,-3.752786559839768,1.8673479644204836,4.543968339639963,2.659060679821259,3.721942222484058,9.228874189712338,8.358153264252483,-2.240121246404625,-8.312880458633561,-4.129651775503936,-3.364990139523373,-8.39300036684918,-4.441906227777295,5.149674864527691,0.4816513663102917,-12.827870592285946,-10.661960466941668,0.9809401489911256,-1.031674686623667,-7.677062131925895,-2.0419259564076544,0.3467128800429169,-11.114139988093186,-19.634186252005872,-20.94458458886857,-24.01775234630416,-23.963405198772055,-15.544655500053498,-5.791427357456515,-7.175955483605616,-22.439341345782424,-31.034033194998408,-28.96885538549524,-38.632685165359575,-40.26934839468826,-11.171561022545529,50.60343140926729,235.83886909548508,480.963505341983,341.14966459640016,-263.61743781194696,-603.1473551708551,-309.61100907919115,12.990951595062196,-3.4629075897609596,-28.775640132561602,47.24476879211774,38.73567289662887,7.598417258939383,41.46995763255163,43.226218671556374,4.023436658198604,-7.365206544318799,-3.8905663887464836,-4.2830114487917355,-3.387861629276104,-2.4526999395571387,7.736884706780032,13.289094143447091,-1.5949323402460864,-2.645401462704403,17.880399237698327,20.244845088345702,6.518547788905668,-0.06000642523415678,-4.794223562950067,-3.7019819164217957,9.440176548985024,16.08089398239727,11.195873571264613,7.645311121125879,3.1269916134373936,-6.799153980616688,-15.561050829269453,-21.593890237375746,-28.267743033150218,-33.204767255432444,-30.30591054537684,-19.640325328789814,-10.840790384120194,-8.705731109820137,-6.1323573491387435,-1.1285976175133037,1.6401080727470365,5.433134368767553,10.765984527844203,7.952164009886709,-0.9550223788975858,-2.705306747861165,2.7678754598173088,6.715864614969301,5.755046008690702,-0.6228775472281924,-6.986775278977333,-5.256800280957879,-1.1926712268408721,-5.173963427468713,-12.609570820478234,-15.370020434039944,-15.283822130327167,-13.292622163670048,-6.314888367319334,-1.3035578467659672,-7.723839915619166,-14.337482146302706,-8.69390075733175,-6.567915875166776,-17.125187318903052,-21.072596924697137,-16.261727639838817,-16.95997285170341,-14.42438417229995,-2.4364065875397447,2.1878229782118552,-6.3466047119510876,-15.128259421547522,-21.7177191394972,-40.594993284721355,-58.28120881029933,-37.05666980466876,12.75530554275835,122.84031253661621,369.25388179118835,484.3945602685135,63.76249842815341,-520.3461083887682,-513.9827849511043,-106.51863995350575,27.90887792432395,-38.52886512110469,17.14264712175506,57.218306836550994,5.323110269795109,13.657744671563279,45.32316286055965,18.3026890302934,-1.4575230480792705,2.164305141752642,-1.1898842416460353,5.449905032267762,10.491660119411648,1.7175460337111963,6.755719836228934,15.096783476321898,6.784174223595938,6.587623910289031,15.319811561081051,7.363133624836152,-4.696851714434144,-3.5634235165097774,-1.9339228239630128,-2.3413571565095563,4.535160700397614,10.301182697782307,8.528965246868875,9.077733031296608,10.069069232839288,-0.1324915042029815,-13.157764472429779,-16.559849309810645,-18.318830089716883,-22.290764072108182,-18.59194142044249,-10.461575892898136,-8.267930552353533,-10.527456674883268,-13.90279611745597,-14.887708077566856,-9.654573844193775,-5.9649052604998865,-7.110124558883637,-3.8317611514464343,-1.4597830888440289,-7.448578314314997,-7.43416110652953,0.1435884384608599,-1.61749991905746,-5.987923149927157,-0.5946816713775362,3.4318489994578556,2.654460405560643,2.1062619602652344,-8.897565842338185,-25.19825396331057,-22.906904458046924,-9.566450542914229,-5.3343288083138845,-3.4667711703355266,-2.9521244748054514,-13.656746670705944,-22.84396220816369,-21.14022352467933,-17.23706079706629,-5.454353532249937,14.29523886563733,15.181546426556315,-9.633437923918457,-31.173726108708372,-32.09997472893734,-29.62461960772641,-34.761136588676024,-30.523878315102102,-13.047203026832882,66.84948612896957,305.0354149134663,485.9544652220397,160.61060550076405,-457.7971657005113,-580.6303326391942,-182.9546985611945,38.91605907228096,-19.83760228806108,5.545563557178138,71.32043788844103,30.559500701515482,9.829533625549864,38.2474184990751,24.684216091394966,7.7004541370822865,20.086787064717246,16.757078434978727,5.3571733819352865,8.383539689344921,10.631113185553717,12.51804331941497,18.51166838037514,18.03392473750742,14.432280328213626,14.643626079211458,14.103036373505613,9.350442604153743,-1.8329203720906753,-14.996621447805547,-16.7016412040884,-7.504293673338303,1.3887707544653582,9.33723199158731,13.751175090061416,7.061897900958109,-3.8899648195738497,-10.809048831623283,-18.294346398156048,-25.835809434143584,-26.82062490543432,-21.97711377133804,-14.295830982991836,-9.108207115301107,-13.233956582195493,-19.017028806633487,-15.237570519161757,-8.907906306324302,-6.593155767204337,-1.8701009162642084,1.2677003942081377,-6.164473746584953,-11.838898321922246,-3.67769183118361,4.216110889130958,1.5443189373121378,0.3297374915003015,3.472290840057039,0.7716810497846964,-3.6358835263728277,-2.3919864095013317,-1.3200670409317166,-1.119695536622011,0.5698602309911678,-5.398159199263855,-17.61393044259305,-19.353964607220437,-12.442516604853697,-13.67443625678139,-22.300967589568288,-26.78233871951439,-24.456985020444073,-14.71981403197255,-3.266896753404632,-9.878992733010293,-30.6922723574596,-35.30953551837047,-31.439768859966513,-38.12340540762176,-30.455704762106365,4.055016590560115,113.72205762931267,366.29725270352793,488.36142579237463,75.63687480542707,-518.8172088819556,-538.6439820888053,-125.70703625807586,41.48300320466497,-23.261766519102625,17.27612982974196,70.4652838778029,27.399886227448988,15.234865999573518,36.55175262272012,20.089209473741867,8.315852777562483,14.558734307110802,6.727941127212123,5.072228538663974,16.113023303649204,15.757944457096203,12.313810623442778,16.289472185408755,16.832890845721607,15.458036832697799,17.22183444381857,14.336487280200437,5.0253122720401215,-6.160504930608872,-17.812813280686026,-22.168654579655673,-11.809194505034878,3.367806796419541,8.96520103060685,5.084616832701137,0.2970379701699244,-2.87149887632747,-9.898481234311578,-21.243038770105105,-27.020707548398256,-23.4336949702161,-18.144592281987997,-16.23559041343963,-18.19071559308718,-20.78080344472449,-14.990085111472581,-2.7601921074440305,0.7759756012682324,-3.472157067093839,-1.1599439265218745,3.730061211900198,0.31787169400560167,-0.4279891903413784,10.592880464986202,12.420121648098576,-7.57451276315312,-22.210781166161496,-13.853865943454544,-2.839548955924741,0.3476230980059274,2.521142598447124,-4.836269109134658,-20.514895667186106,-22.599387141371167,-15.218681588811712,-19.76427158090214,-29.47767941175996,-28.234959173454445,-18.888127396118772,-6.861473874084982,4.0575156707228555,-1.000115446244635,-22.564908236045,-31.321735976160102,-24.370745552264694,-29.619000956035926,-34.0246677721337,-15.936268491100076,51.213720659517904,261.1962123277435,487.01784089245876,273.7451180920183,-348.1541291368911,-614.4717399773908,-273.9501301725036,28.868653804290567,3.226812013672969,-10.053632936586197,63.505013603286514,52.38978335455161,20.049266544469035,39.42125063979563,38.98789593951122,18.28945397642497,12.970594446108818,3.8989970017829236,-3.0937903257234245,4.7818602931419,7.967863028187137,6.050312444231076,9.577896387176773,11.838866503355588,11.043700423439216,9.184010416276662,5.340598432785678,3.439322728732499,-0.2085527843190489,-11.416847936980727,-18.991651316338732,-13.487666732277834,-1.3129753953303909,10.956452442444798,18.153309150725278,14.71745629547305,5.062778968124341,-4.0561749191858,-14.983990677885785,-27.00739179187557,-29.932162459528477,-21.321780151444592,-13.509812465772791,-13.290025179756197,-12.162399662551424,-5.288004812166879,2.7446741873216176,8.032832330592154,2.88931898243208,-12.89777735023678,-17.79926723598684,-5.369954115672417,3.0061233187763268,3.924871618041001,3.802072806263272,-8.747880991333048,-23.81779087520323,-17.110216292504827,-4.644217799086107,-6.038985004531224,-7.393008915171674,-7.920346187036735,-16.871514560015395,-21.62674254192055,-21.947898370095345,-26.86317764476709,-20.01516241115513,-0.21712387883556694,5.60363300795502,-6.711100012264648,-23.202203556556412,-33.91932332138814,-32.7697221847737,-29.94888211223264,-30.8030099768044,-24.73569094506115,22.15960182223793,205.65968576991378,460.21299112475765,372.44415964175687,-184.17586275132476,-577.3157677671912,-373.06086793988914,-36.56131619506958,9.45714635744291,-17.646941009760184,41.60817913847417,50.79104730314552,15.407099964770058,24.197025722370753,34.992772795092876,22.912505799961217,20.532247462982177,16.22565641937358,1.63361099477736,-1.4624279134280096,3.296825280059189,3.0167377171219965,5.011392217123232,12.635393396557099,15.623215292684959,8.17694020207276,-3.110643663385678,-9.524708863411977,-11.168688309357353,-12.00745899760579,-12.09113776529799,-9.136400442729169,0.9362821798698511,17.713071596745486,27.204962954953295,20.19800365448026,9.487556566902903,3.562393998110711,-5.812785322277923,-15.613721447899362,-16.4547337334335,-13.681268278010624,-9.341957585753029,-3.6343122367263163,-10.687797395137455,-25.209501474715484,-22.014539106531196,-7.46228258965639,-0.9731137496430122,1.826753630392659,-2.5159751402574884,-20.722777057304125,-29.343891204579855,-18.10062456682264,-10.352133691550357,-9.873116071191445,-5.706477369821442,-6.428052506184596,-12.842760444589441,-12.287855260531533,-9.089091223276569,-11.938627750009982,-18.324924080079327,-24.024471651899344,-20.63041350752747,-4.270613548635236,10.7830960944197,8.763679430052946,-9.263355342457857,-24.55253546118372,-25.7674685958086,-28.77209649820437,-36.76137118325968,-35.45883419485271,-6.462192858041661,142.90313334307174,405.7764318877899,402.91851469353753,-96.44380979411076,-550.09234888955,-419.2454190544929,-59.96725931129354,27.831153596613245,-14.098662634730076,28.592380795920512,51.20014515222243,22.758445044778004,25.738841967696644,32.8394254448156,16.319928686047838,10.954383764894676,12.325921043057807,7.941067198603925,10.448798237902341,12.409502300657708,6.961112515058343,5.806692689852763,8.200224326472377,8.431656865547403,7.6960736011559865,1.5030228856866834,-9.298534004940374,-13.482537095902714,-10.370412241353389,-7.76100010714174,-4.730652726498105,4.825275629992481,20.839077993959943,32.970525639326844,29.60688265678408,16.24463271392684,7.012822241081709,-1.2117379788929332,-13.833008422534533,-19.361689224192055,-18.56152604409861,-24.768699021706215,-26.790134410599418,-15.898345513352433,-11.77873514057243,-12.082894628288042,0.5900066296033835,4.407717226247186,-12.253830601195716,-16.354262672264323,-4.843437173540252,-4.470397033353025,-8.597463076651014,-8.30774954142962,-13.701829982381955,-14.946527880788611,-6.279328360659115,-5.376234924740867,-10.378253282130608,-12.4214791585719,-19.40506267459987,-22.08585814153598,-10.240716485751147,-2.7873739765251564,-6.888819351907479,-13.512356859700997,-25.032865006304633,-33.92052001023421,-30.088212831578332,-23.186451440156816,-24.25536271500274,-25.738449666789077,59.47900984328953,304.72967520115265,443.0046366127199,100.50108655612267,-437.9454909835768,-510.5447089938174,-166.49487211918864,30.271430333692834,3.680067875478432,17.10911811321419,58.52636294258675,36.71771701677006,20.50886551615464,29.917992447656605,18.573695275441644,7.167898286335502,13.477306419154687,11.938885571350802,5.632577875814138,9.727148187463875,11.17675496219401,5.2099861176297,6.564028654276589,11.76819534262361,6.510402846803033,-1.9108897085793197,-3.908841362579073,-7.025405629107551,-9.347775678052855,-2.2160567341760506,3.8637495964020356,4.661895758658969,14.661318876862294,27.30944087769454,23.060932749473725,9.428824461131386,-1.0054205257331201,-14.020294002408619,-26.849454434244958,-27.79781089429534,-22.54762925752753,-21.21627287451918,-19.518395377682417,-13.404203978646116,-5.561507871240357,4.040294626500872,10.26508735077044,2.5708798357425238,-10.760443825526956,-10.074852257850376,1.6510037101130974,9.311813830496373,11.16014206948395,8.261601688862871,1.4164341191168628,-3.8647660510116264,-10.819904102229163,-20.42201796293778,-21.65200082674357,-20.314679804116633,-25.41525721313264,-18.044448755362414,2.84226230412457,2.334642113178134,-21.925174654050227,-34.93848698714383,-34.15225784011788,-41.09981324878551,-43.48323296027005,-32.71997891475705,-22.203138569746056,73.67057066554719,322.483824360433,425.40329280339154,45.93418888537994,-460.0614779631097,-477.3103518421333,-137.86876891604032,31.69963178992966,8.440470126306279,22.070137482299653,48.58086577187415,30.635830008290654,26.023487670070686,32.333840003064495,19.3354115037083,10.77621801594199,12.584858609201358,9.800582471247655,7.986886078386796,8.610621744489407,6.192029208294349,6.324067313720703,11.13703066730902,11.249015377980744,1.0936983837714451,-10.511273909068143,-12.57276244722657,-10.136978770578825,-11.77914305645754,-10.536540037031429,0.5767523452416197,15.881076581882095,29.27387430139678,34.78800467579853,25.586265754799317,8.67170935733128,-4.2435186281128265,-17.705410363575904,-33.29897981794345,-35.3490087242951,-23.731876256332463,-17.40308661513206,-15.892768899881906,-9.021689948936803,-3.9257815123678608,-0.4207229498432845,10.566848938293806,15.199757771411754,4.5061054715446005,-2.2772154482973814,-2.7576861621175848,-8.861425330346014,-6.984106341252902,4.103708038317109,-3.3257743953378593,-22.830263718028124,-27.47049845662246,-28.772339641840937,-33.63162666057181,-19.26591864180818,2.3963528834707795,-0.3364354017115101,-15.392291560623299,-21.620015251466384,-23.521046688773307,-22.91114988672478,-18.205803197505656,-18.711333597257685,-32.337465679505726,-10.466034978400444,160.3016530125656,402.8024301816407,328.3720895256741,-165.05873241891462,-519.2000246968435,-347.4787657047091,-33.923629229964156,32.67130000775056,2.0967750081143706,32.738902853930995,38.71069682320739,11.413244223094406,16.2865352286805,26.07145682385975,16.12377506115639,11.49965741048823,11.305963470219448,5.232738303493791,1.0744153953802362,0.9388153201475573,1.832841259294464,1.9609803063496622,-0.3396886208988301,-0.47398191982976773,2.6556307200451132,0.9072612679111183,-6.311441982534481,-9.882116170034813,-6.834691983485102,-1.7553231137001482,5.862648329430013,20.071368376430943,32.30574830217301,29.352760064209527,16.348892452837838,3.9260922186743272,-10.027336163074207,-23.210338565202278,-27.211573650773097,-26.23035662629743,-23.863217293672417,-14.388866086862162,-4.739807470281226,-4.673086302260344,-2.826534239665655,5.592077863637867,1.6129894303387609,-13.736558286807274,-13.649862497746042,-1.5647137576923793,-4.110010350496655,-13.203768849180499,-7.072864580149963,4.3054374521464975,6.557939575211696,-1.4580853533144875,-21.408229678686403,-35.149468474105966,-20.15014898163469,2.3108698918954254,4.6308839484736986,-5.749998937204893,-21.52865418714869,-38.90661666685466,-42.38822483433091,-31.8386172164793,-26.097649735732602,-28.357917165321247,33.21966205129826,244.1509721971242,415.5442975994197,177.32102997387943,-333.51204260944377,-499.1996613116763,-211.68127871001218,24.3123041357926,21.239339313423677,12.464850366557675,48.73585263057722,37.37357505968605,20.415779216902905,30.310381522383715,23.284320410405474,8.926803764677931,11.956490978823851,13.037414357455063,7.388869180454659,5.678841232734929,0.8969080472256121,-6.435977303079984,-4.843310549417438,0.5589817235487768,-0.43598201138515913,-4.058062470796882,-6.701116843909807,-11.06671871512262,-13.098365117211092,-8.381581370491423,-1.2889043124133575,8.349893198766773,22.582787120336615,30.08452830816172,23.60467908882584,12.613651026940946,0.42748455858832024,-15.543258091656494,-24.468422122543465,-22.059551048988013,-22.38586878276481,-24.169190754498096,-15.26838075907041,-9.785105073302507,-17.897840616714877,-16.657363010950178,-3.9842009865964982,-4.901580278949744,-9.670786050284034,-0.5277355734598803,4.429614333709628,2.385397465531625,7.743339810789328,3.5202207744986502,-15.19017959876142,-22.861046397422644,-21.901457084447273,-18.514622418224196,2.0963198695288083,16.033445063348108,-7.245636679209513,-34.22793532153317,-33.77475308948274,-29.03826301263804,-33.28795877397047,-28.707873397852943,-21.675859269978602,-23.74109676034456,54.71086234888375,289.9951867874207,422.3902258918722,100.47414815421747,-409.49514257779566,-488.5850274973334,-166.28605257566954,34.62197136534068,18.754430237538692,23.4895382883753,54.968064646140036,32.71740352623763,14.392875740765453,22.294892104348058,14.393876859250083,5.518902639715187,15.308396071965959,17.43866643468373,6.061611947914956,6.3995459382659154,17.403159725968592,15.53539938247021,5.583191646578544,7.411057596525431,10.369730309328984,1.6660664713299367,-1.8344334777697235,2.733309598887164,-4.524538843445509,-16.08868045364288,-9.15634292130485,9.24405858114234,20.203028913405145,22.10764789471051,19.60174133725175,12.862356591938035,0.36749600556738393,-16.99980763437921,-29.300882446967726,-26.17181474233987,-16.023671865372144,-16.122205021449894,-26.439453240367534,-32.63692768279748,-27.78799337597063,-18.83397412840492,-14.839130573854334,-13.619029052916277,-7.051308053702709,2.2256490682411467,5.922563489557962,5.799907039070382,5.975943323391982,3.2632298921172307,-2.806355026244727,-7.544165505743316,-10.471230342846585,-11.392775959466096,-6.256590500674129,-2.7669060257270885,-15.019639138677675,-27.514231274479105,-20.324292236807043,-20.6084734011397,-39.622053756822105,-40.06819816179231,-22.51211867919578,51.725188181638956,279.22244983561677,443.0215481441319,133.1909721381889,-423.6318707724932,-533.6307097034156,-187.08096669940798,36.39785834757887,14.782687992678705,12.60874208751861,45.35274614763054,27.265177477323377,16.570429613313195,31.39512081114157,26.132132754763575,13.984099186358208,12.760965400838458,7.711869364438526,0.8947051116592197,2.43707666514977,9.928350814254447,17.340063078066503,15.751643118058011,4.473434492904242,-1.4993096438031137,2.559654258902416,3.0893624916218303,-2.4239455530428033,-3.603688257946692,-2.185472493737222,-0.3864780228638516,12.71089306319542,30.463159870882528,31.6055256877412,23.028045499213494,17.899318640161468,3.1331703334656824,-18.171157022309554,-22.247185961337895,-19.331727786334103,-31.651064413086353,-47.29260120640654,-48.71600168968786,-32.92254965582395,-8.286724284266377,-2.81840216477444,-19.573062703831187,-17.35734440935269,4.049185820969791,4.583790982830202,-3.5107057005936113,5.02761216790625,8.898644480505356,1.9405463239852025,-3.555845411832223,-15.67882767881239,-19.4273237369815,1.737508910968094,13.376649853092733,1.4399846682013866,-9.346091657742356,-22.054940069647223,-36.94769886551886,-34.20822662948781,-24.925147449943097,-30.6426981066243,-22.566697262655353,106.8053291814663,368.8599557556763,415.01402884724075,-39.976172963687816,-534.1536911193862,-468.8146097229377,-104.95655171118572,25.049688974768284,-1.6244139426304685,32.08591561736314,44.957680290624396,19.861935078046336,35.37167139712074,38.894720703749265,5.135778826744935,3.407438532681713,22.41125505289156,10.207236867246879,-7.992704099766551,0.8899438478533144,16.503184598826948,18.052120062943246,13.238928081696985,10.76894842148743,11.491653265671946,14.78594210524245,10.635787712252903,-5.773966504936768,-14.101369864400986,-2.6900235204752727,10.180703864279433,16.700992826036593,25.078156393918285,26.7496901955287,16.367525154257507,7.732568516096434,-1.0386617325112333,-17.004079838724643,-26.741958879171147,-33.48326270891427,-48.39278453147017,-48.04843893946408,-28.487237897836444,-20.811530347573388,-15.843695087283123,0.7740869860552451,-1.1969294986428878,-18.411631040201613,-16.385523099354963,-3.864325233417313,5.143838141758607,11.684364165293857,2.983569567441002,-9.90436194591716,-8.249423005665115,-13.32346184128117,-23.427829519073217,-6.555248459652173,13.928141381549224,-5.526843107134972,-37.871420209978965,-27.432775282494603,1.819415883375875,-16.71177486911207,-45.851407847270174,-22.510772034413556,16.24783341421231,133.5715058274659,379.36701324904516,352.2062187765041,-201.51985154761644,-615.8573536277181,-353.7839239371131,23.192532436212083,18.26113460931939,-32.37625512216669,65.88102018992592,83.02805757804624,26.22284463553784,27.125842190194856,23.614905261161233,-2.853436705656125,5.569418278743708,15.184068183844875,3.15440108843025,2.322926932477638,4.966581494017626,-0.7079590119900456,4.823798331828613,19.508098401592882,26.073767072514123,22.511012860626757,10.512185848580879,-5.743592147434729,-13.863336830221957,-4.866799682853429,15.242822491676103,25.52049356590996,16.74593422723784,10.642477186856022,16.757743401829522,9.87989288323311,-12.145363902470667,-22.210967279927164,-25.732078846496755,-42.37219496019401,-54.78782911489902,-43.630645428944106,-25.263542072102805,-19.143261881567796,-18.240814387810502,-10.4800398780643,-5.189476770805534,-10.507230595575718,-7.100790143912487,12.982968522560743,21.786513061023292,10.200774402541873,2.364302100425583,-2.7736312617571457,-20.229669731760413,-24.147061995640037,-0.3688810987368569,2.8525290481466357,-24.846113005578623,-21.59784850110073,4.621792773599683,-10.913922305084888,-32.111383741703925,-13.688308659303567,-14.690214214458756,-33.00420187704917,-13.517179027865366,13.772293326234703,128.222525092146,385.5130901067306,357.74609806849946,-220.51388604145654,-649.1806651577973,-364.4431209610749,44.33379280751856,40.11217594981309,-26.39319341587241,70.33622245841043,78.33071136077339,-2.8570465875599744,11.880540151968034,53.95657796167811,26.848278210133202,-3.7864990930416713,-1.651187862051438,-1.512057640073512,-10.361946681419496,-10.56803375075978,2.449458016754877,13.98697196459451,14.472321168076778,16.578343798713178,20.14507956581296,9.123637685674332,1.7478727518484831,20.675714736718135,34.15034258586226,18.98950965935581,11.904309871283267,26.98002672121431,30.308137866346307,16.766229490089586,-1.1950296543309449,-31.921628406010996,-57.06256286810425,-48.61940866355019,-34.712942004886514,-42.53638886369681,-49.02104661345402,-42.318182426716746,-29.893068518119605,-8.621088550776845,6.47126945052522,-1.2359192835378927,-10.85920852500189,-5.3163310791707445,7.424592785169864,17.091619568765246,10.214373679060063,-2.0185660529647382,11.402538887569829,24.739107217977065,1.4918768947973096,-17.20444700465838,-8.10766414179132,-14.39335078003888,-29.196394177673454,-19.30320873381581,-12.643217184999108,-14.187679020972803,2.8006065462815677,-0.8855439958690212,-40.68806746983478,-51.96448430409469,-33.63331436358677,-22.634667221704852,-2.2153694941197077,20.123599936947983,110.44768632881491,362.4236605709098,428.2217210488013,-88.19402272800971,-637.8496451136236,-472.41431014638005,-10.161609841125415,47.21171622814012,-52.22536712723177,40.60283725245485,97.11294820881454,33.91066437839069,28.97479041201651,44.04457591884021,12.650555947011258,7.870226897957242,17.968579278482387,4.4435189099336405,7.037505863905999,13.606889381843395,-8.323486553629479,-16.29843653719734,7.7893414287555425,20.642639066972503,13.755110288290304,16.13941932316195,25.68150829412495,17.42506422324802,0.2397143359984799,7.933640184039776,35.4797549718195,41.791978672181315,18.54641222191294,-4.682252580774489,-17.54078498659472,-27.777832766140886,-27.155481947324393,-22.250006553495147,-41.58911257595145,-64.56936499032963,-45.74605757747233,-11.012003370410028,-7.300580473201062,-19.765310937866868,-23.005045282964122,-14.280451139068363,5.716457825204966,14.691948012370368,0.013547351927769569,-4.575828388585553,12.123416416460515,19.76509358329271,13.504909399816054,4.370769653533304,-5.840840506813386,-3.1187578010376864,7.497437161423992,-5.6641584079234875,-29.210474105660097,-23.47128449406967,-2.912573107855085,-1.3126346485032876,-12.920011656144272,-19.73413981341846,-14.756330032679262,-3.2072285297687877,-5.841414125763528,-21.622322030510535,-22.110574000573056,-13.986445952923198,-23.904717149303874,-32.397541216575135,-12.450494308283615,14.082967087722114,11.623696496946522,-18.47876302271787,-40.12144321761416,-39.60972509992858,-38.98473953633149,-28.188567599626474,9.325246738724246,81.42113713309352,275.5004465718333,497.5638584069442,292.70069012089914,-354.1698671831177,-657.4797995980216,-311.52959797649675,9.427857613719121,-15.549142466358802,-13.079821196388323,76.45138366526079,45.461185757212924,0.5243667776832588,43.95427790025661,58.72696442129566,26.08627390722512,12.729768593502865,9.952751292852527,3.365702577090725,-1.2909970833724738,3.1240971551421337,20.81272818692043,18.681548254312887,-9.350921384262636,-11.978688544368481,10.060391852461947,20.36914440399245,24.44184022994561,15.99595534670085,-8.030872654606252,-0.8251884581304472,32.33033092148699,32.07977682137762,13.70050050522267,16.721279669009164,10.82848940480747,-18.997749282712164,-31.730361461856333,-22.10980061991596,-24.919885068728544,-38.95678476994896,-41.19515786640759,-37.305162323404204,-35.39692536836683,-27.803625859871936,-21.853024372403382,-18.62723912323318,-3.454070582562256,-1.2545122537658102,-26.073260977930822,-18.270327979108266,26.988902167099734,27.399870397963056,-10.00129512726243,-11.772677291294329,3.514647847703113,-1.5419854695155735,0.9028515259564598,10.268120445124975,-3.880453278273748,-21.861219394427795,-17.087605335973507,-2.639042325377737,4.317289974118355,-4.092390191004704,-19.848752005410446,-14.744429006972466,4.814486337363025,-0.4235063054370638,-14.219762043868029,3.537768991381949,17.587202717588827,-8.430099839362292,-23.681900535838896,1.0578502301939565,12.604285422317709,-10.752542044746374,-31.588226236811373,-30.581595146536117,-8.043381330554647,21.08774535118551,16.753291856510003,-17.24441096258623,-30.049934661429365,-23.92939378523627,-26.00266692525515,-13.475268154202432,12.1562882041857,0.92572709055381,-36.294053677679514,-40.116921759196416,-22.849009077802094,-35.13888544281789,-49.306659066210074,-27.965359374696884,7.291124642300687,137.6669498415158,415.30848085643953,466.87488626191316,-22.054021235885784,-533.2468812889663,-457.3102684709166,-107.83950562052067,1.8790389937448584,-13.403956641674487,34.59639880274429,46.59473428588947,14.939300640244621,19.050332921627017,28.349941224805775,20.361358915311445,15.968709344505315,7.278975190064,-3.9861110254343624,-5.954533364228195,-3.3357230766477777,4.586016807942972,12.032014578075726,6.449320741713022,0.765217564266754,9.625025739359705,19.390279875165014,15.737497961446262,8.726722070639305,12.534045210918329,16.457103520829264,7.081915902490797,5.1497200709510915,24.222890241121828,30.530965193029033,7.916029889098015,-8.111209597209077,-4.535924437027711,-10.7211792040653,-33.05597189039502,-44.378110573986646,-32.80015533528849,-20.75920999116827,-28.092817637589263,-35.20798963237905,-22.28617650616618,-10.308068690105774,-9.290030919289483,1.208507118842176,16.126436478412955,16.88382701262986,8.382594309477422,-1.7554043195768188,-5.485935338408133,1.5974454267917197,3.87922846788497,0.9822528293847199,0.8723705796916033,-13.14246032242744,-25.654204533915582,-5.810010905317679,7.93486216491268,-8.904457705694254,-12.132158191284724,-4.413417893228804,-15.824937477916446,-18.28556313974439,-7.89690458865304,-15.541080428836445,-18.350956654041475,-1.5089743252765473,-0.2999844786808019,-9.295516074298545,1.5280375126456462,11.30474086690646,-4.1114516809969786,-22.364529875097517,-17.11585575003341,0.5545907714379794,3.499621979527639,-4.860305591764146,-3.4085080684235685,0.08194604315247389,-7.517855285974402,-14.126235067256275,-17.940359256722147,-29.23835794371331,-35.659599402274345,