ECG,-6.866514741786375,5.931911328924987,6.501003161017201,4.669087390885251,8.924779354096952,6.928765172253857,-3.693451668581856,-5.132736608654392,0.38310815700791245,-3.679064090152103,-7.8592688816286564,-1.6474109216918613,-2.1402188522948045,-14.417134263748878,-18.12683887213157,-10.88597179861912,-10.964680132696078,-18.324661089006803,-17.138192698869272,-10.93379008566091,-15.531624936808427,-23.672264746051436,-20.584446879446205,-15.558701438590028,-14.735145603648306,-6.473756410840601,6.624748605771777,19.426221581590404,37.95590352727139,42.665949994656216,15.48108951797217,-11.071496835704398,-17.03353772757552,-29.20858621668851,-42.52816042346518,-25.70727172272406,-2.6941254116921627,-6.350154083589711,-4.842872533902904,39.55967126644936,162.2794212411439,415.7208122582933,622.2144479512954,363.8440246400458,-309.0905001004842,-720.5475954008556,-627.8280911807906,-501.65509344177394,-461.95817616502626,-189.60553347780038,167.10254123294277,240.5610316399774,160.5505285755009,159.9586010330026,154.75034616640403,94.47182450300866,66.00094077250621,57.3341688589847,28.65105338415225,10.361969240215643,3.5896537141746814,-11.052460066263606,-20.769716887345165,-26.196468964761525,-32.94813633509368,-26.308755531813677,-15.371480265297475,-17.438028648699547,-16.278394840369764,-5.267912801116603,2.0176233753441366,15.549856647207989,43.14778276632111,63.67658088782632,69.61181343814823,77.46804580002768,94.79483947366319,114.53986501751073,125.17831641571723,114.49055597557039,72.5562086798563,5.734934178068352,-51.70979933507007,-77.43044224302051,-92.03095267658159,-104.27769029350111,-97.30187051626437,-87.33546956845564,-89.9821720713703,-74.26957017453415,-38.52727014117733,-23.96857279175972,-25.30854301659582,-11.426911057577357,3.2342920181755375,0.7474264936576205,1.1194494388210607,12.750973280389347,13.954589512351003,3.435379119838739,2.2698793754207642,4.011461652150199,-7.068607791206606,-13.821261895881605,-8.820105552561184,-14.021384470134493,-24.168563641020686,-20.741693096631785,-18.900047993401582,-25.224857254811823,-20.554346236201273,-10.716440510698437,-11.512649258883844,-8.451328075834446,10.398282833181723,29.928907367625147,35.48253865015498,24.136347865417,3.499818801334901,-9.026782192429355,-17.130721886290548,-40.22315740782452,-58.32138433900144,-45.10256278215069,-21.25271315852883,3.7126566965839007,42.0700419698367,123.64740289285048,352.319900262481,642.75908637501,527.6376362308483,-124.9973102855381,-665.1996950393867,-676.4973212419875,-557.8909552508487,-548.8297523841927,-360.4002310829268,7.710015905795785,211.64149097623795,207.2869268071015,183.65457188109662,177.78029376034863,144.3845947376434,103.64317937493736,82.654360073732,69.23055493117431,42.80692461440698,4.978306561173156,-19.609751541318673,-14.853835905170683,0.1426288804059812,-3.54163359231144,-19.725694948416148,-23.43496822168109,-16.373514833561202,-8.933481683422063,3.8108391126895675,13.643884415126582,11.312809926515556,19.492390164377564,47.79748913514176,72.13029872153967,87.7788002866117,101.91505356568905,104.0080805108922,98.81145315283538,91.62440945244977,56.60350011875032,0.46659877375875114,-34.96295063666193,-64.45037833038523,-113.58021037131746,-130.6693014304413,-87.87719336048485,-54.14106948337442,-65.94496570409797,-74.51654084527402,-57.25974626124776,-39.45437869769141,-25.618549933330755,-6.2925972013906915,10.669459053868287,13.605033876035463,5.814550176239049,6.386287466855677,17.347230380387817,11.297558785412797,-9.08342849096168,-10.859382159329824,-4.990423484455828,-15.038613754123897,-20.48610210150658,-15.568647118005206,-22.148909198661407,-29.72070938749051,-24.753567826199905,-22.946232399356905,-23.91531877805183,-14.629350331974793,-0.6062504540805644,15.046433495018178,30.23178348069294,26.49965419969456,1.867482988246953,-17.780744336770315,-22.482074416268535,-28.846556329717686,-41.48729551546678,-42.69535774029206,-24.772947161684808,0.8894050474539306,21.899993354719456,56.95977164439577,215.26305775008038,550.6215984227322,715.8114146306423,257.2178067057006,-521.7244681199426,-838.4230325273817,-661.6490087435036,-527.6637224374076,-414.2891665508928,-60.17178335008965,248.51808833113608,244.08485126975995,168.0119105319837,182.98277150207508,165.56682131884588,110.69676351510115,90.5380941576048,61.622726068696906,18.656147908483746,12.63555419632842,5.059557035460066,-36.218152329229866,-55.03106490900351,-43.441528354047044,-45.90416592509038,-46.45293413797585,-28.268861764837336,-20.64095812774321,-14.745920056435706,9.371553018898009,26.577563310962887,38.59496864502002,66.29087569008875,85.48199110648758,91.52225016603177,109.06851277459292,117.38379573721177,106.0104463172467,103.60594072418439,85.69615854376097,21.302392279576793,-39.35838120772618,-64.64496553431715,-89.31425000290483,-112.43185994015838,-105.66585399580929,-86.45476391454667,-75.94857389153026,-63.86126782901691,-47.67564819210403,-34.81624025276912,-22.946293733718463,-11.12383314114821,-2.206043413177955,3.3610888491644424,5.02114574216273,7.1807732908214135,13.127911888531756,12.498617694490907,2.33295653083243,-1.4131540386664927,3.4447499935540495,2.238489411898888,-4.534630876453093,-10.98143947351221,-21.1035925687906,-26.725209344080792,-21.12519055545057,-23.53719584402174,-32.49487825727693,-15.351667797738674,19.326851286701867,33.07705855207358,26.580867098933812,11.575010790185367,-12.514700649008576,-24.05024092924886,-15.936641660033551,-13.774799791566405,-11.246861049775994,5.4576062995877095,17.775241191061575,28.713668079510303,62.12358626244733,182.48223136391505,461.03010425483916,640.205325704605,261.4720917024761,-464.49197691902407,-790.9850927004409,-661.2579225366327,-571.702222470996,-464.4758100295664,-92.09597996791507,223.0490740932508,219.4114022325042,149.60946593909108,167.985794390889,157.14348187078156,111.53524362365124,94.96196486609813,77.05733045089404,44.68625768653099,28.753831989512403,18.48447683256356,-10.362097532538927,-40.656698330099694,-44.500345948558405,-31.33169333150324,-29.402525051800257,-35.615498451515194,-28.567769300173424,-12.376012617217691,-0.5321081247783255,13.400240013505258,33.42077193316284,49.142298766999446,63.8089469209026,86.86243565501914,104.71506583577158,107.36249959634304,107.48514672749073,102.23078324878779,75.17994591062516,31.415513341465022,-18.577319433765478,-68.14387695985215,-97.98848845016016,-101.61692138250933,-97.19335086236198,-90.32668116303694,-71.86377150506011,-45.929541982475484,-27.510960702206877,-22.585693761562283,-18.84625033381585,-5.178889796722256,6.734477860588555,8.742695042229588,11.47855771498784,10.86210252156199,-1.5696559132183303,-6.565628285230985,5.179359124090546,11.755917062429013,4.811485320124577,-5.5649642060349525,-18.919939611846033,-32.036856841942345,-31.41043435523941,-17.07147785504076,-5.179657075801755,-4.887109716093093,-9.908316519751015,-10.782254541406457,-1.0430593630083336,21.97977276384447,46.63561904760928,53.34410918869219,36.41334298168372,3.012408984663662,-30.847892568511135,-43.911791132185684,-34.878585670150926,-20.246243586250703,-6.478636751362757,5.80143819307219,14.707005858000612,49.413490816191924,203.93108230464424,494.66418290636403,597.029341875747,143.1116379375622,-543.1629641963599,-772.4255332825221,-593.6261059152488,-509.71206824858825,-429.6875687792015,-84.67937194983986,221.78678522960553,223.0415888549421,154.52299423521356,172.33764240131686,158.87929256027775,101.86703927658331,74.99258671450127,59.05495588619322,34.064461800928505,19.43239771980374,6.829266841572519,-13.230854914387354,-25.874582967988257,-27.179929610906967,-27.565189992775757,-29.11806236267267,-24.249285711954695,-11.6608593156819,-2.265615859624237,1.3611474219645388,12.046121684566643,31.606183272009226,49.252149862196305,66.08944394894773,85.92475430421688,98.14235257580063,97.75794204058235,97.18304674308072,99.11559053600101,82.8953255223665,35.172446363772586,-24.237728641209053,-66.57406834519176,-88.55362978416937,-100.57871142364408,-101.0118715705556,-87.22848480930952,-70.2638894601823,-58.2223240139814,-44.86812415196839,-24.953634973343895,-4.336597544283407,8.719735826852554,11.5056178360019,9.317601274017482,13.900496238309263,24.791096762509177,21.418924940928786,3.191030171628025,0.7902124176104657,12.201988530942147,1.9586525919339053,-19.845165269155288,-19.10694527239124,-8.656555611441856,-7.266653283135055,-5.060075205215092,-6.13828125739456,-14.732742569367112,-13.410582462309065,-7.529444323220243,-11.210946223826923,-8.00288964102643,3.133876508493252,2.44694918420476,2.5913981052322574,11.684610062983321,2.6310392448433406,-19.020955609017406,-21.618210283907427,-22.500710171276452,-44.53031907534333,-51.995089981735724,-22.49742863308339,5.649846679911569,15.334086399790895,35.13885355350176,99.2371049374506,279.7304988335102,552.5588742455232,562.6024470666438,35.16399905321245,-590.6629634100487,-727.3784842604081,-567.2244155838378,-518.1668421418998,-385.97499426455835,-9.68130019722308,243.3476567454959,205.20943821357938,144.4291943616736,158.91049485878693,139.68850784176686,105.90721409361885,94.0760561624187,57.163836037386105,12.385353761264088,7.441460456305707,11.409565495736327,-8.248491840875275,-27.275907887224115,-27.850576573940188,-25.18742271668609,-32.91902695826745,-41.601955547578825,-28.49211358483535,6.205166905523118,27.1381867618255,19.492906617731904,18.142653804791316,41.977614321410236,65.08550652771328,78.69549954850538,96.35822072066664,105.84153122257447,96.4408529564676,85.1114968933271,71.01752354971771,38.164835561723365,-3.480300999649849,-41.23569107140372,-76.12084545231392,-97.15017104267905,-94.89543902573905,-78.88490938489943,-58.96152339084655,-46.390958361544634,-48.26314168743063,-42.79317338833353,-15.59668970069243,6.079520969326785,11.060747462394538,22.086120080951552,27.378616757620478,0.9730467884273537,-23.17803389861223,-9.048047683973094,11.668159927383307,9.780264823051645,-0.19214270714806148,-13.898965432119885,-29.26016480202366,-24.869338480950756,-11.030481000750857,-17.752953240414204,-30.493901966488302,-24.933989876800524,-13.522617598961101,-8.338418442368363,-5.662460732801707,-3.363156058003165,8.22073195047328,30.86424021076446,39.74234195537681,25.144979331657304,7.78784753709231,-3.460714886545058,-14.856478722866836,-27.9552490642622,-40.94364329873187,-41.90002018894501,-26.260140283666928,-13.040178088563096,1.304498008078017,41.914052495119456,138.0789884117935,354.4358854252517,585.9129194770215,425.83194329279434,-205.3465707479822,-686.9802519784478,-651.1961164221583,-511.5351800733659,-478.79097020973126,-240.55219932906124,135.5468417438554,252.43090996619154,168.38398808503317,149.88740468415452,156.53663621484006,109.4499787009714,78.44566342268308,71.19638475579626,49.40896894768249,30.887209958288977,17.485849386982053,-4.386523329470893,-20.238955339993883,-29.870209908978165,-39.936602629734494,-39.83318388800294,-37.41293455360169,-40.135407451735176,-29.790723442205472,-9.430621070753766,6.0105119407467775,26.418001101206166,46.84943094617128,52.94145724282101,64.27157989519867,88.25830143963327,104.3570707164212,116.25082607103576,121.89364818759208,91.49217898685612,36.35820187065863,-2.4382212967655006,-25.67294183488457,-52.823423023735664,-83.17438623753836,-107.74134599314624,-112.64462485654607,-94.14140589274672,-72.70056590374645,-56.72775366597533,-34.27582803380862,-12.648266789633595,-7.379380009416543,-8.606006072674028,-1.8942746163503408,8.952413293969027,15.836846741273787,14.01402320172555,1.9824238139611001,-8.904664299724713,-4.710849185618855,5.872219568460844,3.783326535937796,-8.715169792608313,-15.984403599701169,-13.177357526827635,-6.028614504885164,-5.729713045836371,-18.084976798435314,-26.546105901358906,-16.482727799717118,-6.489979737054103,-10.659220005651575,-5.502684571660119,21.86226421360424,44.212555051522344,39.519142502378955,15.406894853985833,-11.148723935226547,-23.98578721060889,-22.005072366630067,-25.42269055809877,-35.824676983094335,-31.075871907196856,-10.877392907174416,12.83688174232167,38.61737359480667,97.31922552647681,290.4133138038925,574.4026823656835,547.2030341892888,-5.04782575277784,-572.3427757330404,-661.4463612254714,-535.4506808468042,-519.2223476429251,-406.6453986543158,-77.27103515569192,181.00925364890662,211.80659508916506,169.04540167714123,157.87331468647892,140.3540921809739,108.83414189735555,93.11302928772275,75.74658682997985,41.89754611502996,20.874274974630772,10.248390733357603,-16.9444980173747,-37.93693379643227,-33.17794223539484,-27.927807892205855,-26.054077463155412,-18.713972096866794,-21.774089196936707,-25.875777349391335,-5.932819782966121,19.54383278735893,31.79049908204767,48.10299152548952,71.10765082309044,85.58085840918321,93.98474097915984,99.81264645059625,97.55001830391517,87.62383502261564,63.335581393737826,15.045100482541404,-37.54651832176534,-67.64048098344782,-83.17968982610113,-98.12781512996794,-99.98977010184814,-84.51994850419314,-71.0576802819613,-63.09579839682247,-46.7891205484546,-24.20927189780577,-6.834701982363342,1.1451358522828627,0.050174156102286815,0.22274571416715716,11.383120991280137,19.96883124225873,13.009361806218907,3.5170848648457067,2.745235200307162,4.391130766924011,3.9850196932052118,2.8021243638551816,2.040169682215355,2.6694310919732445,1.4901651816995773,-4.3044718549847065,-13.414435565871527,-28.163243446259372,-44.11672710277343,-42.572075900409814,-19.31259265576346,7.36477715454291,24.412998745845627,25.436287954789737,7.814261215371964,-12.417073113046698,-25.178222577925155,-41.13734405806301,-46.38722368203844,-23.1016095989107,-6.394614282196841,-10.287261761064705,6.992055400736792,49.1788211469358,163.2787494877333,458.8429166290105,707.9152467052995,414.5417274228655,-308.04295597204134,-733.3513992919018,-664.9742963145718,-551.5436338796602,-490.0573749418752,-226.4052691576391,118.649124314702,240.07518324709156,181.36723273364873,138.0108060751558,130.46225573747864,108.85398423049753,80.78805955039496,58.82055975261197,35.06966886275732,11.911344331855586,-3.0165748088770035,-14.32660484125848,-24.35523943719952,-26.67552070452394,-26.387853304485922,-31.655331140229066,-32.41853597997651,-22.970022728199964,-12.063804836045042,3.324781264655911,25.47453720759085,41.78198852079212,55.91991081072537,77.31025693004588,92.98805047185817,100.98621567995362,111.95984638849569,113.311015605071,97.75014622275522,74.3502732497789,34.14627399740009,-18.5594379178992,-52.95489136044475,-71.42943327827017,-92.886192109843,-102.46086193392813,-89.88675370529198,-72.09354501753526,-60.83723012264519,-57.530581312825156,-53.75804756034434,-37.55768340598406,-20.10525542795776,-13.584185684837273,-3.392283268784098,12.357818965034035,14.61799980198442,7.2100244518990095,5.016238642169094,5.226510338790911,5.333520195094801,4.664646794903807,-3.9909937758518463,-12.714843505594688,-10.623788034968314,-10.706941864087934,-16.235120168420032,-13.181304439095316,-14.12538487521385,-26.332776391161524,-14.693724655878054,24.2116470698887,42.93515025070838,31.65410907860628,15.400936830002816,-3.483929819078898,-20.85092407122547,-27.486784423590414,-34.53715514246214,-35.256611241162055,-15.97756591477453,-3.9059289046433463,-10.416090591766928,9.57317976654987,143.61507854015136,461.79464551085016,731.2682953045196,451.94916632498234,-318.1347510048194,-805.9215748735804,-721.5284786398412,-565.1999236353919,-490.48020268862575,-201.04183142041467,156.43380922293306,236.50272928957597,159.00019513418638,148.42867178027166,154.3456587912789,121.69161723909676,92.77431930188794,66.69539703500112,35.09395190998673,16.437448603818428,5.637163024500749,-7.121116393172252,-16.179600679066187,-21.40210552841299,-25.211838950852297,-28.13092978038991,-31.00893740719201,-26.915220211007053,-11.182532648174544,7.424792499215258,22.270558519744476,35.8477717631723,50.42580837569481,67.30273466037187,85.62926329102378,99.98841799872905,107.70141580563015,108.5182235847284,96.65479806538133,67.2738151209977,24.716256862434435,-23.539189388480555,-68.61797658095296,-97.70977216238819,-107.34617233474324,-107.50836240815491,-98.81719703646047,-75.60929320967749,-53.04241647184398,-43.780188520260765,-30.119526223902582,-6.373470265532543,4.476901974811053,1.2510013204246775,3.761407118887316,12.301175922030822,17.123596231027502,13.937247670103162,2.763397696119087,-4.833529411106669,-3.8922691113580967,-6.16682925638186,-9.2501305903106,-4.8050197196846725,-2.5304992524281538,-3.438455044054324,-2.8239009503737886,-12.42885509665848,-23.063766013176306,-8.320351289361069,19.59151959748425,36.0268799052555,38.137217549075366,14.616687865064135,-30.47788429459684,-55.21877624920788,-52.046271147522376,-48.71356172586417,-37.74620640423301,-14.050105875203489,-1.5086962437179068,8.414285967898973,53.8984471228038,210.1224214748854,517.1464810886526,671.077536087935,236.53326938955786,-508.86852672728844,-802.5344366603042,-623.9537894043469,-509.33104927423307,-415.1649035612584,-68.01587580705379,238.84942414445626,236.66584680226845,163.68436243609256,171.05731777209752,138.95247614595206,75.59207903876825,60.59497189917637,50.52086091170212,17.546567119646852,-1.8161242304953822,-6.740388284066995,-13.641734537244009,-23.276303537003475,-35.618539678714036,-40.77204057436805,-35.0500171696429,-30.03652902103257,-18.778865432517907,2.6297358492168037,13.477588855354423,22.615623763665386,52.236048921844386,75.91054459435898,79.28796271079145,96.0405785585315,120.72671806849185,119.31469514743449,106.68044421439774,94.10049340032276,55.26326937414187,-1.4361476083022824,-45.69355842394177,-82.56957946327793,-112.61222169148597,-114.61246973664501,-94.61076615568828,-76.90181388240724,-67.16261952555455,-59.7380872113185,-46.40229457753962,-22.436950332556417,-1.557949505037147,2.3113354697378234,-0.30110929340614945,4.459563382745696,14.015903123086275,22.199708200401492,24.25316150739248,19.100377560127423,14.992546528935666,9.783753448531204,-7.216704800389714,-20.96301796801378,-15.592277079855435,-8.833351602441216,-7.855124053993292,-2.047420899060427,-8.476932103236933,-31.534632373226046,-33.30426643920879,-13.877288308064177,-15.158053963226227,-29.368154853106986,-20.18972352904511,4.155819107017353,23.82888119199226,39.87934828857825,41.23490444396633,16.312905956928613,-16.93057654132088,-40.735886327681555,-54.12699296566118,-53.57696968456466,-40.65581759685459,-26.68663812352413,-12.954429742764127,4.358123695029674,44.320965573796,194.92159282811747,500.5637207257146,675.2515065798673,300.7446201935719,-426.85336911657475,-792.101920374683,-658.7632529832863,-513.7363330620715,-409.90914470634783,-81.12308876467222,235.58602772177812,233.79563747333333,135.0303215348404,150.6568709193803,157.08946978528596,103.6380628506742,67.47620649105605,43.30476890556655,18.055784878877063,9.81658505545252,-0.1792022741649184,-15.318004633173542,-17.84483718746671,-24.753995914919862,-39.28619121103014,-36.599598041942784,-27.12154235218209,-25.390808797791053,-9.412109396147079,17.419716302402144,23.56495975539716,22.293893845076475,43.681066965817564,71.34524025913507,85.15357146151281,96.34330315234513,102.4575045302094,91.04550614190472,79.49679905879808,73.25742633500634,40.722666126087724,-16.312041985885987,-56.88654361697707,-75.35607505043707,-88.86031320085397,-88.64725892078822,-68.11216928305231,-45.19579751450933,-38.674107861324245,-48.25676485026254,-48.33012396058024,-22.152845451598495,3.4913464504652154,5.916192389017979,2.6142453491219015,4.531895094459397,1.0746013128833312,-8.66000911930265,-16.645272991193366,-15.7506808573033,-6.209416925205595,-3.894834019716267,-15.808480561331116,-24.26966359649073,-18.830605158491956,-9.405240032793671,-4.223491813870773,-3.850778268364497,-7.212507387162706,-10.374122374356656,-8.706640807019982,-2.8845854733091727,2.105215287379039,3.671027576885379,3.0727471829530906,2.7557659905624483,5.163358857822379,6.980800481646155,0.3939968276807857,-11.358211812329706,-17.111165185780962,-17.093966541991392,-17.093170091680207,-14.809749220602498,-9.285859957369802,-7.128266354863582,-10.439939019087618,-13.189854727529124,-13.187136681135827,-13.245960362444583,-11.208606312036293,-8.403229596028062,-13.48613098715019,-17.166023983434805,-3.2954622537981937,10.797419737231637,8.306809947691384,14.505445326049788,37.96754473677318,40.820487425689635,12.421705663331219,-12.377774065688875,-19.748792391616334,-28.464587777067845,-42.99293237464548,-45.70691225427065,-33.79257969577164,-22.704340297893424,-7.7906775001639215,24.804347114082795,90.10191670268095,261.97768035557505,525.9504633381389,547.3987252257778,72.93978426313308,-494.7060638514884,-627.4186245310011,-496.0305734979074,-475.8932140968195,-408.66023679180506,-99.98149124793613,177.9605058372889,204.34908346879945,142.01808895181478,135.72106525252696,127.19782818917983,86.1898925632417,61.06298796866393,53.04368883870701,32.144871189455486,7.48323809981047,-4.8048088558481385,-13.248300190124656,-20.903485364212194,-22.073960973606557,-21.28441109524919,-21.57134047007928,-20.120732121798333,-16.69687177000693,-7.977719505681131,5.129370701505877,13.793925994190818,22.19229436262716,36.96941431519329,45.77488047873057,44.96407488561836,50.65794982364416,65.38881857162343,78.06761105602888,84.10894895289387,78.78657998899071,56.71979504429986,22.182567165696348,-13.557867354572366,-40.9780403080106,-61.68633840820394,-79.95160648087283,-85.52752332082707,-74.18686212981102,-60.902955623481276,-46.935812935044865,-24.892160672042174,-9.476899086099529,-7.567502212344916,-2.9786873641121083,3.4570641162514733,2.1981958201307883,3.686540080984291,10.790556515780295,10.65682143425213,2.6640947856055117,-6.824617907923166,-11.703677058825,-3.8025779279525107,4.874750926440527,-4.5776649474277935,-16.07989194357189,-8.979828138147077,0.21913438670354424,-3.2645394141742656,-6.01033181524129,-1.9062918899740353,-0.7265376156671266,-3.0668253001120522,-1.6356695362101563,5.061030564108124,11.297746458684372,5.989360788003381,-13.25170198430743,-27.324232600528653,-22.67245517201565,-14.686041420589062,-14.850278926022696,-14.51169052840092,-18.244984637920226,-33.349694253106556,-35.57508421948664,-6.761060700504025,29.321774710847865,43.93986314851091,29.29717766665233,-6.14300632178261,-36.13049025553872,-44.61609367003204,-45.06302858215833,-41.82429139945763,-27.406109172616006,-12.039919783164667,1.005869268417154,28.620577498051873,125.33723729859376,378.95892949601466,647.5611970942014,483.3461983306405,-175.40142765428567,-685.0443355395184,-674.0468303857235,-541.065756578118,-510.4593241478164,-298.71353128167806,68.7946109535392,231.93514840133042,184.89800969427236,157.50157347497571,163.72046810800745,133.98353230315865,99.17540524457502,80.26592426619605,57.43022089481644,30.83578030531286,8.004167026671832,-8.13552034461879,-14.51760511951899,-19.470008441507893,-29.02246878856055,-33.348279099264275,-28.66621635252063,-20.48744460773195,-6.829565263917271,7.988806521288705,11.835974799753778,17.02950398256337,40.3808372232686,60.79869044684378,62.97523527592172,73.93351569059023,100.52979452723773,111.7327407770484,103.58450055546507,93.16692810560404,70.09557557106008,24.48489676556276,-23.588538710159796,-59.17402454978097,-88.13524102372341,-108.85088934937917,-108.3116660405363,-88.82784025161364,-69.81895095200453,-58.994146386298034,-46.21595075764989,-26.34686351868709,-3.811677915188156,13.901304427807249,12.445304048265761,-8.145389597055228,-15.678706531679959,4.356382331978239,19.86018585008538,15.008949798810647,11.692062401642156,11.64720251440266,0.5105626139812642,-10.578492340007271,-10.8652766563381,-8.431635098395676,-5.613341866051346,-7.349708356890865,-23.449412569849134,-37.27971592961474,-27.561776748703817,-10.101568048427247,-7.45894837070097,-13.55945373459727,-17.891459273165808,-22.12339379885032,-22.236355861401062,-12.661976916286811,-5.930480864109093,-13.107977043385134,-20.576505906990743,-18.067872603996246,-15.14474154302917,-11.311203248560147,1.6615970468995696,16.32914791384461,27.98849375642679,36.609109991669854,26.85214021071262,0.017259989224293726,-15.9376382039781,-21.81697119741594,-36.408781449857116,-43.37634641127931,-29.570108891066766,-14.888092892673022,-2.088102712327851,27.25404094389225,121.84840376710233,366.4140945997205,630.8303002363203,484.044822694657,-152.11636636813148,-665.7133526711145,-669.5965199305208,-533.5859907370226,-496.4077424030485,-283.8413800351763,89.7799480732346,248.2449224605339,178.14682641742579,137.98959715557055,145.73369624174558,114.35630873347122,82.12266968402835,71.12783542780775,48.396577450095506,25.585600532081493,18.003670148998246,8.98444044149457,0.2542699299769833,-0.5076393168572064,-5.0484287468641185,-12.483457542300537,-14.812434682808266,-21.92806261150787,-33.07987692805279,-29.385265725594746,-8.771296662998848,15.8751150099163,36.89673104696256,49.951846563076735,55.24214758858389,59.164773697025375,67.27032478830728,80.90359450032629,92.91728138905023,89.98142923100878,64.52648987325979,20.464878241168204,-23.83685283112727,-48.965281179941876,-61.8846975306372,-80.33832142484542,-95.60035571860193,-87.26041812125955,-60.4756468629004,-44.25983591488032,-50.568964957851726,-50.49078590195383,-25.439127441761343,-6.60830044824619,-9.25558553899302,-2.465023107144848,17.008121794757304,20.341161267860265,9.769130356750093,1.2546442703003393,-6.218206515228996,-7.282653950950916,0.3122652925168694,-0.4858692760399883,-9.996611791260424,-9.801033354903613,-3.569396984366122,-6.15169296206286,-12.471592789855954,-12.337175063917904,-8.406471845713611,-7.683132323797464,-12.528184870009982,-16.096471005917422,-6.5912635747874955,11.176576317185798,11.646009862490947,-14.154215990146865,-37.64220601935145,-35.12147541014805,-22.32921174570167,-17.04330292150076,-5.791005594342504,21.876136651136303,43.28317334100123,33.41034965516496,4.098002448077486,-12.95525575365684,-16.633368289887873,-28.117908673897933,-37.39439421646999,-26.66298753290197,-14.753318408488813,-8.100176229006722,15.695784796299709,86.6043905821273,292.01227432157424,606.2163563197435,632.1048470566207,83.21400957977717,-568.3204269227427,-729.2457867083592,-591.0175687186269,-541.0431380005153,-407.9784480358443,-48.87586189213846,218.93751289610884,228.50335674458324,177.0599394204842,162.91330488765811,128.15648209558265,88.43878506527467,72.58439239474174,51.73694385292503,23.540306995179165,7.1392274225263,-4.092342538769429,-15.747015044484876,-24.391744599485083,-30.305562073813142,-26.136584931417357,-13.091663883596869,-10.472373173423577,-15.140399862800631,-8.550858753050507,0.7747488002774183,10.928025692293893,42.36657879507291,75.77673653238082,78.90901559448504,78.71725781902248,95.95903864869553,98.80815753040174,87.46954902915257,86.20587928780455,67.62614532117979,15.632745521992506,-29.289614989012364,-53.71563514710222,-78.24356895933842,-95.6886874335134,-93.3904930599873,-81.208469332095,-71.62607413130814,-69.92894468887528,-62.85530637304475,-33.78572610838511,-6.014938538416111,-6.9736324666229805,-13.75864565265082,-2.737552156209471,10.01349227654201,11.705824056393798,7.650477544072272,3.0564255413088155,5.940525704089129,12.5450239054083,4.088444964248186,-10.453829366986918,-6.863525549124596,-1.9053538647415529,-15.87639166698862,-22.327281755372823,-9.090818668849888,-5.098794968303867,-11.032185392488131,-7.962773765867102,-11.542628640474359,-26.954214489314662,-27.2201690138907,-16.32255419107365,-15.102150938151704,-10.058007799306441,9.360218415821846,28.43617174610928,37.77092339480213,32.629799356405215,15.82470557950533,-1.7086832542312638,-29.061965319992996,-60.89878721334685,-56.85056753545056,-24.080198121307816,-3.868670194518028,12.591690808072352,46.56820767871622,167.40404021502457,484.53002045129045,756.0025757421017,437.9873277022806,-373.44315483715775,-857.4287719457857,-752.0296692194403,-578.9214166578392,-473.8334658716313,-151.19298560629434,203.22272138608673,246.15003420949392,150.4169180100445,155.1721883372484,160.9709543124743,109.79375779307225,90.26428615880673,81.66841581901862,39.097061702837145,16.4701956625335,22.432602028380735,7.151586506110382,-19.72988296134878,-33.4890390765865,-45.82503194964698,-50.910447260012525,-36.23818041927907,-18.597589234860777,-7.192997019166203,7.256599298763263,25.904655906733048,45.598355172752164,64.16512745639898,78.62705310654961,90.33806546061831,100.36018132494803,106.77975199284559,103.91906405185735,84.12806979452048,54.78667443029056,23.489664923394354,-23.521569940330796,-76.88381594364303,-100.44323919483344,-101.39821244012029,-104.56208379587201,-94.09244466660877,-70.67164993939318,-62.58016146395918,-53.47664001602166,-24.805887949078887,-9.801829434792964,-14.694728171911983,-4.677359681192449,12.745001949042361,10.800522412421145,3.5507299662343055,8.16961109952042,15.177927533503386,14.871053781194073,10.789086561149361,14.626449966690675,23.618739256866093,12.946685845062,-14.657158943828168,-23.90322887855359,-15.324593848828307,-14.362920894349376,-15.247390419824907,-15.805841704076215,-32.661560583125116,-46.862966936557726,-34.9388210984793,-22.039692902808802,-23.131779345907827,-17.229065427057673,-3.4607666937579165,10.288346099011523,28.617123901733173,32.92659420680407,10.679278648379709,-10.025922402861173,-21.78190799320673,-41.116229441955,-48.290332769950936,-27.53910161647176,-5.306894242079206,6.570678186759146,21.660602078255057,83.6947591369201,303.3547700691639,634.5683602452982,638.625193973681,26.27744589043732,-679.4474639157374,-829.975488126312,-630.4339272405704,-509.566837447804,-302.75935786043016,80.00517642075013,264.5446720702719,183.69386771159094,140.6274897741033,160.51593089438504,121.98031017481492,89.09543416707109,88.51658299754702,55.57777705204066,18.398587883147826,11.502924424328993,0.5445255092411507,-14.37803193355873,-15.247073565302221,-22.336216280188786,-37.07960393541187,-35.77289320454405,-23.90114976427512,-15.222298258878594,-0.17341211484480112,23.3005583726792,38.06320580666036,41.16925421915262,50.07964035222436,71.87306120100139,93.17161577964305,104.54283767550716,110.11243782261806,108.071112834899,89.93223177856481,57.73075847733308,18.211913314401674,-26.590716032192237,-73.4551256842429,-112.93930770772344,-125.6336019846228,-102.62637649012169,-72.51842607774532,-59.551211678166354,-46.77286979432205,-29.363509493968564,-24.908202496714868,-20.655346707026496,-3.6918788095679034,5.402165821696318,2.1715650522688037,-0.7458763590318753,-6.345320286296747,-8.652228489757665,-0.9755367667175676,-2.5591083099073337,-14.17713856867677,-10.24782529628473,5.1110320300420735,7.672918400870913,-4.2739839742052474,-17.719856186113034,-23.089248270980182,-21.085425446843363,-19.870100367323044,-19.25280240485872,-16.239392479943135,-15.577076835728601,-16.25992429250676,-16.91321750955234,-23.099707910460836,-21.182828306529423,7.383915439703445,38.46693733236043,34.51591884342869,4.239450449299607,-18.562867051724503,-26.750022465549478,-33.87037741641617,-39.128123907756134,-33.033506748633286,-21.061117158828317,-3.5611100880715583,32.0075914739297,103.26796404398216,284.27159607145245,569.8654887840374,599.3286470928667,57.80990061388377,-608.8598307873405,-757.0553412783379,-577.1701113661354,-508.00747826049843,-347.3070795797138,47.810915149804345,266.2594920458573,179.76617636279633,119.42301666169729,153.271580764877,128.63076709148345,84.76321572592956,81.20570063243413,62.1991128722175,25.47228560283208,5.835213416514611,-8.996183475671433,-19.79162160266081,-12.760245944627293,-5.8390936650869225,-13.643035640126634,-19.832428486089842,-13.66050793824952,-3.749333845132874,6.836012741878232,17.692300966148263,19.860355877633324,19.55365596185206,35.64820227125726,64.34931794573384,88.16116540784739,98.92094172582063,94.62645842553901,83.17507353280732,73.49357556789766,56.84833420651649,20.188164912989848,-35.92727251264507,-87.98674553553141,-104.99771138835345,-98.80005788409827,-98.5195662004852,-86.30272731047944,-55.97484034014483,-46.81556904647043,-52.766625270729534,-38.18746604594109,-20.383605965685305,-17.292756917048457,-10.12951585355874,1.8375100011624,6.966758879016098,9.771505616142248,13.11954459235696,14.720741840115394,11.748667998352474,6.122887659724231,9.797745984392861,13.388596519829731,-3.6608793567723517,-16.207208954416746,-1.8128545370931128,-0.609921699502884,-27.675395333449096,-34.57373442870099,-15.632286592639296,-14.08354822274578,-24.74382771227142,-16.789351562774943,-0.8524400266831238,11.80610139321702,32.05223688370351,40.324126143146486,11.719921829000654,-20.23204959077415,-22.90050694962367,-26.713313719185535,-46.07619463790486,-41.616624454857686,-10.862638470014392,7.764693135451804,14.103412494708145,52.9145020265418,217.14826905192498,514.2465320567782,593.042769506132,104.78389135444901,-551.4363118392573,-718.6216553211431,-559.5509381126585,-534.3240793503184,-431.50327199305264,-32.734267014524725,259.0176465499725,226.2140795174417,167.5743867952673,196.72255927762237,162.8167244156945,86.55107308631784,64.58022490546371,64.6146794966693,48.197501092269455,23.354494911501853,-10.751501134458557,-34.322292001080214,-26.9488389009612,-20.2883597494683,-32.57372121980483,-33.907195899419506,-24.68580699744294,-29.037510737242123,-25.025129458769793,7.438372809707353,36.197699151219226,39.87540715756774,35.96899340442456,42.198408894542226,66.309381547606,96.78461933188944,109.46066206954237,110.27961513024658,107.57707902225928,74.72963297012866,15.20995240945622,-31.24994562129766,-65.28610926888577,-95.92105454657377,-101.24314642216575,-90.28555522005382,-87.93416054151824,-77.32647298374935,-50.92336522360306,-32.05484731722028,-21.477177559772258,-9.40104364663165,0.2634716294808115,11.289693275019378,22.692863305579532,19.854127182439207,7.1693684531630755,0.19053584801891787,-4.015096996543759,-10.803071743941778,-13.380321795292597,-9.637168059506891,-7.662518734171364,-13.25692951357474,-23.28730938457385,-29.089554965274576,-23.70720185051161,-9.40616311274235,0.4266143668990239,-3.8429187302654597,-11.154471134676584,-4.673521596811713,15.355310584731805,39.32409248038443,50.5612993489312,26.224861303009874,-18.20899608320199,-35.80927687772382,-31.838326236516846,-38.424182136689794,-34.52207312315562,-8.271952662363784,9.017131774699806,21.884837436969924,66.86710317989622,208.34310470673677,468.3080838736067,556.7564355598729,125.41140370386205,-499.3404068768048,-679.9157732506751,-521.8617061864854,-489.581774545221,-439.4317129786339,-110.53915822471501,199.80490903490596,229.34165499520995,170.0225302839363,167.74576079155497,142.8159249342753,95.10141421551846,80.49427338447578,60.99578862388205,23.99069903167689,17.28350843602041,19.38028568990159,-7.3399580876390305,-22.44732701028202,-14.210279522579498,-29.4336910392627,-51.64569294324304,-38.589640386764,-20.29129593877923,-19.698591425254726,-7.526501955867385,12.385758976750955,17.761648234932373,32.66884567647517,68.61730489361874,90.66275835480408,92.88942629860392,100.51997208849833,102.59393189365666,79.4668567362431,51.573517175604124,32.49072421355293,-0.34798878077537143,-52.446187644139656,-93.73861268141701,-102.9069591395361,-87.78917422133829,-68.61590447103785,-59.211420189913945,-55.62867001586571,-44.43939251606369,-24.184093851667157,-6.792849457877395,-1.3973289609831312,-3.9701219577687823,-0.5594180934662365,11.76689160291005,16.97690276567369,9.208279153097529,1.20815354445811,-1.3135753760497337,1.1121290768112546,6.110472427594546,1.1520754868454404,-11.42833383455923,-12.322236280729955,-6.080112131063888,-5.979472993494307,-6.2785342512801225,-7.932139741131163,-11.529768519555104,-2.241400803648597,11.108347911657665,6.670489743286102,-5.513539505363646,-15.64586535193839,-31.27719453292803,-35.92986943946859,-17.40658644914299,-2.9815998375387522,6.3051313913101446,35.49240303863435,77.64008751715001,189.98029692184696,430.5832462125726,521.8586854670525,122.90494151316754,-448.63200086797946,-608.7716014194491,-479.9162999388069,-482.2803238966426,-461.25481013641286,-160.81978424719335,158.38175326519223,223.52496073274287,161.98793182171772,140.33009409330487,137.80131349385508,114.50740078308817,86.28638974742263,62.39776744541413,36.684567984917386,11.312171038289922,-6.602177334083581,-14.42196995182162,-16.846488224748036,-24.424853167094376,-35.70316027157905,-35.76416956940743,-26.274538389835943,-19.39272699581179,-11.320895411909277,-0.78968834522348,7.128387844936668,23.777471224140484,51.7244554263531,70.59252567100808,77.56750958216625,86.81803697901078,96.00427815182752,96.0083606997878,83.32733331725021,54.390387964227784,16.140359689719922,-18.05419467828863,-48.82765449968871,-76.60863073771799,-87.67954814382207,-80.11733786541038,-69.52295668254268,-59.09591242060875,-41.25218858154581,-22.817217149548558,-15.494849891544089,-16.100401878629118,-15.546482753881556,-10.871895639109686,-5.820458293444798,-5.532795842950188,-4.875557341060292,1.0982927339454225,0.702115939696176,-7.01208814719303,-6.028865525849916,-1.147271272750749,2.800893386744692,17.105622011577285,18.004870014468494,-8.245988859938999,-6.588188904665609,25.252854564289244,10.154354994421396,-38.07180207843604,-41.212254990706214,-12.666160079327264,-1.0833249436506556,-7.496631346456912,-20.22959963109033,-21.324538227704032,-8.165121792127085,-2.8289642501933123,6.67587352720413,43.24163576634989,152.94647543577148,407.5499083634387,592.6018586024468,287.22488224204324,-336.93144386128455,-612.6240349405423,-496.95442760439073,-475.6127329853364,-517.8186814147866,-292.4629355649211,52.45776080562374,203.8385357906509,197.2262681026956,177.16578590993677,148.46620261671777,105.74685229253743,87.2068419320538,81.56052568703782,50.19831590440194,11.283111725676864,-6.787493441825218,-21.703187297185387,-33.14147345512656,-22.398947607355453,-16.91406224024367,-31.531877697274794,-34.09675510477145,-21.99061581934332,-5.4344765785348095,27.194998076086872,50.94586374070667,43.41337810652676,50.366098430741516,93.33788888352309,126.43381104269204,124.00249219760192,101.87758330328506,82.9932357534654,71.90430941676992,42.62723485175451,-4.796520475285806,-38.40805229043232,-72.16780634550824,-114.00652626706287,-114.82510511060086,-84.14386565053329,-79.22976188776784,-83.99539670140713,-70.97529682012686,-53.90121198278554,-26.049984484912983,-0.6949951886914683,-13.349730542589633,-21.686504047865853,17.613336899469438,45.41524420707604,22.512649101934315,-2.6094301372567674,-2.8528157496051474,1.969098194928021,-1.053076648685746,-12.30931329078783,-11.454432614453538,17.215813706163473,30.21274325263594,1.8623297711311784,-6.08264575823845,19.650595542646826,2.108317253810794,-50.17670287553488,-60.29734304853464,-47.87997705149931,-51.83199919209683,-39.2336304532583,-8.793084115092814,12.648639287643292,31.600223642970526,69.34393197112898,239.23714447119437,581.0021432698198,675.6846398062255,132.17790167738337,-571.2367964142009,-739.1796261484792,-564.9440181827617,-523.3559007690734,-446.08614992037644,-114.50250178218366,175.20271598733117,209.71065012451942,171.11806055765635,180.21163695929363,165.85606861042373,120.25760822706818,91.61128656999111,66.4678749610387,35.62998129750389,25.413278305713575,20.136905174765584,-10.319238837770575,-34.33453848556026,-20.877280396734427,-8.442479879689012,-30.499591024277578,-53.90299404217694,-42.055452618580574,-10.90248376930633,9.157029622428887,22.43695149334753,48.0741405428954,79.12970639413416,98.28488769491669,106.8191584826039,111.24634622785203,113.92456899466526,112.0560890619314,86.26735257431802,31.339765813094875,-21.579727408107583,-59.62666415791344,-94.80596403142542,-111.89224205245992,-104.09133017475139,-99.90227876854215,-94.24473222204065,-63.45553410573684,-35.553698125060244,-34.43997437672061,-31.09553580320015,-11.916790892406294,1.0908481459594945,2.078175895781559,3.8944245087506015,10.84777036829076,12.04671708492631,-5.615442988228953,-29.124863580989278,-27.641553002945884,-1.9145683419495434,17.226550301150013,18.28351542316444,16.53663594646105,21.14427004408651,18.927393468878115,-1.0274232866487107,-17.58334414645684,-16.87827795335815,-32.480863656440434,-67.35705078236923,-64.2800515569369,-24.56879446176297,-1.616747408012607,9.397312477645276,44.118089172802485,186.3017592598422,504.1854263182994,682.0615542538441,263.2291911912814,-448.49354901352166,-702.8956260019324,-534.4549958080397,-476.9324861569171,-475.98092067548185,-230.99947836882666,85.85583442048427,212.24249211061408,200.5715941561023,174.2573368399717,158.30380279225776,134.90414928688932,87.77773572737408,42.44658684981373,29.634234554312965,28.0539426161232,13.756145729942528,-6.922844433642988,-26.338315641252052,-38.106180744155665,-41.51526830454627,-46.482519560074145,-46.17446252137189,-26.231678158226032,-2.80216737757533,5.933403341714381,23.05573928629032,67.5350173614574,106.76210281534756,114.15629993971717,115.573677967538,130.34001162434592,138.24693620037576,125.28517478991337,95.75778186091478,52.267506934174506,1.1549762342035663,-49.7687277718472,-95.96819025446625,-124.13043271418344,-125.50019065317079,-112.36230780702155,-97.04026272312541,-79.39625826946082,-58.65202310032767,-39.35620338408471,-27.814032459753896,-19.962064577924018,-8.966347699999353,-5.607330064015663,-7.075076328421147,10.874562801433786,25.948402506164143,1.0616709251344432,-23.605314570720918,-9.408763501061225,2.5071236205782554,-7.588610539975129,-10.737482127068219,-10.448953057801118,-13.666242736186419,-1.2579231325335911,16.097271730199544,15.642201928796808,4.672507715693181,-8.864029529078147,-24.84564668111936,-39.50474123389362,-47.39927199803647,-36.58599551970711,-17.255760792328704,-14.098833542562321,-9.508782515742825,24.46329578654374,151.28849219336217,468.1634683938286,732.7571458648031,417.2429003972278,-345.8185036142523,-745.6701947204153,-610.3415089788781,-498.0789414732433,-492.8359475741139,-267.07852209205106,60.866980751354895,193.53807707005512,180.24989301642637,160.88466336903423,144.2622802378801,126.61063153016613,106.06824243206923,73.06910675430743,47.37041336864683,35.65024413121315,19.783805420666603,0.2478663329289752,-13.271174954935805,-21.319887335708938,-29.195642407071603,-40.58950646243555,-42.76431133596178,-21.749928942312984,2.284891715901903,8.227027301899355,16.01550975079047,41.228433576943125,65.30772354145492,82.39600594091729,105.96226940774261,128.5756958577245,133.27039611287546,121.42396930189076,97.33556332889424,57.508566229046025,7.072151879139204,-37.746803844663646,-67.23868042374805,-85.11382497295676,-95.70614285002227,-95.99610026622507,-83.85557873379081,-65.14852332038396,-52.80750570288245,-53.480576279268135,-51.54325521360607,-32.254109095576794,-10.093690809894241,2.2347103369858843,10.384120590344441,6.345274448194321,-9.973858098251696,-7.252426926107134,13.37867278253359,12.506938707403588,-6.2199830150316195,-11.54555972499633,-8.226315093058123,-8.062803760271377,-5.092731140433759,-1.7273184207944787,-1.4141613798228683,-2.9560199555079443,-15.019009354225972,-30.623738913905374,-24.084685954148224,-3.119059938997218,-0.5726020693522607,-14.230414224354737,-17.62043617028005,-11.020821654595292,-11.54537773731769,-15.037269456602356,-8.199072386953247,2.0364588585888317,4.085905586676262,0.10256985514995876,-7.166346900448103,-10.702611615671401,2.0007326440374653,16.590539847139425,7.7668358720489685,-9.26158226222412,-7.327102686400716,3.438952120036647,4.640075136342637,-0.3441516178367472,-4.892649953580184,-8.415830423174711,-9.690722882658537,-7.9615139350121495,-5.823690778940509,-6.84104368933289,-7.744768854453939,-3.7745477443873066,-2.526457243107581,-8.002351174629688,-8.333999783533171,-2.750343643481041,-1.6153601383412406,-1.146613340510438,0.003009508668992744,-4.809170848646572,-4.424497546367703,6.670756418443762,7.471077242739888,-5.764375371875483,-12.12974163096662,-7.133914875714379,-0.31740882243862334,4.032562461553726,7.295786963564984,13.916551276241714,13.427822236405948,-8.62050675017252,-27.851136796127033,-15.456400589703918,7.334403535286634,13.16620674985452,3.16081886087993,-17.887078299858477,-33.303562019725156,-23.115306495040905,-3.134683776041159,5.465549868741693,7.266966625074534,3.870362764834084,-3.6569257509014186,-6.452217235764731,-10.951384958728113,-20.257579065261112,-21.643147446696176,-20.748182962902675,-26.5723954923211,-26.001072536793988,-18.853344861948077,-17.668098730209387,-14.699331633147212,-6.266901603047881,-5.8543266223814925,-9.623070403750699,-5.317383928149621,-0.7726408654200174,1.0361778228180971,14.73137977411995,33.44662656795566,29.625967797564783,4.844380422120208,-14.020240956561334,-19.23379334710171,-23.70041872211275,-38.26925220958933,-56.17545306135767,-54.79442260814868,-33.76538015531498,-20.298237516754476,-13.977733029759953,47.017892127307505,264.4209552073792,594.4369669170687,656.2555017433542,164.2843910949203,-461.05718171627495,-636.1358467183011,-512.089594862813,-479.38743659118023,-400.88026884052823,-115.28234160914658,125.52831785688781,169.62832921232723,151.67205742666903,141.23500414070975,119.38274275693446,100.3433567368147,79.68629711057883,52.0003842683341,37.71462161956352,29.06057526634283,11.431395993305351,-7.26343403613735,-22.44044736697271,-23.37688745637149,-7.1803575299764,-5.3104136973926135,-20.555504936811516,-14.357599125902539,5.2011839058123375,5.995862844130166,10.575026323144286,31.92265533115286,28.064956257399203,2.4543437381045763,13.46128547326699,57.25895896763669,79.19054583250279,72.91014575813603,63.23247027215223,54.670426924743474,46.541012822302996,37.49669713575923,19.710766639340186,-6.436541109431921,-37.18552240866436,-65.48959112852003,-74.82913976709683,-68.32156333324964,-63.58372707015649,-54.56226650661009,-39.901391479343474,-39.179339908016544,-43.621300348645576,-32.12301724305766,-16.43462774625261,-6.071768138024989,4.135318295510885,3.0192217080431334,-8.170137591871146,-5.414815667378598,5.428618439876654,1.4054681562059024,-7.7308530568830065,-6.103879295069188,-2.6280233008922096,-3.720569920567934,-2.73876206786829,-1.8781686476777146,-8.418445398735777,-15.869359237890816,-16.33477024888589,-16.315613835836782,-15.92491236236293,-4.387078207991383,7.742349208319329,2.287201169820751,-8.927982778880736,-12.691232738927937,-17.27913636556291,-18.36098375442689,-7.9287190003544605,-2.604068456873529,-7.2377204245946345,-4.426660802312785,2.7394591445041714,2.6283947283740066,3.1420956889732663,6.170833981576518,2.440282042638186,-3.8281616763733215,-5.045536349742628,-5.880033990138008,-11.202581712113362,-15.868195770647352,-13.402982536528405,-10.241170293539415,-13.81606210954607,-11.826611477072921,0.5255043902721841,1.6513888621392034,-8.29980580913596,-2.628402431402403,9.271347322262168,-3.53686499830207,-25.755868296900644,-16.261934086545452,25.144464916694982,54.4953389825152,39.307352324059295,-0.46109295498980796,-26.62124181566457,-37.852434354737085,-49.27092072613044,-54.08677864907939,-48.72238233919395,-50.11099420422454,-55.7824591892149,-39.945814179099095,-0.844485788901082,103.65421948579979,400.3711583540542,761.3992543331772,656.1670060423331,-52.27354134445204,-657.1260161461095,-682.3703975459114,-544.514136143009,-548.4151970904247,-406.9380824122811,-66.04400338756074,153.9706827909482,186.71122830783125,182.75163660465972,170.39901820502874,135.98662369795565,105.59192927807442,81.07309318198949,61.65915249302397,48.988824438324436,24.31761179341223,-8.869949120537624,-25.28952929349365,-28.417886984688728,-36.10608338500222,-43.24383719124614,-36.477018491271274,-22.011155606337894,-17.446109925818043,-21.490529343574572,-13.825179520126548,10.283994867865083,36.75037863155839,61.189402279563794,83.51452577319003,95.5877823661347,102.03262478987756,116.52668993428054,131.0919205523591,123.70694503877012,88.16909368040744,40.356923111202995,-2.842569624396897,-43.31650198616361,-80.70231603875838,-97.19053487105313,-91.92138750441666,-81.48314290773668,-71.1841260582768,-67.94177511153956,-67.49769633429923,-48.07536327088213,-33.04727544295923,-50.92025595419561,-51.3173016820743,-10.796319671246692,9.728111444748055,2.7829186189199646,9.14904739339578,12.546062924713492,1.2238572892623907,1.2806358882015694,8.315960601827179,10.66424069989921,11.591183743547898,1.1994807674510248,-10.962674495068985,-8.135691874436539,-12.792847392393028,-26.695538578468117,-20.148157503335092,-9.17468809705224,-16.742089844521388,-20.52511646296964,-14.143831976146076,-13.171169826226562,-10.518232763179,-5.1067610500968925,-8.58074064098167,-8.809997508216572,3.8320314064081744,9.07768124560958,-2.23285577625831,-9.082657939494611,-0.9006342807219792,6.484278703101166,5.675426675494314,6.676329467567022,8.171136756749853,4.132721020198346,2.0699245391954975,-0.18171855040056428,-12.8675917757109,-23.190335577287208,-18.65380933281832,-12.757303146768987,-13.22409194950258,-14.664138492921081,-21.067476044632887,-28.609661841471993,-20.005643887336905,-2.5313773927277,-1.422613864050554,-12.580212048223515,-15.645487136063288,-15.038506445553384,-14.547952066177121,4.680559566386371,32.19501022105021,27.82937011228304,-0.21810791510562755,-12.744777240308913,-17.447897751704687,-33.865553546310764,-43.63865788430558,-40.18526499674225,-41.5484355275377,-41.2665997632769,-25.665244391067848,30.772041290227392,244.60048900658688,640.5389208687446,812.9039095136053,321.6924493559138,-468.97035037485784,-783.7550998019672,-622.2405657201138,-511.14839944866196,-444.92090622865453,-165.80959395336038,127.25651939825195,187.39535599504705,146.40204524211381,149.6896616459372,150.58115851028512,114.69961993011265,75.88766012680655,50.902538506394365,28.482404152507353,7.158588242200107,1.791746397066344,3.5353484944533293,-10.851647074783349,-28.815691414021167,-33.23990136616922,-37.07797882079924,-42.14890028874014,-36.09128375861869,-24.65246701435161,-16.405043826877034,-8.554277436033642,6.717465217516466,38.87637761437169,77.63410696518316,98.34737763129584,106.20857445833144,120.29967946116213,132.11543187789712,133.0112786605928,124.61675266968368,88.41644918303602,23.02133479561041,-31.0558050155095,-61.596841994117625,-90.90870315183324,-109.27138677881575,-103.81352250137765,-99.58974751296172,-102.204273015729,-86.502390820129,-57.527611318958776,-38.995592194001404,-28.28866146191158,-15.453075390960912,-5.5150174299625405,-2.0430805770811418,0.9769315063332726,9.311912364164916,21.35291827645237,27.078345376752388,18.09183935982591,1.8462931526577329,-7.145838804776027,-9.65770818947496,-14.110460650158561,-15.797818433106398,-11.264625468883965,-12.112994047658887,-18.9617567182368,-13.938292500793128,3.2066780557643657,7.350859734527919,-8.311963378566874,-14.894859019231125,0.6531120326541142,6.707883841371078,-11.420089663990689,-21.953958644867534,-13.450133459775708,-6.784778488033535,-1.6937017577311497,4.681534529813855,0.7468768189822832,1.2385852517459224,13.998268259855266,6.4047683876534895,-16.100344671841135,-12.622567098265392,-1.0989875383854564,-9.14613564843055,-8.113514787258284,1.5422212528930164,-15.205957024982322,-31.53200854739311,-13.427981001577418,3.1419637473007995,-3.3416418758140836,-4.987659488706177,-1.3291313076416706,-8.50959679409851,-10.107367523594807,3.7853135168187624,10.352452153869223,-3.4008213511640957,-17.889763265455844,-12.845663883391055,-2.4434316584109848,-9.769333971288003,-19.805871034990716,-12.594819178263213,-6.995014733545926,-14.308111663052276,-17.437437134685148,-18.336176143931862,-22.465348641440052,-10.011935730024094,14.606156835210056,22.20413297111475,17.891895775027386,16.389654009062138,7.152286773977375,-5.4826372958574785,-9.959123783873602,-23.02904594922468,-42.28634928499214,-40.03920487438275,-31.84789758254005,-42.406586887765975,-32.326461376673954,87.8091326841639,395.0418068206693,736.3614332487482,640.6932132947591,-44.28398985017722,-683.2442747720318,-746.7895780753424,-565.2473554757304,-488.090381765615,-302.45143551315766,29.20550984783131,189.4690642208264,156.78895310494138,138.3886861354867,144.39018502811464,119.98891464216842,91.54509153612796,68.02226446942396,51.271686610774,44.15810782784506,22.58241865780959,-2.0780223568995275,-2.897262165944145,-2.1072267290162303,-11.591940049778955,-17.80758613344045,-33.957101737627724,-54.64992071839637,-44.19186667680745,-14.509929839583986,0.7810086680562129,9.622547624884021,20.99256174047313,29.76304780654519,47.83441992821042,74.19159525206453,90.5407380326372,104.46934156467053,120.36084097792158,114.86785690122282,88.95803012400191,62.31893377815174,24.356095263676096,-31.143453796551242,-74.25199252844746,-90.29375397146995,-98.30725713292159,-102.54268901528229,-88.32942746011406,-65.79146907529969,-58.279116469912495,-55.12848202688926,-34.11301337408264,-9.838243326901722,-4.7054491162214305,-7.124661862244256,0.37990633920281347,11.818132649287813,16.288241295256793,14.159719219096953,10.722773461075352,9.339115508645389,9.074386737493759,5.373309670152703,-3.7667779793529625,-11.193497660569497,-8.18603579957253,-2.4553512498971237,-8.717161174705788,-17.288544234809265,-8.5416629058212,4.947050429817326,0.8492989206178247,-8.442761358960881,-5.489896310421905,-2.2035631555006123,-7.62764654579291,-12.050174868829554,-14.07545121997204,-17.116621298099346,-11.809272235742744,3.891779969140173,9.550621378205623,-4.597998669710616,-13.003045057356704,0.35837828306540764,6.700135739681327,-8.802359806877615,-13.808402255000601,0.41299346502527534,3.5184938466348132,-5.684383519629291,-7.929510380561249,-6.6207239204147506,-2.395075703100078,8.662194359610677,8.253199231695637,-6.413730469455135,-7.851661819748207,6.0721213683238275,14.892548563075506,16.236605526126827,6.990505330433864,-13.732526487511862,-16.358666228167873,4.455330113612174,6.203521664106422,-12.899635365373285,-14.386070623264924,-9.332930864676095,-21.95960903670966,-27.896199242987848,-16.44467717198018,-11.14223058813362,-12.529027157955001,-13.579184147069544,-20.37163531922187,-18.99758557329754,-1.7466839208680796,3.8235076777147388,-8.727098672082743,-12.013580893779078,1.5301218488375135,20.300339751391906,33.81453628904716,28.45698261769383,7.971027209557821,-6.4276984933213,-17.600330603404856,-40.52667124978062,-58.976958584241714,-50.27415142349227,-28.32461528234947,-20.618530186690972,-19.732999406908583,49.083637504526905,300.26463100324776,660.8730519474886,702.716819587225,145.533272943908,-541.5501844818276,-735.7273088840209,-583.5022627928354,-502.23155179800915,-379.1414598342318,-65.95273846750871,162.86624891504272,165.1262244236603,136.0872090955413,154.22468790657678,138.85484177553013,100.30849704020021,84.12228165839448,68.77798309741695,38.91080851058652,18.462395635635666,12.581872264891194,0.7048992031624071,-15.53107741172861,-23.15406046123275,-32.58354166897659,-44.226131851158314,-39.240946445011794,-25.151421989943458,-18.62671341671971,-12.98030290323239,-2.046918927971017,16.261413811650044,43.9778588056304,67.60479662026816,81.02235955338038,90.48459984016809,85.78100834171464,72.19312335293836,77.60105860988321,86.29649783373361,65.03517402852228,30.01393626261386,-2.4285121633143802,-44.64220151175916,-81.1948793480824,-87.35448040728893,-80.09835055373387,-79.88175681220329,-77.69120207911581,-64.85180596156523,-47.50459275338475,-33.75909829325966,-23.94311023642904,-11.73030847845897,-0.5125383861583757,-1.1635258869705893,-5.11069127379546,3.5440730778221816,13.59516056459589,6.9497382384794,-6.984019763876233,-9.927071343922332,-2.1328382237555044,3.3441382240531663,-1.6979859195884845,-9.168506481827933,-6.996067885009854,-2.0180900549701697,-5.553699125925798,-11.359792804507396,-13.121468148526116,-12.607573718029137,-6.68602226866847,0.6224318692725284,-4.049132806899669,-17.163761688286435,-21.82617541147483,-12.472414244974999,2.1042263916513395,9.028545839283678,5.4423545815246905,-0.45603130164429295,-5.8524192885528805,-10.435240570566119,-8.257324242274695,-2.0345929883166995,-0.5897722703880639,-1.6743509730325048,-1.5295409615130549,-5.115056912449441,-11.019755302172296,-5.572678191637746,9.617276582619686,7.67786867121458,-12.305494722634322,-13.025245100395649,6.243614023417383,9.554684287898755,-0.733198268450006,-5.813408315824084,-8.946919347930136,-4.1448621007082815,6.217764246815564,1.569352797048552,-3.135550511481675,5.29187886722391,-3.864190310436001,-23.96851983758004,-17.132542015192683,-4.595757068418484,-13.84240349204602,-20.87063799742813,-14.655308150580577,-3.4598708579928514,17.567659617210744,28.993192382700276,6.7194837400259955,-17.96743089432533,-15.774127497541354,-16.66219535169469,-38.01984136974615,-48.77846735847061,-40.43684981808787,-32.020413474698266,-18.728638162828787,13.403660204380792,130.78702343327566,443.48463461300616,758.4228433162914,560.1127164654612,-167.13547048277235,-707.5095541205676,-701.5719312512563,-560.8716154385287,-513.6125578775575,-322.9675940512065,5.765842164520016,193.25596200741262,200.91961757591025,180.9165457977789,175.72080279795384,150.56998347785492,110.36541147260485,75.62490773419461,46.4231317048377,22.51051579317749,9.166090317746374,-1.9969312070232927,-18.758576604889512,-34.09036914921895,-44.16518222120416,-43.64879224371346,-29.110558096482205,-24.43783690478655,-38.41092729043437,-34.79537171036694,-8.022333124884076,5.729280594667589,13.812149099048792,45.47152897832299,79.79002843732403,92.86653575105304,102.95580399014062,118.0792029627064,120.12022213608032,106.07027227916045,85.70588078158704,58.19066006626718,19.955174014390717,-22.98013824875558,-60.33692528449236,-88.13419486611397,-105.32617145921049,-105.54538937730469,-89.69614218633845,-71.94238204857344,-57.763521236298516,-41.87272402135789,-27.011095864753383,-15.962598594068211,-1.2446967848513069,14.644259304032506,12.213998945164718,-10.819069710824134,-23.756900944861584,-9.11882950714111,8.620655889495586,9.99777387836259,5.568145527174348,0.24941718447048977,-7.2663319873565495,-7.9042503063477145,-4.701007464038456,-3.852647336823402,5.9168894068258435,15.105497895991325,-0.21613029847391374,-18.5268204368504,-8.740524526749857,9.350667999973682,8.543491205834222,-6.349660212345897,-20.849952676627844,-23.21118013231034,-15.367858242573561,-13.294177041213988,-14.91097946868815,-8.641770287801828,-4.762737641798445,-10.03419260752375,-10.90608197933101,-6.071789139996799,-9.121516567610346,-17.533963653403752,-12.874832045800929,7.833793332600655,25.460444392629476,28.600054342613486,18.133362170167462,-6.7831453519347145,-29.064643941172363,-28.36937421844455,-27.30817679539067,-45.775242146909974,-53.17710166058535,-34.01313664822419,-16.603660561256632,-15.838408409346641,4.16423743161144,159.1965205890151,524.343548676384,810.4168983101921,513.5069323593609,-277.28843658521873,-807.8628808839178,-762.5857042927969,-585.6546074058506,-480.38040043453805,-204.08035510401947,140.9737766179813,231.2917170864811,161.00055509730973,155.06608633964885,162.25001710495522,120.16918987182171,88.44559532584302,71.36765867736624,44.68765311129783,24.809891043799382,9.487437909852048,-11.041777430976065,-21.787870605767925,-20.85411794554297,-22.014381589060285,-24.929376414653785,-23.47054703815214,-19.79207180541233,-14.720599126654104,-3.37843078255829,11.196734245828647,18.637459414947394,25.232588627006788,49.69138210395159,84.77807205579384,102.09580151705777,100.982003090068,103.22458983789888,104.78948180604458,89.82792928545427,65.84777323467536,34.596594095529646,-16.675068743235478,-71.9560875419226,-103.75630396100522,-113.75423252772863,-108.41291346696909,-90.28950149764572,-75.88143410583106,-68.16101139853575,-51.23504822344317,-27.551221448538556,-11.19566841577246,-6.254242114313122,-10.75486476848063,-14.812884229096507,-11.83123764122622,-9.569758944737668,-6.576139973298339,6.0603215207854255,17.859352965980133,14.654951359747201,0.1294540255333807,-13.210573405853115,-14.220725230376843,-3.6327875061374026,4.681171809771143,0.2860799702841419,-15.117926668475405,-24.873298327672618,-12.988627536293489,3.6289423606155715,1.4735450239224068,-6.111901480621201,-6.657080670591114,-11.272993078754375,-13.1479455718869,-2.569427560705364,1.431937139218876,-8.470653075370084,-15.839103184659686,-16.590386208758073,-14.404840278467184,-11.392467835912345,-14.718692368758619,-19.19156504329803,-13.157721685667978,-1.9964569488263173,13.592682198910829,37.661034891714685,43.80861184038267,13.445441347023856,-17.60725448776584,-20.750258665158107,-21.84978202610565,-37.70254858062698,-39.9472233680751,-16.33349856409714,-0.9850463295622092,-8.239609928562666,37.33636677920664,259.79164321981614,611.8068105025511,705.387783903743,211.55029118733705,-514.6566060409094,-809.2915774547778,-671.9602481520315,-541.0687557469289,-404.52185239368464,-79.06467434794655,195.07899734156663,211.12119181976175,154.0903123071479,158.00439677648126,150.56685888546556,115.23979108664311,92.16550735115295,76.54068326399087,50.694595272985964,13.235498231640708,-14.775089581045632,-21.923549621120113,-32.212369096679765,-43.14336397493527,-29.07159070280936,-15.607830625323365,-31.277812902468096,-45.992957889064876,-35.56651111361258,-17.62604352481153,-1.6202808954519377,22.76430897705793,49.868423895945796,64.93732333659887,80.887444029266,110.0467783706192,125.70853528303361,118.77668054215839,116.1514089133451,104.56005922396987,58.61471363278366,7.223852670924192,-36.141410274771545,-85.65209760473358,-108.18132098975167,-93.11676291990682,-93.81917874622869,-103.57068515292109,-75.4382995904937,-41.242827807853075,-35.99418014061697,-29.32530830408634,-11.29529576033135,-0.1573133396911821,6.076525085529845,5.989661520695025,2.006462850355259,11.37774645948732,19.48761274170398,6.577639743675331,-1.1056885160344887,7.242350704975822,-0.2922928915683478,-20.681824454406602,-20.1263034215966,-7.245612341200893,-6.376341139938685,-8.827036991929887,-9.676528473081369,-16.95673517579608,-16.31616325915251,-0.21184949879280524,11.164476876327775,11.196454710692336,2.253998780183121,-17.609307669690217,-26.381940522544234,-13.773194575804798,-7.135612374808725,-5.0942640107156265,7.506891613951801,3.6459640141047345,-18.242864659318247,-23.493193318141444,-25.470929832389405,-39.627673898525764,-34.48979811174265,-14.220862421222659,-10.734433807968639,-8.719451920624365,7.107833459517545,18.251032233395463,18.787516593790016,7.695456784520961,-18.84344132599651,-38.006631032491455,-36.224434800143605,-34.87694257048477,-37.729459713885134,-28.265855271414882,-10.425019300750048,7.673431556393433,55.46904041450408,223.9993928882796,532.0391318742907,667.6604057680826,255.1837471858097,-434.04349993550267,-731.8320634812901,-611.6186889244567,-526.2224423684177,-444.58854902089513,-126.30598087364532,179.8285449543538,209.7145422153421,151.8981214990561,168.39894001025883,162.03517510172077,107.86955550525452,80.18300548030425,71.13466853630187,49.23197006536184,26.73529710774291,6.341931029269869,-16.496279105912553,-28.058708939934057,-27.30329755667155,-32.863960091930274,-43.946248097937975,-40.09814388202392,-24.950768550821767,-20.581539935474726,-18.34638254940134,1.6976162650436848,23.119503417495075,33.70773197655982,54.16482494244554,79.77059813825328,88.18797262850076,96.97989419737206,117.27261823604485,120.58245774832187,101.99148387768018,77.29905055344821,38.258087776699796,-12.756947797693373,-50.6379020862749,-68.83427819899401,-74.99215620729808,-78.8657314654495,-93.40251023690351,-105.25783280156698,-87.38252705497231,-54.37009500980423,-39.167525228815684,-36.44248347089152,-25.092214066919585,-9.825721340891604,-4.649518872794854,-5.801907290801108,-4.82066311288791,-5.068506616155705,-5.088995250531838,2.764532220782515,6.900491497165657,-2.672489514933055,-6.510253765081032,2.3672440343724634,3.6105292971747183,-2.37750918653715,-2.870606145784297,-4.513666280371645,-7.378034500942272,-4.084250281347085,-3.9486295793515787,-8.951830936073582,-9.340131405813203,-9.692784933326369,-11.293741392833077,-6.125667447378472,-1.760236892354314,-3.5649580900438913,-3.0082100355528283,-3.781287199331283,-9.761998821824893,-11.071058970947163,-13.160036346945036,-25.493841904352085,-29.352589517324603,-15.369707569109032,-10.63486949480395,-21.760814407701343,-14.113395036757646,17.98095156530284,36.45212986047773,33.02730925301514,28.36906081034186,13.268969775182763,-16.752203469840673,-34.27337837926028,-43.41121785313507,-59.66606494034767,-56.83996699459862,-39.08675831893753,-36.99678366887179,-18.395938698924766,40.08487594976256,151.0446953054316,405.8595335802102,680.2926210811432,517.0401098925543,-128.5489783758872,-612.8761745542014,-613.4695602181108,-523.4463939403977,-524.5144352306299,-345.64933550807734,-6.3161699938383435,180.9417270577875,179.4482501491193,149.86960995880509,130.76296922238063,106.58316378481408,89.06173136886828,69.9256730354242,46.35175316059062,26.826550249726665,2.865152101791198,-16.36370557027199,-11.36300666731285,-3.521171286507415,-17.55522265535768,-34.88700452114834,-36.1735335669132,-30.40669961736384,-25.63006786837384,-18.688083832944674,-6.180015479169885,14.76038922534406,37.642727184996545,47.71442277249549,50.25876218243875,67.0418281720498,96.40427303930927,116.15627153195472,121.22102167657961,120.40522514331228,106.89610396439677,68.99999465721679,18.394019660336802,-30.83490970747728,-80.3941112894755,-111.7264622367483,-109.4930293028618,-115.7327688750837,-139.36714384236598,-108.58202611225948,-30.592631255832046,-1.1144053895284145,-17.20807389899449,-12.167997648975131,6.180473005235957,15.157323462830478,23.59511340026044,24.719633039349034,11.953179249213477,-13.113907833222903,-40.590505613315415,-30.089910429917573,10.994393154706827,10.109053257987942,-19.4034305947234,-0.26278071002255876,40.23057837908695,35.727889557008154,13.367829680279616,8.934740062984885,-9.45896646732399,-50.25209335329649,-56.95272012294636,-12.843644966907235,16.246783007800012,-4.752712839395194,-31.852188874030507,-35.23894207030823,-22.165400709179433,6.679569795703442,32.67458369348915,31.185500347987706,19.82696688210287,6.924411304842367,-28.18347791814184,-62.097240600369524,-57.369659199354544,-34.30691668181687,-20.542387912022953,-12.115172083884026,-10.086023432966389,8.443309195599312,158.17176753674158,518.7878632680744,812.1071309733113,523.0792738938618,-288.04658635427353,-842.7882059249545,-789.031705676868,-603.1999331119932,-519.1697648820966,-262.39574412044095,99.31975846968716,236.55862256863622,204.92284149395604,199.14072764798522,190.49584038220664,144.22311770478476,101.96663023601198,64.91559506024662,36.348862827575594,24.80890099708688,9.43785080747617,-5.038535429665354,-8.610957470294357,-24.71187555498508,-49.53864230488442,-55.037544042833474,-46.57268000025095,-38.884325619305216,-32.8581387492238,-28.23632546730318,-12.290829597409463,22.470353570657615,52.85107495845513,69.38819462257001,92.12018347528488,118.11588599614306,128.1392440894775,127.88579470755198,124.42208308247422,106.05053883921798,67.92399615266518,20.131841434956733,-24.320600321500855,-59.24813098404759,-86.63595678010375,-102.36765006681841,-99.49507116293982,-85.13213028836317,-71.72334227478177,-63.831205467290246,-51.77967628488713,-28.71865393153122,-26.747139510947648,-66.22690099278748,-101.0263772085102,-102.23719560425909,-70.48573425764744,24.712486494799716,128.80900766451444,115.16439865835733,33.05562270619687,17.714850464219715,30.4356605834387,2.412175249928513,-16.33471398208349,-7.116822649945371,-6.537379695066441,-14.504415398532306,-25.17798395805265,-35.05846799853653,-29.592237499314916,-20.046538486543078,-17.93150101960925,-14.980860435557826,-17.137977999306617,-16.479781010370353,8.638342546795736,31.04003630510401,20.871327364136274,3.7011750263686904,-8.191979623783528,-34.887564681093615,-62.06051969993945,-59.79683464384578,-37.75025244090495,-19.46144239748972,-5.744018167289131,10.139163155462143,61.515246313951394,266.09860531293907,638.8543041120336,770.3526524023162,231.52607420541375,-580.0786181348998,-871.4647769203896,-676.8759239023673,-534.6408888760807,-402.5814395636127,-57.449927764998804,224.860014855113,233.72167544714995,177.69879107969268,178.3227176725054,133.77120847652336,16.23809613300105,-58.154926780153616,16.473846156295807,143.0037818356071,131.2852949135458,31.665859640924438,4.001035316210636,3.929313285706825,-34.283868267195714,-46.16623622413067,-37.00079825329115,-57.32889901606927,-60.287819577054506,-25.196776753229955,-5.620395315510931,0.0758617483201185,25.506848755301867,58.03257767686352,84.27328141902865,107.80585566213009,118.64777758780674,118.09214503035244,122.10086717910072,118.76166896802333,87.22274021864494,38.22336857391697,-11.733672057219373,-60.68375821097011,-98.36866388270428,-112.37108598195726,-108.41072719734791,-95.14499641229901,-75.62388954059018,-60.95088006225056,-59.26009180296805,-56.347990079861475,-38.00171968979105,-15.863387219819437,-3.034971429773293,4.994592421080153,6.833482582693275,-0.9727130141236806,-3.4390104768448673,6.437807897357223,17.339050574201003,23.458059036373818,14.028123609205505,-16.443033596858676,-34.28755292684599,-19.119167601243785,-5.25683446180199,-11.745607061038754,-21.0504796221348,-29.063278127629673,-31.608387349451423,-19.96879135487781,-15.752924776528118,-28.172895539193835,-24.793781643868233,2.7096192294530494,27.250954128500993,31.739124875672065,12.758145919723802,-9.427779420834288,-8.025878679115849,-9.228719180875688,-38.72902051482412,-50.860117771060786,-25.442955535465423,-10.816890773673705,-8.952667555030622,17.28995941641788,87.47326948220082,293.6863138781363,643.4671514150574,721.8062122654289,143.32938107619609,-634.633077708872,-863.1384440060853,-658.9953516369773,-540.8097403740878,-404.5093467162167,-34.2092526294145,247.73304845033408,227.09527315568158,154.3581360951812,163.73284460942406,143.7328573660191,92.16445950243676,75.40372017226373,69.30396269967247,46.806329104120394,19.79305432752838,-9.399900056376808,-31.122146979157655,-26.975138374641105,-12.049075361217653,-15.887273616587306,-29.88742075761804,-28.128839211246174,-18.120940291034948,-12.74642978635443,5.1114055797930185,32.51245360055063,39.257188578903104,41.737863571920315,74.19605143476444,109.57094411239046,117.53343829191112,117.86645711423094,114.82084960435832,91.79770195446854,61.82493758083916,34.66808507042774,-4.223782450967665,-53.44217603436879,-98.0349556953971,-129.18585389777627,-135.02775821371262,-109.35349478199046,-69.37801087905518,-44.30677702011793,-40.83304338790505,-34.52987370419604,-18.07674549327148,-12.21945745327767,-11.761565389649476,-2.5840909410043196,-2.633593129126197,-9.963364358146716,1.2398536790284442,14.288132291891017,6.935623545338778,1.129681909878542,8.084535352559374,10.330065000698292,2.687570742831376,-9.118417764188518,-15.518733064994665,-6.789330087941485,0.5054863800539273,-14.882738191769434,-33.12536505451651,-28.134070048873927,-17.4950169006414,-23.446139747934573,-27.794699900478108,-15.622897477759881,-11.0068562799128,-21.60997157187463,-17.17681035424841,5.996097147457087,23.006253336945477,30.273930352455057,25.397380189322377,1.7741219308289744,-15.38918524384158,-15.278476130912425,-30.4585486957426,-56.99938875761363,-53.03288827658899,-23.862212179120977,-1.8386244082115084,11.34672799517979,39.10692941838056,164.0151913808786,470.9131312312395,739.0124573869624,483.5738575660896,-276.2339174466683,-807.4372133926257,-747.1421933386117,-563.2522799432458,-499.79584558978684,-245.9404320903708,143.03027384745855,267.83353337713083,181.81591205440225,164.6021820719111,180.21733212356193,130.0109549412981,77.76116304356921,56.07222664505983,41.45250835745019,35.51082597613425,23.119471702643036,-10.18182144316224,-37.70588419362661,-42.99866179331927,-40.71963765809801,-39.686933889983194,-36.26322638024307,-29.089284526739476,-20.625974906722075,-12.038216587802259,-0.18224006446876828,20.42546338440556,49.46765466636185,75.54112197670992,89.37943943099123,96.72441954260682,103.34366919786416,106.98318299587449,110.04438054874234,107.48352987912253,79.29210577252059,24.164785479174604,-35.373695293043504,-82.3634100641478,-106.43485537196912,-108.02441357507452,-106.38353893648325,-104.2551016164816,-84.88994597909513,-58.17054940619129,-41.639519913974404,-24.68941989363249,-7.764476773971651,-9.264165611627163,-15.174123898065297,-1.4371886104055775,15.443916912702765,15.116983361227351,12.577769309912906,18.020620598128744,14.861517797494425,2.3407492418500144,0.7579641189670099,5.638222202306302,-1.586745206279975,-8.383127306772625,-0.22342437528681813,-1.030200962246738,-24.636436437255004,-38.143641510247605,-23.24155692473238,-11.174703278983987,-20.59287487314947,-27.363510694089076,-17.550983562559804,-7.238136956287484,-5.90684298357715,-8.299021592940075,-9.705444469946293,-8.30862094780517,-8.477718395043677,-11.769445448063776,-6.775360625460165,3.746608997889499,-1.7305655666965443,-18.379989418723035,-18.31942171156982,2.94529409311783,28.777335454217,41.46568635333152,25.874953140731506,-9.259797595825775,-34.694766526162155,-43.784015957225314,-47.540248896041525,-43.82443239746316,-35.30608994285816,-28.56140635106985,-8.129765342332185,26.946284056003503,86.11093862028159,279.39044360674717,599.9993341688134,635.8185072696743,76.81774168158736,-598.4140276364394,-760.5883224051121,-598.7322812502733,-528.7655361276443,-373.10184149856656,1.83347265521396,230.2039616469454,178.7697310111991,127.59216123516445,153.12166777727623,134.4342804272447,95.70099842559978,83.69849824351087,60.41681100152239,31.346209803165117,23.593201887982314,14.003439971888005,-9.086022510046448,-23.77539950057923,-26.40866318142197,-29.07658761271295,-29.385243138235644,-22.136392204325396,-11.862598423033877,-0.29087886729431744,12.379595958770558,21.813101768600884,28.039505996088245,32.45035747072748,38.317525699890794,56.833030102778615,83.49393559943454,95.07314583620283,88.69176268261981,80.0090314205929,71.03002415390675,50.33501217097874,9.82312116156862,-35.45357975210884,-59.546136420514195,-73.21220023362154,-93.70381647077507,-92.95715434854196,-67.51129859542482,-60.443428971445954,-61.26028276711201,-35.68443928765873,-13.879648156253502,-14.135648142109783,-5.408418568964876,7.252583821332017,4.854482478616003,7.469195827798733,21.24093991497191,30.078110540294293,29.730106602886547,12.877822321099844,-10.480409498406964,-8.977713539499522,1.5458443772044035,-9.921485394096733,-16.013606096204256,-7.127184008856865,-23.872914749685236,-48.556306194594995,-31.518856748942348,-2.4889242319943747,-3.7394451637021824,-14.387171249527047,-21.117998029510375,-30.59469093156417,-23.909184261394063,-2.6979586442330294,0.037447762910613136,-11.177286374183787,-11.586906345796379,-9.35271751381364,-14.632258401946316,-15.131780386262875,-5.424079872572683,3.362514530507159,2.068348367925733,-3.725246403418849,-4.456731302464005,-5.26946272848687,-10.429565721599715,-9.180780289185343,-3.2167837325440054,-4.031970318693315,-4.917675778698705,-6.52534800330241,-21.625105234234198,-31.708209177730737,-19.840710016202692,-9.996926915409873,-4.351435663440579,20.05801605014643,37.766030207926605,18.225291799559766,-8.858769203885046,-15.432314880711317,-17.30466894253715,-29.5744346951776,-41.540191121991114,-34.38478095096411,-13.043778721975762,1.2061021780478356,12.348416954278878,52.93117629734286,203.41283459863462,501.246695929286,651.0727607763142,253.07290626451723,-427.63981022563564,-709.6800511557717,-588.8273136634905,-520.998187981155,-438.17654290246094,-109.52782476245355,186.91797440152334,208.43461052422833,153.6572172633108,161.8236452056811,145.99899285142746,99.349364263045,79.06206517638546,68.70731306407443,48.56204241950134,32.441436178114536,23.58375412877763,14.95676270143078,0.736734196160941,-17.168568228626516,-27.425439981306045,-30.811716937234344,-36.3579429399125,-35.77840043495123,-21.759910634010367,-10.730267044915228,-13.282021411046063,-12.158557664140414,7.140785466279381,32.86781297593407,49.04655462982373,55.81927095025772,59.94742541561624,65.5959106910662,72.5341830210096,73.1904679624035,63.641200856014606,48.15840043512802,20.53015172584532,-24.612948428361477,-63.763397630495064,-76.57037365840341,-78.67611564583363,-82.42601053072298,-76.75587573984775,-62.44556261468017,-50.933241409785566,-38.64199299229329,-20.287296952033635,-3.137558693141571,2.91257404111143,-4.911425743525793,-13.63051394631492,-5.818151600684933,10.804860323987919,14.983300939255022,6.84085075260084,-1.1047301034527042,-5.177957884100991,-5.048077882628522,-2.6879692067686047,-4.430644456089215,-7.992449528340552,-5.7083932107067525,-4.690380300421641,-13.118561736044311,-13.750411023206434,3.649280535338006,9.529531579725358,-10.052262743546597,-22.169020304692864,-12.531974311913322,0.195904807277536,7.094368559472878,-3.482981575199073,-32.044982611051594,-37.93689964660731,-13.13390210109333,-3.190615664105337,-10.959760459068494,-8.207349082335863,-3.7545791907314943,-2.697883956992934,10.012873625060063,29.031953112577924,43.61149957246553,46.676979379346506,26.004820075360943,-8.339371661530652,-34.8603703299035,-52.538270404245566,-59.258251446287346,-48.009358601446785,-27.690804421767197,-6.324955708363472,10.409059151028249,20.91876801515879,103.42456822982442,362.47751238127444,618.7910803444016,435.69569288416216,-189.5739010699661,-637.8465641234737,-609.7506651376775,-499.3874988725664,-484.431189735637,-282.22770860592453,59.297140631825215,199.21760302628618,161.07541360467394,149.97916754883911,144.69190549900011,100.42483765431211,81.20138168838496,84.71861646202507,60.08436158289132,20.441145744968765,-0.6637175856384658,-2.57337230487704,-3.771275117886322,-14.918246304174222,-23.092974773674058,-19.766101324614205,-20.730778971503693,-25.957837701884102,-13.113112744184185,11.349266363345032,18.75622036498251,13.05272990470467,18.50295547844573,31.0810856270124,38.1252330127012,52.67764918534469,77.715699834315,88.77550873182935,83.3435308908621,79.18455757040483,68.85227319252131,40.78837123311502,4.375233396217618,-36.58654464179675,-76.91865244294486,-94.40257457122922,-87.36084812752318,-77.87944497716441,-69.85212940595804,-58.53811082351079,-48.45244819413302,-31.54261486144394,-4.4790202577092835,8.964281555341817,6.97224149616272,14.44162763341097,17.57546167648268,-7.772547997949957,-30.897395583492592,-20.954467568880588,0.18221495504946006,5.987100498024738,-2.8486674091769757,-11.235713940991594,-5.62334141783538,4.534345319803926,4.4017574342621515,1.3176518850598686,-4.18389198138664,-16.97419338421153,-16.26893976273469,2.0262613429881027,11.252643056535238,7.325338546508954,-9.042790394488733,-43.31529272068567,-57.775548825507585,-31.627677257830452,-16.230900897141204,-25.429723412435838,-17.277514595637708,-1.9396020382686707,0.5301365475282438,17.742554659002206,39.71570035114736,30.291034034381287,9.996196755111031,-3.2347715307866176,-29.23030530458548,-51.8051704776878,-40.63088146501954,-19.152523935369036,-14.38587346426445,-4.647398858184527,28.233578320066204,94.89077357742843,272.9539971745704,543.7210602158287,548.3896323110289,26.14277534769326,-570.7114004422164,-678.2534364408308,-513.5946587568537,-473.7372978239647,-361.869530318875,-25.412546041323736,203.1411022589374,182.4604392340973,142.182586225125,156.84758409280374,137.4469872411021,97.57934953884387,72.62459608603679,49.31326833747219,34.31499191837183,30.965527053978043,20.213130959883344,1.853822287846377,-11.984039331235929,-20.682576088862984,-26.45890035303121,-25.360304065769117,-20.517031905941646,-28.15121037937296,-42.74242728787359,-34.08926813768342,-7.93369417305907,7.509663180369387,25.336394282404353,54.057411045061905,63.02867913856355,60.47043354518249,81.94672807143026,105.82651835358324,102.48112788276617,88.72901993731651,66.80555142321234,21.47424228439081,-30.830050318740973,-71.87507505312637,-97.34664813230532,-92.41064786154925,-64.35668085167882,-51.65360312781273,-62.763180319426425,-68.95218628872583,-55.319266748943065,-35.514903404317465,-21.356370162406094,-2.765902441104224,16.637743544713338,7.643747053443047,-16.995971167880903,-15.437298185575791,-2.1695679117915674,-2.244527617812775,0.7778923784144638,-1.4574781104334775,-21.03702688922087,-20.950704102847183,0.5350705043510651,0.7963396454076879,-12.037653977667507,-12.757033693386992,-13.316531198267707,-16.65325663980208,-13.74582896524089,-10.670611924924433,-8.91903344272922,-4.237036004700847,3.5225688376746986,15.478324841223325,22.104880458304837,11.573196104833649,-6.665432878104481,-22.598312302104777,-40.617620312074536,-53.826117710636005,-49.036201188042654,-32.85335549016746,-13.090042361735335,9.356565060552196,40.02042331166824,175.2355770684515,514.7958794601179,780.9002478980115,470.6951528425944,-285.24294120655367,-746.8949391906478,-701.8436058369329,-599.9393228326078,-551.0104229525606,-293.4684692075796,66.54247599161309,221.29103918329457,196.48499474504064,168.4939255531333,158.3910163216637,133.08801203044533,106.1539000376792,86.62531946097508,63.92385638108303,36.21951268437737,14.427468207950609,0.7500860566545491,-10.01626555696436,-12.0305044251525,-12.515680032471423,-31.896772686074808,-49.19169392441103,-33.71050916323734,-9.987398352981625,0.5689457759210015,15.91084423393037,29.029943361944568,27.81148750574568,43.13211826979767,80.91191502730416,103.11481981599397,106.88329566791143,113.48620276770815,111.44552151536377,85.39327044487682,44.11816833869116,-0.9701353564413182,-42.122699362806515,-75.26917590101195,-102.80715179193867,-118.43527441309433,-113.20260030489034,-97.57690757226595,-82.93594637361775,-64.00290732310657,-41.99275381321006,-26.506357783871096,-15.568852299563982,-6.792268564554778,-2.4506084940894297,5.562559075655987,18.03325044815016,17.3468428707601,4.006728705508785,0.37357050892594224,7.975433821396329,7.92325061807384,-2.891182523810391,-10.32914991548,-9.65259627625616,-11.770417844631666,-18.05277460705986,-13.864660205235952,-3.5955325592372382,-7.461209606727207,-13.678647395526424,1.1840841489035268,21.269694135349905,23.932484769541386,14.223231102582389,-4.24028133579602,-29.489666345169393,-45.43994740012479,-49.13500296343134,-48.794842188098286,-38.3711143134022,-19.09171419951745,-3.3254111845173924,8.077013917302596,34.72382542270921,180.05742308316596,537.1320508343077,804.0676955806689,439.1472950094532,-408.34186485340575,-891.2206441915271,-757.9472560128409,-562.8082337663769,-470.02571006562505,-174.30668552870983,183.40497430158936,257.72082136360444,178.42987951439517,176.31960439653517,184.13616412994207,140.6347153744679,101.01356015756193,66.33498979404243,32.096324437126455,23.069293961403318,18.815633484090835,-0.08656648684589463,-21.003154569293812,-46.05026866446998,-65.9374109875655,-57.1246993010881,-36.49568731604014,-25.56651498221637,-12.340102040079955,1.7078350470180332,6.608228070460196,20.02018192531336,48.225469305138034,71.08484411844677,86.9417071041068,107.35416702579872,126.49524408538443,133.837034810908,123.58111492534796,90.50949010768493,42.41208050140988,-6.194432578111578,-54.469289343951374,-98.32277958127248,-118.17338589389175,-111.67565057291827,-100.32669866608217,-91.01484871906115,-72.46205509821625,-46.75708120901328,-27.267192612142974,-16.852442936295738,-14.068102737528264,-18.841620422320347,-18.755854463365626,-4.473579167999926,7.264622770323896,4.9330114690403235,1.9968209720105037,2.64690291919916,1.5139101430685535,2.753541363593479,-1.4825987658843864,-18.367220747257882,-25.37900326055427,-16.19726479788762,-17.910006624169586,-29.98511023052527,-28.52783657307636,-15.698781028754397,1.6954814241462435,27.54825612089581,42.01586922525586,23.597706092277875,-4.014315320831419,-15.328842011613471,-29.711632881429672,-55.20067807443437,-57.21554762236567,-30.959022539283765,-13.592255316872539,-5.576173236244962,14.9076949936691,61.0401538627481,236.63758392650493,596.3471018436721,754.1755614670732,243.77440351358365,-559.0133355664645,-837.9863508251817,-637.4451049766444,-524.6877966647414,-412.592450331078,-42.25138847787115,235.90087584987057,189.94059820534875,129.16614969708291,176.7480822292481,154.59739460406706,79.85450745046106,60.56410711991558,55.09053480995502,27.383002189655965,7.337346651961038,-3.549919024267699,-15.13214447772743,-26.161553326423483,-39.392483033007984,-45.06608708184334,-31.89531289316431,-14.658692523805744,-10.880916424409193,-12.195493661059583,-1.9396281283218038,19.30566348664068,43.24587431891479,70.48857815639899,97.62683574733032,110.64965187463855,110.1905022455161,113.26757992634558,117.04019625770783,98.70543942137762,59.06930705296858,19.753227142881514,-21.395747754578004,-72.58248683129845,-107.65088004612464,-111.16778023513855,-109.30389614923345,-104.84867839497949,-75.566894825852,-45.06350952115794,-41.45330926707317,-33.9768505667109,-5.585549860368587,7.541354136879374,-3.119665660571531,-8.77841944076722,-6.815215654752551,-3.446995945354404,11.765641553014582,23.35366368438826,6.43141637502605,-12.54266230947243,-4.471218285739514,2.325668248734482,-10.88487294877803,-16.53416052397116,-11.321688340332472,-17.281347421847393,-22.2688862303498,-10.126121355545267,-0.13019949809891074,-4.2371744950071975,-8.13124232362289,-2.5732831268392036,14.058297045670036,37.08199629531799,44.10224184250306,24.83925751842149,0.14590192438569627,-21.266543433100452,-49.40658125235876,-70.069248320813,-62.7888479042722,-40.57767997746805,-22.48906015922603,-6.308873838974222,12.064144838502827,64.81279478254568,261.32693955483546,599.3732924041036,687.3146328255183,150.50381659668943,-603.075142569734,-838.2160033641145,-639.9267563280437,-530.3129294170102,-404.83044475070585,-24.808658638400317,265.00851529844783,228.00541850430636,142.43864090451473,151.97971440123018,134.67770786758334,94.18389615545375,80.23882423515352,56.656758505597956,29.054871345458697,15.982094000777469,-3.8962128752448804,-18.624663641653534,-18.813073825368207,-29.381684813243915,-39.70930858483335,-32.88067608872973,-28.237883732405166,-24.126229433258086,-7.039775963821786,7.4162568257989925,16.99799074475223,36.522735025777415,58.2554467020407,75.50355527329262,95.6988188567054,112.58165972951596,116.91231806439725,112.52683374476744,98.90468270198376,68.55887959617456,23.287452623918497,-24.011314576997165,-63.11624213624266,-93.51004298123249,-112.15183037296985,-109.96695060671911,-88.92097066943423,-64.64090082871719,-49.56505688647357,-39.12883877462234,-19.902122678915966,-0.33323196043629366,0.23662682583089634,-2.2809212411447106,9.77503524489692,12.302691807415183,1.961940390486662,6.24374363631805,9.934230243892133,-1.7196213474569362,3.7160045495846514,18.216564269255493,3.92689006592701,-10.724595830455634,2.784304747663316,8.86560935627015,-4.7514514874206455,-11.996224101014477,-14.175601649089518,-18.382999078620188,-14.366353416296844,-4.876582565196472,1.170455024492501,2.070447497915346,-7.5807272969160415,-22.18037563079246,-21.98744504597955,-7.501371974584767,-0.6373319155157304,-10.077424203940108,-23.130765170617426,-25.612898070521005,-18.957371422506693,-16.533607871887703,-19.75870569101392,-16.034119120599463,-9.52324660652425,-16.18156675193267,-23.497691546109248,-6.136949259525579,25.366003948958088,38.28784810363135,21.781191144478118,-7.210806942497467,-24.862940566205566,-28.195313130002432,-36.30960950161699,-49.63708383218415,-47.44498374784251,-30.502958714853413,-9.74146073278521,15.691862109287282,52.8154916860425,179.0808363049086,473.707838850917,687.3509226166068,374.9607185692695,-331.35503002869274,-744.5376468204397,-680.5288490483401,-568.4226547048902,-479.9275156741538,-168.5022870392944,173.30837440494105,231.01595504126038,153.50465855193926,153.50749894338563,156.02579463634154,108.09480774395128,79.01441640181326,72.63252166175397,55.242726737816554,32.18714103377161,12.279026417436759,-2.054075241775366,-12.784084828076828,-24.945434152634725,-31.88123195685685,-32.50568720615108,-30.165656817305184,-17.67554491937498,-5.229895800532079,-3.874526042499511,6.450612770605474,25.75809651180374,35.351596865055456,51.595728802082306,72.94503072712641,67.88976319208638,61.60226368632787,86.46886510070607,105.02489698174882,96.13113262788588,79.4124359654022,41.84546875490253,-17.487436822822502,-56.986223398483766,-74.25897769472408,-90.89126500630715,-92.34322280108748,-79.68430815244555,-78.67604158822766,-76.76533769545041,-54.235839617946034,-28.002242227421394,-11.09074133679901,-1.2814827410365766,0.9413752413150576,5.552325237067853,15.53862166229878,13.39925033088913,4.224291827171896,4.768039390514284,-2.0863104501671472,-22.086128079644567,-22.8258693880722,-3.4650823879880726,1.455932779816182,-8.544120648601872,-8.502472120391639,0.5720382427938553,-1.8172659782200107,-12.781937551044368,-1.0197371718914332,29.71272548020669,26.06876672826953,-14.53087698279227,-31.363359044637917,-13.053732606804424,2.778492598433404,0.5429967556579882,-21.204925778705295,-39.521851224491456,-17.26311927841954,13.25142607073316,1.2265857829811821,-18.637446793880443,-12.406345348581016,-9.660507274096505,-13.472223819683773,-5.769672839863986,-8.559321395443185,-27.392031233884904,-27.78154510831753,-8.312498873396072,-3.312417294736731,-16.07163857729774,-17.368640068010414,-2.9928607094698476,4.913945180471936,11.584471868827146,33.54157567267264,44.20409006605095,18.780654651576807,-9.531480887246229,-9.841430902752068,-6.303350092776705,-22.240772354961024,-35.066423731213604,-23.70558009059696,-5.919154166633632,3.620291631894334,22.891701238158404,108.07078871563034,337.7609402696914,594.7356836231272,468.80534283554323,-147.38352714771753,-674.8375317402745,-702.4934582412802,-570.5759322990882,-519.5689820881498,-288.513611479963,90.57722076450116,242.14372673589702,176.06112002985594,150.99005654661465,165.0874454223715,128.1340961331687,88.3708357708722,81.88173691941572,69.21519962456769,29.612689807171954,-8.889677538335706,-16.927135789164943,-11.549899680429185,-17.183139141600297,-18.34276220532829,-12.596134747734283,-20.50694875177559,-26.07349639235835,-11.71924922739053,1.3808333698051989,8.014400704713953,20.500308577768976,28.871003717628156,36.42994763838806,60.680572430976206,77.91697902556706,65.71213898697924,57.15017976965849,70.42034015163338,74.64869345480552,58.864530972612485,33.1527665116137,-6.576183759292514,-43.87394312280275,-55.33936411339603,-63.14098834830729,-83.42336430066987,-89.39942749781768,-72.84966980525304,-49.38283207774009,-26.93561904503964,-21.304361257352134,-32.41365393286395,-30.373429999566603,-11.486647879360934,11.989914100549015,43.48205220265506,56.656422876374,24.533676086091706,-9.821204189237505,-3.717651162113113,15.792948641205836,13.0683508041231,-7.536872888145805,-25.030712232660044,-34.367342957105755,-42.54715755838808,-33.983971087701285,0.999455380500077,17.817040133673366,-7.252932724357983,-24.66605381514023,-15.05518115805378,-17.570453996011242,-26.731745636910166,-8.110210344990454,10.328766720880946,-10.09766629246841,-39.621559863458465,-38.431025509605334,-17.54568635487352,-3.3953672476860923,-4.810098736124857,-11.732793607881177,-5.842793267143337,6.622489327698364,4.20311439733347,-6.623295324071076,-12.962463768065856,-18.21723469514233,-15.011445348550762,-1.5749614093425794,1.3081733637778754,-7.380776830707024,-7.4709573253212405,8.406493089781907,33.11965825685881,42.63499039769036,18.805764585394325,-10.914039974341108,-17.8373173806486,-22.294649846808706,-41.62328917691403,-52.04948126126103,-36.11980746455143,-8.775557314449081,15.591901605038219,37.542572141825076,90.04296078833134,273.7992208740221,565.3900231987551,573.2431113673654,17.48818703139969,-611.8367397135509,-714.5334773687424,-536.8224244399983,-490.6748298608924,-340.8999402631858,43.510045892781854,260.13718648856667,190.64813750889695,133.6325340078803,152.62383913078395,126.86124954331274,89.61525646454686,85.41516190202137,72.01296691313611,42.48895865054591,17.2313059249661,-5.838866770139538,-24.31956493160845,-28.83985959185968,-24.176284546844858,-26.858086523824866,-39.290293027492396,-39.954022939371015,-23.8711483939883,-13.468184447204154,-4.986980095502414,23.936603135255538,52.01020446974274,51.173033506991615,50.5874578986315,71.95461914184531,82.44837982134733,76.57482466951856,80.89791133508105,75.151386428383,40.81315647156202,13.928812697663542,6.1801143885127905,-11.195255222230417,-44.88614619608718,-83.75829893723984,-107.81036416684618,-97.95376623094484,-77.07093940116283,-65.26212391587735,-40.12388265220411,-13.473287896975808,-17.751090127437422,-23.947917215354018,-9.270126176740348,-0.30309399566681705,4.500790637373626,10.843781608839638,-5.307838174535068,-19.217785401249994,4.336469667526904,20.331097480400732,0.2487639266725008,-7.436039304400466,8.57164148165607,6.7841089259071925,-12.576455740450378,-16.910447964294242,-2.5621875401566268,6.23680946267158,-6.114714319038386,-22.081649359034646,-17.895005034728822,-4.4151173468981675,-1.3480078595703127,-2.5059315589209525,-1.6085849448716818,-6.8138352890177565,-14.333028510763958,-11.68336163703432,-6.208346950344295,-9.923895752957893,-9.710658705546432,1.6421147500303643,1.5312156592625978,-5.728383033759932,15.599610240422532,46.04628346900502,32.012001415511,-10.021389781025453,-27.486652403052034,-23.677223922212868,-28.104329938178992,-37.16401275163592,-31.873761804216024,-16.072884685821116,-7.718907620147576,0.5894029880220941,30.978214028935085,110.13875248941866,306.66871711456645,553.6957360092175,471.31960046543526,-100.92503781527736,-618.2816406733801,-631.1797705676031,-483.9907258807095,-471.4268605740324,-307.3850142019171,52.053080701370995,230.58381920911197,180.50632021686613,139.58542835558544,138.36319591120798,119.88136828498703,109.80203800817421,97.09707218680906,59.40213391418799,27.99956452360737,15.033785369867914,0.3812355837718284,-21.791654053738725,-41.51860203978066,-48.896930114218364,-47.60027829359073,-44.31518804095933,-33.24159053796743,-20.018113243293996,-17.51918351334804,-11.365272933415362,9.404702825980003,26.727311133199375,37.632693798581556,52.680274081186475,61.26279709834641,63.197462380132386,75.60990717477618,85.82382177770067,76.10771272717487,62.94768321840655,49.08110399687496,10.701623709145505,-38.96305869662279,-61.60364727926236,-63.04085578755627,-68.94478697971311,-68.77065675856583,-52.91249500428693,-43.22919309569295,-42.51877517155311,-32.85058705864411,-21.18020976387536,-13.352782824908282,-1.0625520886697473,-0.3468038813482117,-13.091023958351421,-4.55107806460572,12.437337734544977,-2.20305985969458,-16.012647870123214,4.871105575224227,15.547014870804446,-3.86341259475706,-10.01476742458548,-1.9929764715280243,-15.782965790161828,-37.6471350822294,-34.03923291410416,-14.463005356586695,-6.264213180208088,-13.320472401705986,-17.70330087291912,-6.363354198332356,2.781628401968952,-12.311689503943716,-19.348407916981223,27.085268163693513,84.3379924031054,73.93521055003325,15.541915780696524,-21.077024021041765,-34.80219479887465,-47.105544061260964,-43.931834493627,-36.19192565410688,-53.08812028017243,-60.383453873696936,-17.657188401123697,33.0381392483533,115.27123820065687,378.7516413199797,683.7367103377131,520.2091837532921,-151.8866916569393,-649.0053006369017,-644.2585580859478,-547.9953293970847,-548.9604241697655,-379.9722569212719,-35.42779350840074,198.29533979075387,235.63660537474323,197.6181444556234,170.24373584167108,152.3099177156066,115.17340038502331,67.79744762122985,44.86839588824972,42.086885501798214,28.694570802315123,2.294754802504473,-17.733230173588424,-28.304775451559557,-37.86045581655876,-39.9689136386347,-28.97569526776722,-18.83757507486956,-19.19648958309842,-24.146318747565015,-22.040641663278766,0.35256379958778084,35.80020298103266,57.61529850476114,65.16986224549757,79.58544067120762,99.7794267239019,112.69522591645034,115.84189762603748,104.84438818504033,76.08610593747044,35.400157746997166,-15.367458438706166,-68.83766127906698,-100.24915005803271,-104.6006897411356,-104.45918298533245,-101.26768639445761,-82.10923132410335,-59.23842960996202,-44.47118677812897,-29.714227773699747,-14.692235624797313,-2.884404514909022,8.321382144230022,11.09924836713914,5.226612015554679,8.158937605027006,14.056333243874398,3.6102774133098627,-7.056573798275462,1.793763179055503,10.524843738021772,5.6194253028311465,5.192673265415337,6.49033976032473,-13.183222922817041,-35.80165408144738,-30.912137440415655,-19.51115195558265,-22.726004791662636,-16.19166642549024,0.06495391710226173,-1.3288800702456616,-1.189858804949818,14.771417756170614,5.953427112854505,-26.02902172826789,-33.598563724254035,-30.402416621711623,-44.889631962572686,-46.82041831363126,-22.46365341724634,2.607259763992566,21.036910262198692,67.86152379789993,263.13880401304647,632.576222654664,760.8194206336133,213.11496448821126,-589.1971736941847,-848.7875937193227,-638.2549761782003,-524.4659171546487,-440.1417048581961,-104.69416904002824,205.91637459651878,219.67001785897926,143.9504202526636,150.32896165953403,148.53580128080503,108.61973107876037,85.17467740493167,67.83987392287906,38.880726879863616,15.633164172082843,1.5829906599305126,-10.16046194979872,-19.125564607713436,-25.874669939766722,-33.51307214853943,-42.75317149953867,-43.65342011926127,-27.304033932041044,-7.214813409577626,8.58451026407618,34.0926712587838,62.09964898897095,74.76634014192013,86.46774047220146,104.41476748947397,110.5608831192387,108.78353082969883,107.65899296801496,92.43070122734659,60.54195108421153,19.29012725423175,-32.15327175354358,-75.78656496355293,-93.3705764808906,-100.5727312011384,-109.14816595503746,-107.74354703257251,-90.42780107599643,-60.57789862016647,-33.87691179212109,-29.462645392390993,-30.972227922760084,-14.983207425828788,0.26576787933728596,3.1589658106238545,9.404562252623567,10.690489398049367,0.05555847071552833,-1.5633105686462372,0.8923258587256271,-5.329226253425773,-2.315074240332205,0.3150984598856894,-20.559708942559293,-31.45789258744726,-11.410956436708801,-4.055423401844234,-26.000888572405582,-38.79348902920585,-20.671117631845647,9.885450289268446,24.308208243461284,21.492616315406345,21.57853863431396,13.537312717737152,-22.93490639600069,-57.66376502288785,-59.53792357058803,-47.53719135997781,-37.20615443805455,-17.41638497550945,6.202490378166157,25.59300002062625,124.96201056881692,431.6732539274425,758.852868409294,568.6829050799704,-209.60896264489799,-821.9595751189338,-800.1437902660575,-586.4569977661157,-490.29782742231896,-234.98045050030527,145.0635199725828,261.8430143154418,169.1929617307693,155.0526830247264,174.17848791646998,123.82042700483206,89.86272431528077,84.29604269731273,40.27607001612808,-0.27486717994817056,3.7269765042529777,1.1532460025364646,-24.57570609418283,-38.32615137532958,-40.73626663394302,-44.69558239796466,-41.49873631677056,-32.57670110635056,-21.110644718689144,2.3159000648300996,28.6412265762863,44.11275410548429,63.379140608953335,94.39324802925574,121.72686640753466,142.71808031518094,155.14490096022527,140.01061286884152,102.30220333590854,66.34343984355492,31.12070533454729,-11.244001047568533,-55.98737784483153,-102.54213109457525,-136.7275252189229,-133.43372674779138,-107.65352831652551,-93.99852404188302,-87.36903292496208,-69.10006426408333,-47.705372444895175,-32.20365138212169,-13.704709805657394,8.063655101234307,18.348408741640796,17.176017610139397,20.02872183100617,21.270062048434866,6.300299572025086,-6.350151442034637,-1.2103340887784952,-4.212270189859378,-23.53815461609084,-29.996752175749894,-23.2148054521667,-25.558299203883315,-30.258822016834568,-24.46144481461431,-15.189619588685368,-5.599392800908385,10.110420928962819,27.462056232556343,30.067311692740418,12.596406425143929,-7.835260871344762,-21.699382249503177,-35.97949071118073,-41.598445893645454,-31.202905105142456,-24.92228269991545,-20.842728530794957,2.6017736742288484,37.742106063175946,146.7968379512497,450.1071921388553,733.9270794320933,467.71223439018894,-318.46879382108983,-838.9583967624561,-752.9509990426685,-567.4392536169344,-496.5660329153004,-220.93010690389912,162.51553892547466,263.68693308770037,175.1623085354497,164.56892329326652,176.8847118712419,128.12751954585718,86.18057710886868,69.87068955601245,49.66733302121728,26.57302521949664,0.2368220066115807,-18.23887263427935,-16.655697650196487,-20.039688322162192,-35.785121851310564,-34.95423150284175,-18.70906934740112,-11.681460508262228,-10.907094689157963,0.03840373914239592,20.420720799665922,39.67828325389662,56.676491957294225,78.96802255898936,106.69786138057208,129.49695574641453,135.11794851778612,120.05604409942413,97.65999093634466,75.66330621473355,38.140079631812014,-18.614141153951884,-74.4495222419472,-119.81993881480105,-146.56346284409432,-139.19645980668366,-111.03392675378544,-88.12740640773052,-68.86345009215866,-48.07115646811569,-33.2601210164175,-23.233449128368335,-12.008426414325193,1.6220836199871478,15.830129820603304,21.08831572183205,13.362293716601897,7.108404717252411,13.208033186197955,21.700937480559336,17.057113602234715,2.2777424024942565,-3.78634220456982,-3.2834232537569115,-16.002866510318643,-27.65591780710236,-15.554266360701575,-7.399670173985278,-23.876731145812222,-32.54692114759403,-23.902074214050963,-22.202841097876817,-20.315902259313496,-11.901250562800284,-15.544558974458768,-16.43486765791013,6.217960950384724,27.756470183681028,32.981832021634126,29.361679037893612,10.366274728702866,-10.865399722526504,-13.969778161151034,-21.69902168981894,-38.24739746946154,-30.26959275490329,-13.913800447501139,-19.26770996248872,-16.28302335324614,26.956985649692186,160.0374551526077,460.08617501604965,731.7684456039007,491.23389469465167,-269.06356145282155,-826.1643762707209,-787.0923306895229,-585.4258407235263,-486.82974996735277,-228.33851555506567,141.51610229670948,259.6526683547474,178.1887601476081,163.01355745664128,184.948433355158,145.48213257662948,95.54862462781975,66.22092928013242,40.29608650630658,23.516511720495778,11.35095188895252,-5.652321112884599,-21.659115133629143,-35.7706118548861,-42.62548768437228,-37.522528761829115,-32.36405406331209,-25.115640138515527,-8.294089794297758,-2.374802234310815,-5.608230230009369,22.17711098456747,70.20692597000908,82.03512226521299,63.522052105428656,64.85270808909846,85.84767783256486,98.05185006599643,99.27074970156781,88.15765013304797,54.48277331165795,8.641912173963293,-33.814761672246874,-73.1394022827929,-101.93596799127721,-105.91408281815353,-92.44389781987859,-77.84877984891146,-64.78661099093492,-52.17442052651437,-38.72854128229998,-21.036416347903806,-5.80276161403436,-1.1826387392137754,0.20590356883540295,5.695323310785101,9.600789515977997,7.687930101638826,4.826365629116152,4.806813935546508,3.3800575086893687,-1.326535766020001,-1.8002380232484576,2.228315964163258,3.381588566196611,3.6842863224447013,0.5883378490499833,-9.972919466825266,-7.04837187601456,14.087378704674851,19.037601425674602,5.340384093391911,-2.449692509309731,-16.87335237599469,-39.18270221343777,-36.010842413786854,-16.23205882906527,-10.099340529340532,-7.268393115307527,2.07433505198685,10.656917851545797,17.54703153960785,10.398362844419188,-8.94029685757495,-9.943430180996861,-4.016002397563465,-19.717381260675737,-25.94871307451546,-6.046698434809816,1.081723460016386,-2.7470169618195897,9.089113507376764,10.204659542305556,-14.094767751989373,-27.301348881163648,-20.519698565420057,-18.737224784688813,-23.55822449411012,-25.768141268121234,-29.08148267181094,-31.237493591655664,-24.66551038345282,-15.896894892082322,-13.599983086548658,-9.331225193328489,7.437956000829673,29.2930565860339,38.366718998842586,23.204678548501,-6.360096524157253,-23.629806097691308,-25.336406870908846,-35.94873420270524,-51.64740824433949,-46.18313998611514,-28.604405332632794,-16.227972350167775,2.8076073081743225,50.27347683932243,202.08277869757745,511.85336849977597,699.068065433499,329.5965969276559,-404.69097210747765,-785.8676668440521,-672.0430802752214,-534.5690175538869,-435.2358860604855,-119.91374582342861,201.40521236217526,227.20960890458696,142.9761664079247,154.31751586116692,153.32905317759196,96.23915466260266,75.63685137411565,76.39825676220228,50.324252129096834,26.565234219449795,12.335817093503325,-9.986710812811898,-16.13901574747756,-0.8130958729907398,-6.421351215087326,-33.077818766273886,-32.02037550493381,-5.580857154005587,-2.850043402061617,-20.820255304960398,-16.636140942712416,7.544016139387082,22.88116179758261,30.921315924262256,44.03908830244754,58.44208771598837,67.86458797338688,74.76790618486076,84.69487438219176,89.44671159676382,71.60721414900135,38.67327780167801,10.395967600319258,-20.492044118983067,-58.83262992599127,-82.71256960708132,-85.23161039067766,-75.53833252914602,-53.3919669922718,-37.364560843191626,-50.05511954433234,-61.197593250309815,-36.65514195388329,-2.3972132556689303,11.80925502697626,8.135795108844732,-12.10025717435315,-27.706882811164803,-7.01707819724656,19.761336541368273,13.531852752808867,5.475753557011007,12.065649528685583,2.8067843389147207,-8.556809619368636,0.44467926851996253,0.8516573576815887,-11.961238146908673,-16.35900943012107,-23.156474763706278,-26.33796376493652,-9.50475602486657,-5.363116263856931,-19.680831656974462,-11.194328916033689,2.127246900708233,-13.522404564011449,-21.92104206804712,-5.130798145903761,-0.7127450251298235,-12.444062628496527,-15.826982463991166,-13.229721335285198,-11.543968676364159,-6.191895101024979,0.5912468828170976,1.788853602022014,-3.9461080613867683,-8.136356030102275,-2.8782131873784387,3.0565498479484585,2.21738496140134,1.7024175489794704,-3.085725714540244,-20.338215832603254,-32.59436652230525,-26.92055199873463,-18.429577690187898,-17.266074810760387,-17.63295027625898,-12.386933107613894,5.430765607562842,28.932247507432983,34.738857603188265,17.797203029307312,1.9270998015665377,1.4486891433563338,-3.0032581826092333,-26.023239653303417,-38.73553533231937,-19.548580813435585,3.8885177203227386,15.06198441430444,36.70667826783799,127.31076376066734,368.39071981557333,621.5958797960149,458.35427957860963,-181.44321860454252,-685.750425656046,-697.3079911457658,-576.4635525251352,-513.5199260727003,-256.3386828341603,111.14557519175004,230.3341479922517,158.62971574086507,149.32091014760704,167.8032987027046,123.58792995478761,84.47824383298939,79.81787938529521,62.71189927784045,31.501641373302537,6.223933766512564,-9.021100446342347,-11.215995649212445,-12.015141818023334,-20.886785687624517,-26.292050897589217,-30.24339729152317,-35.08010033086092,-19.59399947780684,5.431911599661644,7.420047042116064,7.894478873489536,31.07218807731209,47.03959366299552,51.61416664736973,73.94376927689407,94.88858136729614,87.59709921840823,72.74564640628759,62.13950101259981,47.9707320433398,37.13721193237613,19.283031007699435,-25.994357256959887,-71.70886185714738,-84.21743649482883,-83.63482579740925,-92.25020923093187,-90.64490942588748,-67.08876283809406,-42.80832709620307,-31.60666971699611,-24.728916846277023,-13.983869106812868,-1.0634664157040845,7.7182268887321435,9.688561448348198,10.141675930596897,9.33370036635347,2.0063519356881976,-3.3656903871536077,0.9930576078817808,1.5486820783397164,-7.766446119302476,-12.491199236182457,-8.7094540106235,-2.5387732926323228,6.379422917596916,7.86118402978445,-11.21777287472483,-31.310886149871635,-24.22973598450651,-0.8372179160899371,12.314399018661828,11.255342029254443,-0.9044023202243352,-20.005462661784073,-27.28748489162873,-18.077199074168213,-14.326910105454669,-19.14637066854438,-16.448071028582298,-12.159337662299283,-15.553194166180406,-16.07524820255484,-10.806226235479862,-5.297396364049675,1.3284090568137543,-0.2579354576842938,-14.002619089155843,-12.112232173130161,18.595923536773125,44.26700457589998,36.98342547528423,9.38369370912082,-13.05825041478245,-21.840194702917817,-29.71238530545571,-41.01393323548481,-37.67918835087664,-20.313998022264432,-6.64386653910708,8.942959568084797,58.25102197995018,226.24837447684425,519.7603198797342,592.5014970367922,120.21143267929995,-489.1562444062757,-628.9913362131854,-494.3111782036425,-507.60599824465584,-448.0896674944108,-107.89873898977355,173.45738844673593,194.54120266004358,154.18884281096535,157.953139712249,148.1498137536092,120.13220440805726,91.26766322442417,59.200801988941855,28.344543959949014,0.5888211291353294,-16.115499007660492,-17.842024293525476,-22.816708687613044,-36.67803205770097,-45.53431741529291,-42.34532273569742,-26.977410044187966,-11.177979085552554,-7.322696916124551,-2.0451132402191217,10.94432353157191,17.470646321964534,31.624921328955086,66.01506990497272,85.59858772312748,81.39749219376026,90.68090209221461,108.60586878019724,106.22531647003427,91.51534779540911,64.0219142505261,12.120575407446815,-37.31058633209915,-64.9978102278056,-84.86190758361491,-89.63116210726461,-72.01526982561109,-60.76135664609153,-64.71604397031881,-59.04530669385311,-40.896730567040635,-28.338760045344088,-25.49761506539501,-22.765483583456458,-11.071895401383825,5.710394269979503,12.94405215621679,10.330474409286591,13.278512832862303,18.537376313422648,6.9226670083637245,-10.994077525493102,-7.939068084969907,3.7055135869548774,-0.6365775738029757,-7.222456686146398,-6.527972415193624,-13.13791422249833,-17.20328728319864,-6.357586862834068,-1.034441757836273,-7.02863752528069,-12.022114121645291,-24.521175200579002,-39.8827476063658,-32.77132299681318,-12.271073221770111,-0.5708572466616575,11.805604457998545,29.434537883130567,34.351295228050375,21.69495333421344,2.2205713108023373,-15.153634461550523,-30.37281528186772,-49.337197755651246,-59.657669569500236,-46.60650115944118,-27.40496667809235,-6.650655326726206,32.09688724117835,116.02018509834696,353.47116342992456,692.462439008676,637.0271912132553,-52.49501592759174,-695.3508045048387,-717.1864509624216,-543.9912562879183,-561.2987124208917,-436.0630460483493,-54.81728170648516,199.07686168348226,213.96289287575138,186.1028584882069,169.4958538469117,134.03821318817236,106.23620843212755,92.5394711892058,74.9395778419768,47.683007553821014,17.643208818786277,2.431206219981732,-4.176386775637008,-21.99099236402419,-33.577832840436706,-27.18720835858285,-30.547942580041607,-42.64711083838206,-33.84638670274639,-12.454008527898846,3.3450960246428494,23.629074053973508,47.63270297431209,61.31086615571403,70.73911505154771,86.3178698451319,106.04793657190325,122.29879092542888,119.66970692496575,91.2423445356873,52.646495690351145,13.697866788410643,-29.340782381826692,-66.12505007943368,-82.82358207839485,-90.94077981070387,-106.52313608490061,-117.39248722694025,-105.41068368906944,-80.30530333220203,-56.42540780621205,-31.346531009323705,-12.91924871197962,-9.508577770513707,-1.4126813507227354,13.795633776502509,8.790109213780227,-4.373770153254682,4.914146749510175,15.693080310683968,5.67312115766682,-2.8043740534959074,0.35359028223078504,0.8666110506936064,-2.6516185814153825,-7.643369677802765,-14.359670008617634,-17.998017483083856,-16.974506536955836,-8.781929872474347,0.15967194729994105,-12.093894959809962,-32.27526751200213,-23.408219520740907,-3.3304638793192725,-0.7857358285048757,9.474653620514381,33.31925619101288,32.596617675063996,3.376100742577261,-24.368633822347793,-35.68264502928582,-35.77262267245787,-37.401782091238076,-38.682317446076105,-25.838781689977438,-0.9013514969505252,21.107794741737056,40.279355304421316,148.3095812728128,466.2661258268108,761.3432596018413,503.63170473785283,-252.85383774965797,-746.6977861574159,-689.9946078987981,-562.2068237637512,-537.2298199206201,-312.20420058672295,57.086924661186394,224.0709642364883,192.1292660198626,166.71482402825623,156.60434425568295,111.24375539305808,79.72537634216883,74.70828317009025,49.10526697941767,14.977609007680687,10.022298378591216,12.713032607841587,-8.266328401224328,-39.54064651118619,-53.01491792486942,-39.635510973896736,-20.286310403825663,-21.300662326906306,-29.009891767869288,-14.765058560922773,11.654925643831625,28.05196101055067,36.1049253237332,45.153359123033475,62.00697102695988,87.36097184248048,108.99802678242301,121.37066694991293,125.75865034944354,106.00759433164012,58.11719211807596,13.383181617721469,-20.40388720383912,-68.75761525065536,-114.00171783723705,-113.36843110102828,-88.66070999246571,-85.83579634360616,-85.12869998351258,-53.774094389177336,-22.040963387971438,-22.22878961250145,-28.19400529858497,-16.082840403352897,-6.004809412301373,-5.362230791722988,9.587539491407814,34.58797208036454,34.57663770255709,9.3567739747399,-2.588769437646496,9.07772119859207,11.64617106964323,-8.34513092278009,-22.538525414525786,-20.014464900223835,-25.33803472211138,-37.52740795760225,-29.408271037918812,-12.22881572105313,-13.981793599730102,-16.892984767593425,2.255356434664141,21.617854702865827,24.497047749184915,26.725163199000498,24.336036893299752,0.14847782478983973,-24.353497217474235,-28.167657966866013,-30.05693847740516,-32.49440481002408,-17.35594794560995,2.832159652583659,14.54906843891006,48.631763287746296,202.35379433420553,539.6483014754863,762.62789373987,371.2979832849701,-444.7214201671312,-865.7747916527017,-727.293496213195,-576.8244087746007,-489.10643890908324,-176.8565313652087,162.26160114250115,229.84555027492968,170.6350760069895,160.3184455818912,152.2864706629315,124.44153253745924,101.7248125697081,72.16779331161878,43.65415057639055,29.81676187510143,14.430915584468355,-7.285003080445339,-27.560562078853536,-43.310106882530896,-44.47937017140143,-33.52554971778224,-29.913749938831266,-29.269185767027537,-14.196556609589623,5.421244576246053,17.273538503545954,34.20460232898376,63.09163877806906,87.53636384404692,96.27612044751218,101.64490141962992,117.41677050101497,129.87763955630155,115.74124593848032,79.22619238764081,38.01564578130216,-5.5920637491225555,-53.38002519925776,-98.80050806776349,-129.02266587326645,-128.41871408815558,-103.90671529067382,-88.70071846170386,-87.801782465663,-69.45403754727158,-32.79594766759491,-10.93090393298587,-6.215666935823563,0.7882612421703286,5.670052491766025,3.578830335675711,6.304609988223961,10.981691342178163,9.306878384992475,8.654604105579226,7.202465271157765,0.2096165509750083,3.341338910637024,13.753194373272944,7.239358603011622,-0.7401939386037544,11.777762281562918,10.646996553621104,-21.124227665117772,-41.08032509852747,-40.69241905481293,-44.02655698270252,-31.624543241087597,0.1586704700550179,7.866535570188116,-4.354126808840892,-5.063772562627221,-10.99893351119934,-28.319553387528327,-36.06480071032405,-44.821278028023684,-53.57211956875835,-35.553793239021765,-11.440143632546317,-6.318730180515921,9.12979646234902,74.09714967479036,268.1177447934822,611.853344648573,742.9523121090632,231.36756023954354,-566.7123156382131,-862.2579041750421,-670.7402452140539,-542.6571480179875,-430.23809386979605,-71.19111567289718,237.11872005881105,236.99748235238604,166.7739586313852,176.2285810251626,156.0405833426278,106.18465366535295,88.39261557193134,72.97949155973943,41.408635094545815,9.04128933774845,-16.095204888360247,-21.68490575442848,-21.383079233179743,-37.38822607430765,-47.148458545598395,-37.55376262312683,-34.04693680008303,-34.355290831150676,-15.895991828982005,10.060799138844153,26.181061607970747,41.04474041734808,60.1780488396295,79.15594322272477,105.87189173527847,136.39173544395123,140.85313908443314,121.7035552226466,108.40471839847179,77.81201922850637,5.9116990622606576,-49.903175219431716,-55.919758509084744,-64.15380092602526,-87.65698110888192,-86.81373196166214,-76.085703750047,-86.78492186989503,-95.29243334313652,-80.7881407316891,-60.87486526584031,-43.844207994027386,-21.095540820424333,1.9548236379260473,13.641943691132662,18.9276738658152,27.23652167566633,30.979992987180722,18.893661446892665,2.190402896530953,3.690705865238775,19.08384720415462,16.188673822658494,-11.950828425868917,-30.028827901042362,-19.40449371742612,-4.503322943829472,-3.3645911428287114,-8.09704673252681,-15.021364639927295,-24.332917598498796,-26.68652942113185,-21.240658559735273,-18.602839367980906,-20.006076220729945,-24.46961260539951,-35.19799068057134,-37.67338853337831,-15.159108411015584,17.393771784871046,39.884125931554344,47.16726366720218,27.562318121589115,-10.83088865114157,-29.402624817552905,-30.519715924584276,-48.13875837113236,-61.31294947938547,-36.66175488742404,-5.4486307270533985,1.3962461854082093,11.129433489600913,85.8600473512304,312.2058203249212,632.7394292029779,644.0418164774934,52.79037420192489,-664.9279032130148,-837.1064110697591,-625.6496444073678,-517.778611406253,-375.3274077537904,3.376753705175396,272.86457051566913,238.27186681858254,173.6611760274211,191.646807856444,162.663292779054,103.15731017325778,84.24687716115473,69.23201580354862,42.4570660746294,29.119858645127692,12.785275872364574,-23.938095362052092,-56.72122595952002,-59.602211746272516,-42.2875384271307,-32.98403559985971,-34.14162508585814,-27.87693474278346,-16.40878188491757,-6.906930759289072,14.139578094192228,47.2398665581567,69.68658332768646,78.53729794295099,89.65182084026492,101.90642086585963,108.36110016934491,115.85311594356645,119.16890326174385,91.16694732159179,27.673588381281107,-34.63251532926802,-70.12972401396125,-88.56795007106211,-95.30246537711314,-89.74339562806638,-89.3349189843876,-92.61776015691471,-74.17396463874715,-46.19367460525483,-35.75145164339304,-27.061745745035697,-9.164003950352306,-3.7456175857008844,-9.57024267671909,-6.324960282515445,5.737240123369517,16.573902176460066,14.24763453478025,-3.4762168879433517,-10.707138882173215,2.079088886402566,6.987728816438084,0.8991583367708813,2.964801302689658,-0.2652273984799436,-18.567569711277947,-24.166691771717314,-8.679258392409372,1.1332959166574383,-3.5620356286362895,-7.119907068431871,-3.802483744675932,-1.1631048136020876,-0.9132321958790968,3.6636819406916565,11.67453265246331,12.258207697617902,4.919264153162539,-0.5650656169708945,-7.844815819855636,-23.884459289550282,-33.07372992992201,-23.596391620189628,-16.069462669945988,-25.139009370220855,-33.38066953507912,-30.353908178682097,-27.098901001234196,-26.836336569078924,-23.927262753237436,-17.37630819985769,-5.788299304131772,10.184266715428626,24.139159813755565,33.41824117526061,34.649151739309666,17.708804490484717,-10.791855872345597,-23.870460259093495,-20.063874137323165,-25.599711926819143,-36.35529183160196,-26.23947294505011,-1.6039452038220787,19.534771700173195,70.2738563625403,251.33654351922885,563.4960872979472,658.3338092575846,178.77334241558862,-525.3583370453438,-778.4325367885532,-630.6995631802629,-527.8882682017277,-381.94481665829665,-24.67757954167198,220.1168308707211,181.84749951485142,125.93205915284781,152.63391871888638,136.2064495957427,88.27945748322438,70.17129786181793,55.860830764196486,35.54451508767819,18.423704243626197,-3.9119312928219507,-18.87937471952712,-19.161171835085305,-24.310825565935236,-33.43394918439589,-30.95279756821862,-21.825048130618733,-15.440263061252185,-10.206022086927995,-3.605977989944389,5.616905378616529,20.666499965255927,41.05888879943097,57.637060289016546,66.18954757119344,75.49545898421204,84.71497070961526,85.06798366828977,87.06596706524445,93.23207420304963,76.22590987894309,33.00820310423484,-7.376091308608243,-41.77041143520292,-78.42493133052733,-101.07571866034965,-103.90364774163483,-98.06983556280211,-79.59046917520642,-52.50631503451421,