ECG,5.149886056339788,49.28208597375305,84.47942723447437,106.3266732891684,118.01191881727003,110.91726302127263,74.44201149212496,29.06129583411393,-5.427947097475675,-39.86631235937064,-74.34685568610513,-97.0709146086653,-112.9938708644771,-112.96001825390874,-85.30673322452748,-58.30520657241331,-45.397552974055884,-27.48515281165526,-18.911368439984642,-29.026743118467003,-21.277633098500477,3.3047035583754436,10.074036573510508,10.472627933730667,17.35873991085159,10.92904175517735,-2.939643104209111,-7.109864355646835,-11.032573649790884,-15.360028951904471,-12.339618152628319,-13.945467048682257,-22.490843745649578,-22.212474694752554,-17.079026415129402,-21.37238311635874,-25.127278773874274,-13.948970118844066,1.9264881350874652,12.616066505848789,25.073881876334486,30.433451130122076,11.420787035732937,-14.269771042172193,-25.135978269290565,-34.36796804258185,-43.80472162341988,-34.64531749295144,-14.415500348427404,3.4628381955857357,24.695077850495846,86.44413362359909,294.4216482331295,607.5437676381974,599.6593205675965,14.225214742196414,-615.7544607539487,-725.2996799669451,-581.6575888348326,-530.5138030764078,-331.12537897500636,63.20462804044427,244.93004409452413,166.04795722834172,129.42972339590852,155.54240703635674,122.25622167758851,80.67302064402502,70.60391914191628,47.13521942066195,16.509890508010862,2.339199138035939,-7.496068735608803,-17.78681313660382,-24.091511671641776,-26.24658583623478,-19.88896912656968,-6.512127632863356,3.1843605864872124,8.62145955936965,22.205264224022056,39.90091370341623,38.219228500407255,27.35137332094082,46.32788122233302,85.85664845427877,105.30494089782404,102.47516088769108,86.36907223409622,51.90771313554745,10.478629416013987,-28.141351173927433,-68.12750101258997,-96.53584931721979,-105.780888556939,-109.89195889170831,-102.59354660394814,-74.06475549081868,-47.03820056909814,-33.7837398370336,-21.37006314482516,-12.005582981658144,-10.592475480055583,-5.494313271464435,4.079043253573911,7.930176256988837,5.200289030351847,-0.5725630441544318,-2.6163753323790253,2.8011984415923266,3.352448492667893,-4.197254497893471,-4.124919159187289,-1.016207585608047,-9.458094026289244,-14.311151633558623,-5.858770905276206,-4.144982600357023,-10.781329578265293,-11.059047735551982,-12.255538505414709,-14.35429383766821,-2.9546577135487286,5.896167604299155,-5.066359304880983,-14.171915950324316,-8.76836661793681,-0.6324235266842746,11.087713181222474,20.506581344989996,7.335121802945585,-16.926882320086964,-27.941500741650195,-36.60356999761194,-49.00981018299858,-39.22464075889767,-12.79302177990128,-3.7492198382014976,3.7230940224742852,46.78395690656437,158.7443205831733,398.12146514071515,621.5461129700274,409.3977065943262,-254.82996156334957,-716.9490560856284,-660.0252732283418,-516.7703426718333,-469.6323496566735,-219.99652928255387,148.47396850454578,260.1795745384092,172.78154640467744,146.26090391808634,156.45772834099353,115.98194592179925,80.30802217193917,66.59781302501283,31.938259912532523,-2.5072687907271463,-10.693131739333047,-17.3498284165695,-22.22387121533518,-13.585582847111517,-20.669311839753224,-42.911660797650185,-40.2752089652997,-23.528550769973236,-19.46539346952985,-7.96642210539362,16.4541446729424,31.63485424817178,43.58901689924865,61.45876315068113,74.53310317523912,86.90054330422626,102.15679070927624,98.07610291321471,65.23202813773165,23.748290396643036,-12.847676029585186,-45.95620865993168,-71.25478452518018,-83.93885850627109,-88.34989231904106,-83.63603577256428,-65.6535077523487,-43.915449566219806,-29.18354031322597,-20.26421575819969,-13.852175057262535,-7.474348926461854,-4.019094803701833,-10.607739955532313,-16.122055361046215,-7.502400390417613,-1.411390535024971,-8.448511008731792,-11.472592584082697,-6.665193254477796,-3.1667849875338874,0.2967287511763743,-0.5200630604313758,-8.145856461860939,-9.912228948993118,-6.150298683993473,-6.441246841194641,-4.590778296308914,-1.3043551727891014,-7.957755255644905,-15.333340929885757,-10.614130622521216,-3.8558344936731945,-4.8049333137216585,-9.699094451477439,-15.605891346387617,-17.731677256789894,-8.93304645924763,2.801490001513532,1.6582293841748346,-10.15581298655458,-17.545448703562084,-12.072194123200752,7.181737743268077,32.45255876393229,47.7794580522178,42.51744444407569,13.764610137296422,-28.668248904054387,-55.43173763628066,-52.67410901660193,-38.72443833108865,-24.545797798903365,-12.12577647161297,-9.879561334279533,3.6307056015507584,103.21047379003893,352.3232317963855,600.0236252993686,449.58805331803285,-170.19192706820348,-672.1901432597559,-662.0557518412865,-510.3411869823758,-471.8739309060976,-258.42896031296453,116.28117306831861,257.4935324602154,177.48970059405372,156.03642275885719,172.73411951255878,118.90193999736803,63.014308039199086,47.806322555586135,32.063201674801974,13.378501419414654,3.1426894991173704,-5.318949330083885,-13.245934250714281,-28.812220947123176,-48.1642698692439,-46.66929314269606,-32.43877733744802,-27.299512174915435,-16.904067120238206,2.7643225585822098,12.475083679730307,22.558425524433854,44.255201499203324,60.94228611095181,74.06628010712274,90.57405862296977,95.02874237920835,89.15332712609522,77.71548285502764,44.17350025105436,5.379677113217291,-16.286351694144688,-53.394537156375904,-102.61462738982229,-101.91470463138731,-65.20282346213166,-57.24289226743569,-64.40036062475261,-49.88045620944298,-34.30882925794123,-32.305677303792166,-23.467696151165413,-5.325666644169679,6.171101830664647,8.59262527244422,5.099969896441401,-2.085218358357899,-1.7391880421056563,7.82822650615274,9.847320100712505,3.024741637144734,-0.70786418568537,-6.442096205633652,-14.314956513597856,-9.681805236861953,4.398626533178967,14.79637648843686,13.675514427465414,-4.053727995035393,-19.381816602407792,-13.017930196561874,-5.194167332921346,-3.0981998447196606,9.96631498807212,9.818664365218638,-21.449834122426104,-42.106185695880875,-30.93290177666849,-12.960630623426573,-6.76306761980382,-23.049281172343477,-47.40278149327254,-39.871259800826984,-9.401415394157258,9.39253324775899,27.555821007865486,40.93815143430374,17.430656902384875,-15.50794427644805,-22.05066504379485,-28.931948319593786,-42.84282789226798,-37.07000122308153,-22.10723683660916,-9.036966157901627,17.24097751724102,103.38868969893913,350.9461084814185,652.7824474921374,537.9945224984083,-132.09259066098883,-713.0031169513986,-735.6339198033329,-557.8559104399939,-469.1926236649506,-238.9941877352628,112.3539933339822,241.7112282280064,169.62020114501203,145.0741937322542,158.1184983224632,118.66452645977895,76.03737340241885,58.43232001085797,34.437751947855745,9.488149122353079,-5.09416467438519,-16.729525928456503,-22.076858411095834,-23.639522109990914,-30.236563338884928,-32.87708176050651,-24.815270388473074,-14.199995147515736,-5.374637044158725,3.45197372895743,17.418628146685382,39.176558166756045,57.59982221442189,67.3327623595262,79.89412655146722,95.36995774464674,103.8966234458805,103.00815514260611,83.07763995252311,41.38171655775109,0.39570972654916314,-36.85201983431474,-86.43256844697555,-122.35789180579705,-114.03010869252526,-90.43116186055403,-77.90897080278971,-58.004065317917096,-30.99384415382351,-18.61923669610573,-15.557483625936158,-8.704877527412489,3.7423702269902748,18.36970425045058,16.65158714265138,-1.7615966857218055,-2.3814883240477016,12.246436713267638,6.420732802223572,-8.698818852631696,-11.364179751426636,-18.904471919118386,-30.495858550029084,-25.303788036784407,-15.566030180439942,-14.810401263844703,-11.472563707516347,-6.880621512082545,-10.438299665050017,-14.897684274833605,-15.975673458530068,-15.538583129138384,-8.586702050114086,-1.3140507455523398,-8.767919255725225,-26.586478414533794,-39.87541055782516,-37.00254517205729,-7.079883142737793,34.935901467185666,50.09876518564779,31.932498073324737,9.703912731218589,-1.9854929145583053,-13.401208487288162,-35.72198804235191,-57.7284395861079,-54.78092820275033,-30.59854292800593,-8.898474267809451,12.044577105536305,94.16424938594889,347.7571778285443,669.3585514392407,578.3570998483882,-110.83532078555993,-746.3384905157433,-784.167280479226,-583.3043035688852,-476.8246625091186,-215.3229471828261,162.28322343247703,260.8973409095915,155.16456759673537,146.8739067299354,166.43519732359093,105.94532061676902,69.76747546659755,73.23111292430295,45.17248095361468,14.428702320591583,7.852777761064844,-9.558217731833066,-32.80887732434234,-32.68031559769196,-24.176851595275487,-27.336628154133525,-26.745093935405443,-12.999979565422391,-3.3326758747093113,3.1078330617022054,24.85735219578635,52.04024864346391,66.20719433615226,73.27882999009016,79.50213636808311,85.62780621687601,95.42123431823583,98.1738854445005,77.60978464592563,31.482849955928607,-28.84010456104601,-75.4346282254408,-92.96077628853449,-98.69481253684526,-93.90075128333625,-71.86646969644535,-62.94102028300044,-68.5403521742851,-46.31072067730656,-14.380804631150667,-15.124154390169707,-18.53183313209513,-1.5669299571127873,2.5720322350833094,-6.857302662143539,-4.990789269469804,-1.4224028798871657,-1.1676960025785235,4.781107067330501,2.6186539017113866,-9.633734505954344,-11.405619938179322,-8.490171885631428,-12.471348892694305,-9.510408117975016,-0.305886157339085,-1.0169240751516213,-5.65709881208015,-4.473118263504787,-2.1617276499822893,-2.534915114323436,-8.780263485159157,-18.859622558712502,-23.376822927222552,-27.911373795429032,-35.946205143748806,-24.158398985282055,11.204319350958173,34.35883712989295,27.70247345467933,8.202293760366707,-9.55186846770138,-23.20136518174204,-32.286969666553006,-32.878543285669565,-24.423002831977225,-17.00624916805391,-10.765739519179224,7.420846195198479,72.9945488258953,285.08087463540403,603.2612600801682,599.6642992574837,2.5504280744706023,-641.1605907221837,-730.4280932022837,-552.573820689715,-493.0653826122891,-295.46777011437865,93.20642124304185,247.4264257124707,154.60428436927643,135.61609223590568,154.8324671816942,90.70613026847532,53.67529139067097,66.31792032128978,44.337802572101864,16.08816729418008,7.697571123587677,-14.491259781318323,-30.182942936207297,-21.00460530059679,-19.089882993254378,-24.500575199050164,-18.713068381216672,-15.107714334988435,-17.050330166666644,-6.952200413946445,15.885364870635033,39.00562856953721,53.22471043742748,58.25338287153974,67.67989447904837,88.96725802527344,106.90235122126683,104.17426934086807,77.89384328329227,35.69329809772649,-11.331323565292282,-55.825524237955726,-86.72236098788558,-90.33019353573825,-80.25039983541829,-81.67216414279652,-81.24833647911088,-58.3418554894164,-33.356973019696,-23.58121211465599,-14.160473520490342,-2.4104331240065306,-0.9542409225833275,-3.338470130016411,1.7836571192160697,8.695826824749531,10.672887598926334,9.886730836493289,7.545853058821515,3.700750837957834,0.1566910850186538,-4.821495578435119,-10.595521189749544,-8.495398375320946,-1.1774784030705323,-3.82931597250613,-12.921013985831724,-14.719308912907895,-15.365007610997132,-18.854228825015426,-15.546627025097248,-11.518283570099445,-10.890365744829591,-1.0247913388331789,2.1266435270762294,-19.54224808183141,-28.061387575297957,-4.3685595946045375,9.177811078757147,6.913532488931842,14.688206200455049,12.415492604708227,-7.879864273452455,-21.805093590144374,-40.208738735619875,-58.97381149317512,-41.57053559042264,-10.488041108547463,4.360805478674962,35.80225807765335,134.9084749473686,363.76497198532513,601.5974698684624,420.2207679822161,-247.88746428078687,-736.8861314930022,-686.8600379516772,-543.0859716680447,-483.13098478346944,-190.12929001850088,192.0095982753648,263.5710653881355,162.16258127214286,157.24585092073576,161.58062040035196,104.24205119273972,74.14187762079536,68.85589522615918,44.03867604179533,19.28240800564023,0.9567595478018074,-16.648887758030128,-22.33901511128012,-23.00259352638691,-26.62925459510558,-25.607878834570016,-22.782048453321522,-18.959194550583632,-6.199416387930057,9.623147256053933,24.143838715781314,42.76887687798209,59.38375796530679,70.12246744872351,81.48388945759436,89.64010590493481,94.08783769103832,98.17192820551234,79.06268280205431,25.419169956985705,-26.831368066805066,-55.52858294263183,-75.63940937433199,-88.97293936181495,-90.1589725031441,-86.2947517111356,-72.14152686372614,-46.083141185270755,-27.967580046292337,-19.583516636437388,-11.229157007623513,-12.823810616079925,-17.046866682374915,-3.4166253180943222,7.989243298400435,-0.20554937065515944,-1.333277087035606,9.31809893140283,7.729719368676875,2.1015363840002674,7.713736272493227,15.628750198594705,21.80941274814018,18.67547460795015,-4.432122035659884,-22.72201095844445,-19.75368735635355,-25.497768902266465,-39.76548957680481,-30.715733615916093,-21.333996860183213,-39.440742040428,-47.59331724702665,-27.003612777608737,-7.870804853178285,10.160252996041987,33.29696973448293,27.77375511449826,-4.9710915400865066,-18.752154826185958,-16.88778634063492,-32.02705793577425,-44.141202434815085,-25.733190881589767,-0.5871582806273175,12.603209360628508,29.76337382072577,86.43560713816032,268.21405259459186,539.7215119306425,518.1437451460519,-38.93173217607881,-629.719521285601,-710.234621060342,-552.3281900717277,-501.29514006902474,-298.34117037832004,106.66086626413774,280.49724058218766,178.95461260972877,135.2843584130185,163.6906619848392,121.74628427167707,73.21705138863754,68.2631905148953,48.38396050138608,18.39772474004881,9.56075157068223,-0.040629918640608054,-19.503405724799162,-28.320522300744155,-23.5399938825647,-18.667029891904477,-16.49418867892457,-7.855501550900675,3.2348176432285634,1.5904359323110846,-2.059666486476104,15.534176584723383,44.26757858882111,62.4778270507008,74.66098328964841,89.68819342063819,101.68625650793422,101.65827589129506,81.65251201400397,40.914853510886545,-7.633087664392027,-49.57509890898152,-77.49412039893397,-90.03168429434851,-91.16757087201611,-83.48380617634629,-69.72890479584979,-56.37740776371909,-40.741011319337844,-17.677800688700984,2.6279731207329142,13.281658781049424,16.71224851074122,5.3030793125261475,-14.92589623967315,-16.0379739949333,-0.16300142953550356,6.774771464633764,4.898110567526196,-2.3217502930420046,-22.264540619270416,-34.948906100126855,-21.72720294029835,-8.684680397172514,-16.357370737218595,-27.513735355317284,-28.766092023585532,-21.42236242136861,-8.38204185432773,-1.6011537794808497,-5.231511606231299,-3.5573755909669096,6.11132715120082,14.015657142737618,26.739808676308463,39.39816140924259,23.932508069149698,-12.757933955559773,-33.40220376907825,-39.413884677665564,-47.812977376994326,-39.5762626311371,-12.173530238587986,2.117546079744713,9.119309577673427,38.261292054576074,125.6316598502711,346.0467097679842,574.347019823103,384.7199653046995,-261.17203949845145,-713.7077047731269,-655.6537542513588,-519.1919639626593,-458.22653301905336,-174.48200287474705,184.35419953690516,244.87774919161987,148.8122120531733,151.58416347987878,161.2693996553223,105.0261367221263,73.30353149187067,67.13798509535397,38.09586147100002,13.000309383724533,8.918211604254182,-3.010334607366393,-28.256737924572313,-41.119049489184945,-34.07941899695153,-27.391512639171403,-28.109333219063195,-21.66324762354171,-5.107444580616779,13.048033439873345,28.1391313577231,38.523507391014284,53.30900236149421,78.35023501234748,98.782694289163,111.36174569894065,121.8011601140328,104.05839158781862,45.27824004574477,-13.487630279537047,-46.109400619660036,-69.67671918742023,-90.33648595499083,-97.8605743944377,-91.02255274016105,-75.53042224535726,-59.209919849519174,-40.591360114439205,-14.723220502735202,-1.5074006235869923,-14.637968282924966,-23.209687739516866,-8.110974858745454,4.436657505761513,2.207277258837056,-0.26531906904489944,-3.2544570691425463,-10.524511848317431,-11.39991674472272,-5.703993396297756,-4.7880628424476015,-7.732756172334206,-9.237950146942456,-14.8882105337007,-25.70360520893247,-27.409611187911253,-16.09890304429807,-10.973926473904623,-18.226426747966954,-17.416839291773435,0.2524351701925571,25.943858961123574,50.16698157333334,46.813722419479404,1.9401657382106618,-39.77424067178512,-44.56783389584062,-39.643525943702635,-31.74942360607968,-3.0743862598038554,21.989590732661703,25.1857539286919,38.865861957531436,143.0804221795853,412.6010494766866,629.0913880762309,327.4719080011231,-396.413264501006,-803.5600815791839,-689.3549734979902,-543.4140427800901,-431.0206664617195,-84.94898520898775,240.22983935992147,235.20392223748527,138.1084661892594,157.8801246346816,161.54562050419432,105.57885762679297,75.78676286167064,58.64592374986465,27.880507774290223,11.154437569172442,6.158368614071467,-3.2276891445102134,-10.046907564398595,-16.148890854000552,-30.349016839572908,-41.06190996626441,-33.86399000503357,-17.235590587912128,-1.2907065122664356,19.30484662411912,37.11967903853248,39.419766085732164,46.02791761492033,73.00684769322865,96.44759669777088,101.99797274867922,98.71143001630577,78.00057228927855,33.72325014090512,-13.023997096384578,-50.41619505535069,-81.92977134586557,-100.30336135148558,-101.14762557471627,-92.105916419592,-76.02847090739516,-56.228239920957726,-39.99692895662854,-25.99461563272112,-13.902839918531157,-8.289855724576366,-2.9805471983156338,6.6145169965195905,12.54978513797591,12.719308898305723,8.306307651690066,-2.6464320650308117,-11.64141937976416,-13.488038655322164,-15.888728859562143,-16.480943156362645,-12.75926653036965,-14.754985863381872,-19.142499105278368,-17.502494418444037,-14.494783285735657,-5.250896935540187,15.655627370467782,33.601412065887814,36.61083221361869,19.554390998722333,-12.872697890479127,-30.999924522988692,-26.75260303142239,-26.02491264548265,-24.66476105140122,-7.982477219513914,10.083306415141223,25.999871697539277,65.08155318272895,212.84209380662165,498.54979213274834,580.7078631028742,81.215566725697,-607.4963061993234,-790.734178987606,-604.9707885975432,-515.627040912128,-348.3889581901866,59.09345684202335,302.2901284712216,226.68349904122337,159.15287481197316,187.76761857108687,154.77898223410773,87.87651774082036,67.61154647508954,55.41723167873636,33.49352871435793,15.555183807784285,-17.820644188256615,-52.891760178869994,-52.48772692956431,-35.4001461896987,-28.21945380494475,-19.302034119284222,-15.09336744723942,-27.563287926976656,-24.988158190549655,7.348184796613726,37.597325072748845,55.42260014762644,72.12462602170751,85.39827363822472,99.44987191730408,113.27805500569269,105.3757404376439,74.46635151977671,35.17367090249053,-11.661922832189621,-57.708388154812425,-90.86962673608957,-112.16514423600749,-112.67814176582431,-90.89164722280447,-73.95339609698269,-66.31563538051626,-45.418916766283836,-18.02856738093481,-4.019304594628931,0.4209812227930563,1.4542601499705725,-0.8344894690724196,-0.6855497871512135,2.023928607151827,0.28459235488768186,-5.280025137200926,-9.23873007271494,-12.047530718215494,-16.18729919939488,-18.135493047388444,-16.243809304755022,-15.839585256480499,-14.117526711758952,-3.4085609206978855,12.711134633797528,30.197367434997293,40.16216604556626,22.367250702380638,-9.974987044508914,-21.190349326006412,-21.90460511353632,-27.35657951550814,-13.618284386315132,10.256701538720897,18.549677512622708,31.008122171980634,69.34773766094658,200.41175976681478,467.867098639896,558.3553828457884,98.59203416733442,-554.5232604901927,-747.9972902730791,-597.2937104324808,-521.8098809106307,-363.66509610763785,22.04317445496921,275.81778478824685,239.97840944785358,165.11074811309624,150.35989512237697,124.73887730323136,99.51461616802149,83.41444254575494,57.303964915588615,34.39090316205815,6.920981106115781,-25.944442125865987,-31.226487219342232,-23.556235295406054,-32.97462750123184,-37.38993258668355,-28.13233556092308,-24.743694740773513,-15.015211802819952,13.549449083913304,35.7478280762233,36.14952691259923,34.84725502518601,51.20613092804719,77.54716625774107,95.77303564269582,102.55079077777559,98.84756754587661,71.42119281713133,17.08556622159486,-37.23437141798793,-69.58206885136218,-86.67799001999092,-95.69021911086529,-93.78543752739658,-86.25083122137647,-76.71615324652954,-58.278639499127586,-33.646400192212226,-14.020610316183273,-3.9488169576230376,-4.6639951323845565,-9.070990254730805,-4.340504970641785,4.095952773752087,3.815797790844318,0.03146713807083401,-2.4907518634666417,-9.54898468836383,-17.694078451721396,-16.356358071991927,-6.391594011211815,-0.8875422280257581,-6.92602889158497,-10.899679503333372,3.1809805625395953,27.161850550490783,37.55162713542774,22.887746083688725,-0.21452093813461115,-10.106310684790277,-20.104958477479293,-39.85106407732741,-32.26709395863695,6.574775825561508,27.183625367232807,27.50082748397072,50.40883234985453,165.34622259105794,418.32740575113377,547.7156542510531,155.4076807954481,-505.9151339374937,-752.2181767315815,-595.1072836528919,-496.88450074929267,-360.59290784394267,18.16964905225945,289.48029800312133,236.38328901911007,146.32090996599428,161.6241945923366,144.11253164015386,84.02449131395073,62.45294326195837,56.47800774460455,24.072894721814265,-13.008634672720316,-25.54605960450906,-24.92706236335303,-29.9017137255342,-29.74770757695173,-22.512561941682875,-23.99241015646356,-20.410982363862036,0.5929760709062712,17.36675284263919,27.565384273115008,44.03714337297945,55.17824905903336,61.555450415894335,79.01589037785541,96.97904162420718,101.64398586277014,92.15561585583498,59.70363379366519,9.178395832120152,-35.10940144481369,-66.59601357111984,-90.25800184047966,-101.65553553620205,-99.45551983311769,-87.95241002626194,-70.47920412521239,-51.48583795863815,-33.628780922164,-19.676294954066556,-12.12544307799385,-6.102346230459368,-0.2875270738686062,-0.09995378128580867,-1.0088054131658097,3.8708611877294956,8.716801871797685,3.467073960581324,-14.42499168862587,-29.544710661025416,-21.991024461754172,-4.980743347417171,-4.632042369671909,-10.904066123562451,-3.6803065924949783,11.933674840635838,25.581777049426996,27.8318671374589,11.264092383117113,-10.662252956556959,-25.243742097723697,-36.025369403879054,-32.86199801937407,-9.331672103743733,14.6438134762904,33.27813502799097,50.820794812246575,99.22252948675731,285.33233968300857,529.9955949651626,403.4155903753563,-208.9549084698297,-696.324109849367,-668.3778485864779,-510.9304396517582,-443.7943839662182,-185.44515189787293,187.94807629009716,283.3483119757731,165.0954817978559,126.10911432024935,142.133715292221,111.20750473190844,84.62538505060374,70.87556657021328,27.724557263791876,-10.190740244874068,-13.254454218399555,-14.191870543944065,-22.839797127551254,-22.431008568285257,-26.144868031797056,-43.11697850988853,-45.72836575756055,-22.899469737151794,0.36274472893920695,13.565168287028833,27.347712243009035,41.190451784762566,52.77404991078676,69.28248647795328,87.93163076918498,99.05306473043585,99.98871620018994,84.63173554017409,48.17067343480243,3.32469598624829,-35.69347307475246,-66.79395710700145,-86.05995446452238,-86.9053515021726,-73.8765013594394,-61.18779676063957,-56.52227079610558,-50.50596341043394,-34.85017102979162,-23.11607048477389,-24.808466873633343,-22.52174476321329,-8.730598200670947,-2.513435358645708,-6.524933377674014,-3.7668448514771598,0.8359838113712961,-6.753122940959898,-16.874840828985825,-17.95317531592451,-13.930395285164892,-9.06895284366809,-9.058185923257447,-15.813981762172697,-12.555830290798166,10.682876560134947,35.77542476790883,39.4615137495519,16.09051405947248,-12.291589225139269,-19.511252515493148,-17.913088613509075,-22.146596274998764,-13.027806587260937,3.4139365099017134,8.247507448673069,24.490969043052424,69.64104968130539,196.79358872588244,456.13338424511767,558.3402532098992,111.41876789566732,-558.4732439054486,-763.5975448198062,-590.434733935518,-500.42743679351634,-351.07042110298676,28.666306749840672,260.1320840474134,187.57437275868534,126.01066594522084,159.1743920355045,136.01527536255963,86.08100006799619,70.18217322672857,44.395826721952105,15.542233771945831,8.004781001667563,-4.2532659688202905,-18.220692597441662,-19.9744037757373,-27.18992930129803,-36.15422084424273,-30.471465760902024,-15.795861764446395,6.062748404301733,29.156798549953823,38.26845656265756,46.02319201143362,64.46062428496401,75.04957411357955,78.33898340255291,91.32072338959325,99.07184627746247,81.99842850788461,46.794836388400356,8.071487073794827,-23.32750695930895,-53.343258205495275,-92.85246361020128,-117.0726155835149,-102.5538056265354,-77.26831861254298,-63.32437398521422,-47.5229419602102,-33.38661278261892,-28.73687445525892,-16.738027196746238,3.2372136967582676,14.988772115550164,21.218717875704858,22.915385352297125,12.695242515992579,1.886781940968099,1.3088284284014584,2.7684792468981616,1.7627022283987444,0.05447599964041672,-3.494621692960415,-9.026106297308772,-20.769896184534243,-38.03286446770737,-45.07672773437669,-39.954417896739685,-36.61938173965149,-29.484654212817816,-9.066487401235282,13.72956773490942,33.53343379850396,47.43127618376323,33.020575280442785,-11.276555213751077,-44.701956855257066,-43.79529793897995,-28.804702706344784,-18.8444967963754,-10.869539513139905,-0.5359298799460177,9.406715371201376,63.3802165173221,280.2069625025665,596.7959527565627,561.0632477193642,-67.98760230572373,-713.7377753928951,-789.6639794062555,-585.1184546129086,-474.8850208876318,-239.0539739168719,142.02905092184167,275.64707661078296,176.90885026096709,151.4044876763101,165.5422132490924,107.06747301386346,68.28856687698226,68.24005829443362,38.29401190350316,5.59968060715096,-1.768887003240616,-9.540256311419052,-15.728010170866133,-16.881095798217764,-25.795571588174028,-30.205472794653268,-23.215737774286833,-17.03400699196164,-5.166502250891375,16.527110516946262,33.222393534124706,45.70851139866991,61.24117848306681,74.18994895192118,87.76141773160447,104.07376895391498,105.77350468812571,84.3016242590794,48.54650695022551,5.39996651483836,-36.50333766826701,-65.75202247928365,-81.42772374305787,-90.56861235007287,-92.87921960503445,-78.45981542538696,-52.714410368590435,-40.84759325702372,-43.41961167483544,-34.94709996420331,-16.412239652016545,-7.026590279688477,-2.661641519567233,9.38483490274227,23.66218026184722,23.731168077452903,6.509814218229145,-8.030733443158287,-8.878536853126825,-9.371051601275598,-11.924667156729916,-9.904722164985131,-13.210866645757292,-20.60785335079988,-15.609901346944344,-5.717026089057965,-3.655983413144039,-0.9440435767826418,0.5427057893176901,-8.1266385314467,-11.740893050276913,-0.7558035512111818,8.972729215683827,9.381737510024092,-0.3893839395586589,-21.904219061335436,-33.08991611781504,-19.020229017286866,-8.651657803880404,-17.15436972901267,-23.31884011171347,-25.694096636820646,-26.513563980266014,-3.9238653327073107,27.39460202279861,22.136487480206,-9.400215561084183,-25.2863817015872,-29.66715111296471,-40.0607309081945,-39.312756952438995,-20.471775549951943,-5.327991646207753,3.9881101591624475,31.75616330835478,149.20421271698572,435.7968527610506,673.5907296570447,387.6053719434838,-344.43804174203274,-780.5082349722096,-682.2999245174866,-535.565783125622,-433.82452881498097,-100.25858981275613,233.4537569524956,239.51843063353542,141.06806897624077,160.0823684956022,166.6923459019496,114.93659555912805,90.60420204046743,66.99510950254606,18.361769539734976,-6.857410267198203,-13.929783036071655,-30.88218248453615,-36.79187916075412,-28.55624733810723,-31.470016009626587,-36.305370609349644,-25.163069772211863,-12.35793094185205,-5.415516943722565,7.388590502839099,21.80856088886089,31.302173320493733,44.93336703508195,60.3383937604829,71.96101828771177,90.98836488511628,110.3844386630597,106.0383344989707,82.03095275161662,48.05779241031635,-1.8198260135897826,-47.495850926567414,-66.26031674097484,-80.90236722905057,-101.5445229404904,-98.50753924459299,-72.15400819422813,-49.162569852770496,-33.90252974645563,-29.97653460933855,-39.85193120024623,-39.78862879066668,-21.841060482363034,-9.037477742580904,-3.931835639363868,4.7877308277391535,4.49925215337883,-10.528448148309462,-16.1582405786613,-4.290300846467595,1.732696854726722,-5.911259250503345,-10.72034045343015,-9.017736154420078,-8.870539661481835,-7.84853164894807,-3.6770978274169366,-3.816185197055386,-10.590010198347342,-15.45189030684392,-12.253480683912017,-6.218634971283908,-3.218780617451051,0.2813372987533356,4.708109048801862,2.127456693494718,-6.124402345574753,-7.192328433152222,3.084592707314833,11.607825133726827,7.042804980493637,-1.3864699181718425,-4.709601713973434,-13.034971664917407,-24.351745350959355,-20.962787579803347,-11.633647575296914,-14.240479576031571,-18.599939981944416,-17.57634942866991,-19.107734265529135,-15.200907307413978,-2.0805886736286787,-0.7089647745556285,-14.526421942232247,-18.601927807175304,-5.867417246042145,2.9873102289619418,-2.3793841417330572,-4.845215553470391,10.301167255091007,26.711697646872334,20.61842918059245,-0.724076538264971,-13.353910966512558,-17.172735907362625,-27.89783768215721,-37.13900099677435,-26.757664335632384,-7.70010869160782,6.222028320519087,21.601026616792264,71.48079568424184,255.16449100489845,552.8790433994694,574.3814261106086,45.08814158378122,-558.803746595152,-677.0565512105275,-544.3129308781336,-515.9440258703049,-361.86740388517495,15.068438699721142,235.08449373687785,194.99475541447305,152.96054270004103,152.29012493018746,105.77053805104288,71.58926766727015,74.15800252655886,55.663080292739224,27.378306386734735,10.085351617906547,-15.019857278809273,-32.900122946717374,-31.86620984977009,-35.40417162380067,-37.74095593899568,-21.629493893769023,-4.734361422366034,-1.737800723220304,-2.540521843214089,6.709190208933681,26.985822691986513,38.73157759695296,34.311726469918156,38.81275462363753,59.8914799792062,74.72467300850707,77.12317524541668,72.17332899947652,53.00811990301173,21.52532525089475,-9.877528799328811,-38.12050825060112,-63.43474258106477,-80.57091670228732,-83.9074826602853,-74.37482416457848,-61.732661617801625,-51.921620835689424,-39.49473088756665,-23.33934828389231,-11.366160693240488,-6.132639319276407,-2.622340091282201,4.126864994969113,13.270383453513631,16.21055169600395,8.853745522630186,1.677839500261559,3.852438781876149,8.365360466006827,5.6232212084145665,-1.6678716057329819,-7.7102601179901225,-13.359083414387783,-17.974727338748497,-17.56966336608318,-14.854135971761837,-14.01722707367859,-11.723731090440218,-7.77151097277531,-7.520067995900744,-7.581710708158484,-2.596942067252563,1.5314915035644336,3.6692720674018764,11.185255857546508,14.319251562089905,-1.2326436005018984,-18.954156424221683,-14.77927510948382,4.275842266490262,14.072787029595165,1.9262419515042666,-19.29346509559583,-24.552609501390318,-19.2655190313979,-25.992184560901038,-31.119271341554715,-19.146995487768898,-13.813658877666128,-22.812038379425218,-24.140324096770723,-17.14056967905963,-10.272870601508245,-3.1928900376050926,-6.758413572205512,-16.333612184228258,-2.2629779189087356,29.50043827270817,38.85623947762377,20.66454217687392,2.8486791055689937,-10.424547947985273,-34.998245809777046,-55.99766649683727,-45.598208862012115,-23.138006021068946,-14.335614394264539,1.4689038940829722,46.15402014345728,177.4341915563473,452.5711518354372,613.8265211434916,257.05538656532025,-393.5570985858249,-676.7850758720792,-568.8558947113493,-511.6317125431166,-443.62432378822575,-123.2331334116207,185.74422023950737,218.67767353290424,156.00273094161622,157.38451270690697,146.65594907932413,101.54907993833204,77.31607110989906,64.0362335172016,37.543552404917065,12.268731853948967,-2.927048887507935,-12.273452755886874,-16.620367094888685,-21.966977593989387,-30.088501301341854,-27.45104993140448,-13.346639285645344,-5.256112915355814,-3.7413299490868397,2.3447727454429312,11.70704532680745,24.189018265867027,40.06537532237722,49.00321825305431,55.32007808343845,73.7474004238573,91.44700738959133,88.19917184556543,70.37040284928935,48.32650345351413,21.53408273944427,-9.78669655836168,-47.74838327177339,-85.61111111743101,-99.08802687100463,-86.56183608571655,-73.03172957882481,-56.805572078675176,-28.063822610749437,-13.221359321752988,-21.53312220275796,-20.169779014017376,-3.393200521058098,8.222759674000653,14.049258955862172,8.563481792823453,-12.070314511161612,-18.195405479579644,-5.919920578703074,-9.082300340006487,-19.964449374505683,-16.551314076527163,-18.61352186047006,-27.9036272396824,-21.02688593583523,-10.200871621132887,-9.638049314132687,-8.358608350632679,-10.685756436474751,-17.576016012466894,-11.079893927151428,-0.15830025972524098,-3.1192606303145283,-7.523682113456484,-5.65646946295459,-7.961146449889753,-10.407469296967736,-4.944089731274698,1.12105825803952,2.4402831057755208,1.2051745270043561,-5.016031251128746,-15.880157756626126,-18.825009515484915,-8.110653523993577,0.6118617493981287,-5.307683221540895,-15.626609279662514,-17.45792971065054,-14.146506844466305,-14.357602963346737,-16.399117035176303,-13.115439122887185,-8.586718052284425,-8.439700567889751,1.631949988957352,27.487637283916566,37.627817981243474,14.244795518659629,-11.106555902803805,-18.847542864565682,-29.235650904878554,-40.977818172194546,-30.019731742396452,-8.571378328077557,0.004481896655509132,5.03054527542265,47.73585650746537,225.83592296835656,540.1368210909601,637.6199610040669,188.94905771833618,-450.0403583251124,-683.6121924100838,-588.151256210009,-532.4361126620319,-410.02395087827847,-71.56467266670745,193.52205461979133,191.30264541944305,124.6335211619978,132.5593984501578,132.39030759934545,99.61887588628541,86.75755143033474,77.15132798623958,38.80167617233938,-0.3534220548083171,-15.612859530128826,-23.879064611518036,-36.62824198148098,-42.5749307514551,-38.66455844245881,-34.69382838841588,-31.029534868671554,-22.15086444122137,-10.859128687550886,3.5250814211943418,24.556681937904642,40.99111299883366,48.74165986410587,63.01459806763625,80.76079603533664,90.44013020177263,101.94727129374454,104.9377328722519,70.8103488251381,18.50285438367289,-17.355990399444114,-43.87680555718587,-70.93328017211927,-90.78402233284353,-100.55253816783777,-93.79283683240527,-71.84911982100525,-54.460586687672915,-43.482178252676704,-30.0834903859267,-22.680093170591284,-17.418830996126154,-1.3903064996713823,11.544643974913765,10.35370473838191,7.2658068365913575,5.88992894824503,4.0541561753204505,6.079177136754112,7.081491854383941,2.127500524192657,-3.7186784465555913,-9.503575983558681,-12.02094544808689,-5.149443905364532,1.5772292703201316,-0.034343599798349445,-0.5722271330270825,1.9756977824916309,-1.2794330458148906,-7.588660736257599,-5.701820892253711,6.464934772417948,12.778650915412351,-4.147629643466566,-27.4595291545507,-24.5121336289091,-1.3416331123886192,14.058897128647349,15.048140914931547,1.7522853226261823,-23.3358313148983,-39.294104084369664,-39.791608315381325,-43.818753028852,-48.11583234454122,-36.37592428649583,-18.213388600826704,0.33402862068882744,24.08908079415188,30.76972807301963,8.185055655835423,-13.175186220213453,-23.88576764781717,-38.96836028882609,-40.36928213013101,-18.678299353013934,-1.1935390704679385,8.50700654987989,36.88175651804079,161.03635013310517,465.20107445754815,712.6245263057401,413.56884353336,-339.69690426529706,-799.7523901971083,-721.0300263008884,-565.4092831268647,-450.45102927721473,-134.37942694816275,191.9632761289863,226.09213143170462,141.56184795933856,150.99167266649783,158.97472517443043,107.14935656245618,71.45542283942609,56.619458908842866,32.67435612968651,14.523669300352697,3.8109791319786757,-12.258569538351384,-25.53153882745933,-28.141128999832404,-27.409382676984357,-30.49166579470835,-32.461691557773236,-24.273866109724402,-8.674841405772563,8.36204511357976,30.506362216108545,55.80736166787603,71.9574187840241,76.71610374445768,80.5627780371521,90.5027660067494,101.62779065362312,99.30754234218178,72.38451362439032,28.220818793951093,-14.710080852037825,-48.11868111854445,-72.89765044234787,-85.41671140856891,-84.83204725938585,-77.52899564535589,-63.399205667969866,-43.76253022219717,-31.039194276766764,-27.601245591132233,-27.017265181340548,-30.828526365947894,-31.067004188751916,-15.410916425262428,4.242304213388486,13.558476653349913,12.348809506912993,-2.9074987404768464,-21.38300431497592,-18.3775714482502,-1.6159718692795764,4.467479724976222,1.9198425910424834,-1.207428740739541,-6.425834410915343,-11.045930435143568,-14.848299084649101,-16.535789590958803,-8.203335464979112,0.4496287923863669,-5.362016696627734,-11.256397923447551,-5.229894860981894,-2.568955155734205,-6.63295255246954,-8.447078079909119,-15.856519853058092,-26.517568755016526,-23.50287316145886,-17.24593033024437,-22.184425858084158,-23.856606928967885,-18.122076446674072,-11.439609368936726,11.293685925014437,40.915656615938126,35.30420048551086,2.9182589904866614,-12.662236520824997,-20.048924497826537,-39.412856308069905,-42.40860241570405,-17.218028997118893,4.360013952988876,11.763132136866474,38.99821686481428,182.52847883512095,503.3506050026081,711.50707438264,341.67453364483345,-419.5950092588599,-816.9649804063504,-699.1285118190782,-550.5130696013844,-421.1093890715021,-77.94042366009388,224.77079032176962,219.13719514008108,138.78567165493598,159.49497457592568,152.0391604263882,96.41884755899207,79.50663289636674,69.78748213565795,30.126049344379787,-2.1818240308149335,-12.616567929882992,-17.89866968600959,-24.527279377702992,-31.90870117174983,-38.05838822574306,-39.56155293805953,-29.335334877706433,-8.221270965476931,7.913890479225163,20.273439583607168,40.58448079652433,53.43616714086369,56.13117320877909,73.94115662665756,95.19390366252124,96.5707213074968,95.33606132323716,88.93773761944568,51.2293349101469,2.7748670733304275,-30.35962219692573,-61.27691081824969,-90.17311984557244,-103.28352787605698,-104.4894449484477,-94.68515282184755,-75.58093189124051,-58.6134565718109,-39.82992336514886,-18.649799410749353,-11.484408243531085,-11.494838101280436,-3.515175195400822,1.1397482557233651,1.762336523519048,11.902709068275403,17.774123263734957,7.718833415292872,0.8772515390308939,3.6959351445014743,2.839392317390626,0.5009189116064725,1.8870172642076213,-0.7890593269771813,-5.615075389707304,-4.395785291041609,-5.301349545984067,-14.748702160953458,-20.186387389952515,-15.227774640330274,-10.52269172217015,-10.905756156236903,-10.044948344758986,-6.107874278929803,-4.742020433585079,-8.462039138350496,-12.301414201112255,-13.080339782632034,-12.458425953305252,-9.150416014678328,-5.374324868509731,-7.267969282630366,-6.2817778003910725,5.968833305377108,16.775644647727407,19.677301947521048,17.971298056465855,3.3010563731922824,-17.286056358715097,-26.481535934211422,-36.651530366783746,-47.449486611654805,-32.201686681685345,-6.807601768712118,0.259025532148879,21.086083521857276,142.549966345574,430.10460740418876,680.8106231801514,436.69849907304007,-283.9377126621171,-770.9707497471568,-706.2953052661724,-545.9688160315661,-457.58175525467084,-153.97778046084466,208.15947107686821,255.8278654496683,144.2029322562282,146.68212084402086,167.57210187946492,115.92955321152516,80.0172435433973,63.647248074317574,19.19842518046064,-14.863056130726914,-18.666162646192372,-26.801193215768922,-37.61876935841502,-34.31987262637138,-31.853088135560753,-35.698130496684456,-31.09871497652678,-19.486622182982607,-9.672062425957328,2.0018367403019344,17.345129789847235,34.714287536171305,57.39905885320023,78.63300542789614,84.80898454003717,82.66025370399912,85.80258555967943,85.0944159917932,67.93515290614394,39.437146729607875,3.9739440336809233,-38.300498285672845,-75.19927766225776,-93.40258335693524,-94.78308131490779,-87.49627468158488,-74.85784367806977,-57.98464068105676,-41.094899222472165,-27.16373070878009,-12.511703784507663,2.550267322113431,8.676360568472967,4.0157154392473515,-3.0135364834175107,-6.86508944937064,-5.2817516136652785,-0.880675909429474,-1.5849852724085913,-4.661508774354482,-1.7370108111881137,0.47963985487233884,-4.652024884668492,-8.066328516423306,-5.847709787603799,-4.897046170698182,-6.59678004808719,-9.09384136266963,-11.882624516895795,-12.203141827561225,-11.251827367083,-12.844865004976224,-12.801314120831266,-7.220428969141636,-2.478699561720397,-3.7331641733554193,-8.117637888484664,-12.039945120937034,-9.944682530730356,1.3365447101339267,5.235618106889092,-13.848762659766107,-32.79598933309978,-22.94108324417584,4.952955299992825,31.741728198760978,45.678706613852114,23.766730168623383,-24.274540487335166,-47.905371000520574,-43.24519677867455,-43.27654596146479,-38.218430148216584,-19.591697665795127,-10.960331418863625,0.09864753369905799,54.84482346501932,213.2538528594281,505.8001463841356,662.8081839339629,268.42810857983727,-455.0301091890429,-780.1582118552599,-634.3712656161592,-522.4826502589509,-432.5752391432684,-94.05113578032581,220.81250420909552,226.00853383211052,146.83879507857145,159.30693510853774,150.55287731406588,100.0984589230654,74.89979440864553,54.34154544174315,28.823140271554884,20.916484380580695,12.966187460383418,-4.78527683531632,-19.269203369398305,-32.79642849798131,-39.70438593661943,-29.43243289300181,-16.096983773879117,-8.338911598483445,2.0261128608496897,10.929306710272291,17.3519382158157,34.37520652393957,54.739601710899635,60.06750885242424,60.0620395409995,70.16824460840786,80.39128057811861,79.18923885557692,66.70237888222402,37.674189018808356,-8.204673803675412,-52.141367751258954,-78.7226718706465,-90.38297434106039,-92.29291750265142,-84.94506808254962,-71.71508594409292,-59.906438048577435,-48.94605673792727,-29.43036344083327,-7.491941625197114,-2.2829404143796346,-6.936574844689982,-0.6594993941108953,10.14246835492754,13.81805331161723,15.506496334915152,15.726264600922464,15.877341778146205,18.125924896673723,6.427947523960626,-15.553049087125883,-16.87323299955831,-4.611798577049969,-3.3775476355080247,-2.2896337096836064,-3.7825932641704547,-26.177448011855397,-41.9673289821274,-28.047907907072492,-14.845400707745814,-16.243662019596897,-14.8419941233346,-14.777559324290547,-20.66326504930283,-18.603938490481767,-12.919884738942011,-15.281472003376269,-15.602068602389261,-8.77509539094676,-6.504360732532053,-9.040140224898181,-4.255638905750427,12.869662810541517,35.802755056660445,47.18606866155655,31.85078866388136,-0.545429592673055,-27.443443101200195,-44.358340095765705,-52.70116306536741,-42.7450891788983,-23.90817182799791,-16.87472949627158,-5.026794050366664,41.137704189967266,165.48064621864336,426.2410982747815,637.7873592646924,371.79412299313856,-314.51399041082686,-735.2654660991101,-650.9407679230951,-526.822011537786,-474.0399162016122,-186.56918858459306,175.1700042027153,247.5400220679299,161.4323384918634,157.8969224542271,165.224447080364,116.1973058697792,81.07953459960248,68.12172338027021,46.123471852083995,24.443373471187595,5.514992049849827,-13.015297101329967,-20.272669804639165,-21.575818029835773,-26.79887350472712,-25.542848859657525,-12.677858654725338,-7.7543458458057835,-21.38227956983431,-27.161617817913704,-3.012127863475172,29.26772381454485,46.95175042831255,59.43474262941355,73.14170180667918,83.92009013177396,96.34799330375822,106.02437134729362,96.97945207697249,65.06991735333335,14.023859217534593,-44.37968184529568,-84.94344994559981,-99.81584998545532,-104.38172050202476,-101.47052413840485,-87.20789107194575,-71.30782054870625,-55.99945313464085,-35.23825442618461,-17.24892618033443,-7.900128094791135,0.7304907190484791,6.81962579932091,6.041900484779934,9.89017620970476,17.728420785370766,9.515818278898347,-10.880021125851947,-18.066595104436974,-11.631908493765916,-8.780450316109366,-9.058432392794913,-4.951473619582664,-1.7243151722063317,-6.128145334851439,-14.035848546176478,-16.30608760037555,-12.31138399812772,-11.156635421590055,-14.381863485258982,-14.263181379218969,-12.653713441247376,-15.855925411466156,-18.700509750283796,-16.653867065683674,-14.501586881975408,-13.473908011397683,-11.573334462622599,-10.310768982828499,-5.126891034348665,12.771192881181854,34.485112764403894,35.68758389428885,11.47623793989246,-13.655568744212019,-25.034376276835385,-35.95075963006878,-46.47673386390861,-36.027275120777595,-13.15044408570599,-0.13145333177962115,16.08678720696384,70.8304419231364,235.2199578303233,523.4818024143372,627.1875056386782,183.60486874726206,-492.84667803610836,-734.9796827144402,-590.0904432604784,-515.0586583285917,-404.3092606347845,-45.48960445799485,228.18626999594375,198.7867717205854,133.17603398810766,157.23548027307976,142.3329485704727,96.99426635731771,80.43394879492159,50.88132923779894,11.780374377861566,2.0876746508897934,-1.8808181216510684,-14.152476233426027,-18.15261198893568,-25.08346548763799,-36.665896858653404,-29.278679255768324,-13.441442252290964,-10.554129635227138,-3.207606128329534,15.038313930942513,19.958634151849715,19.56800705273416,39.93627128439627,67.70411472301012,84.90729060006932,97.46588640358388,98.84900918108649,80.44224844916326,55.76985905417074,29.364064161306775,-7.88683010028082,-50.438109501724625,-83.09581014300832,-94.8700058787797,-86.1334331231593,-72.04513565483683,-61.96657185802058,-52.336847790427825,-44.54276755592795,-37.42621954299524,-22.816113927098094,-8.271193260948714,-6.411044291214061,-8.644036805815386,-4.4469497372325435,1.080031772176934,5.508458120852158,9.95409994644303,7.225911064373614,-2.1657287049691547,-6.466749932547877,-6.652258453672708,-9.333374948425648,-7.924212973275409,-1.7813515951917385,-2.5398766301658,-9.08739851901549,-12.199570340177086,-14.329979110264807,-20.18313482092262,-26.22666443028821,-27.62314525133845,-25.38507710142281,-25.26435810656819,-24.55198576221416,-10.587402604757997,13.877910332126616,28.699451714215883,26.52814336461244,14.714089747407797,-2.4042838666718973,-20.750088257159867,-32.46252459897477,-30.152568602958674,-16.126649640954227,-6.73296726308547,-5.386055027758664,13.96264772481721,114.61844752362305,384.6604756859715,693.4574671144443,564.528496502227,-146.14528298385,-765.232398291643,-782.6267803938808,-591.6568177311028,-510.691224172029,-259.17090138528744,132.79322810782116,256.61223399511874,160.85900852304644,140.6287352487689,156.1042911416979,111.62851111437485,81.43881120554505,70.40234894810007,33.74009781337553,9.088418702822437,8.786369904875004,-4.340165808451882,-22.175743507906276,-25.459345065145175,-29.97665012936588,-38.47140178519531,-34.20285956977839,-20.265325606778653,-6.563800740141243,11.27714951950859,32.481907295053944,50.029754432449465,67.41216563291039,84.29970100963959,92.38000834262519,96.7916192162666,102.78307620739163,96.17323434430973,68.31859400195492,29.00637811727782,-12.802732228065665,-50.665622491556476,-78.2874126851325,-97.47336099610582,-107.02597905265856,-99.15619608915127,-79.76051237078276,-61.11875673756162,-43.182338480777524,-28.394906644725495,-22.974675170339136,-16.856958363367788,-0.4473130014807829,16.28514132644747,22.97057542937839,17.568350104602523,2.5569545201498407,-8.195758097959736,-5.133792519149308,-0.4868644910127031,-5.085366843652309,-12.102465203780852,-12.918982402435287,-7.384567558345626,-2.0660027602896758,-0.4205206655263112,2.7131804303588893,2.078756079857527,-15.710403579627297,-37.38439456029687,-37.450650115899705,-19.15086388985721,3.262305840457235,25.683705944418975,33.12034246981822,9.230984399043889,-28.831611325602395,-48.89220204292305,-48.28301479230462,-46.10704533664831,-46.097757796630255,-39.85782183356213,-25.363727453952205,-5.347448609183065,19.13869425202084,117.02280021767076,409.8298940900014,717.0933020753984,508.9823107922608,-253.3718212808122,-813.75779080692,-772.0157366050249,-579.2704293341808,-465.20807744432307,-166.26105277995757,196.2808440027635,264.0006743209958,164.16045114055373,157.59517866031257,166.26182870722107,108.85939475610478,73.35667085877327,70.64665146355831,46.447557296914674,17.21558378664931,3.514235172222813,-11.89557341544291,-24.636583124240026,-22.82277661999514,-25.618833670089906,-39.68784254066113,-38.84416426393568,-20.41673091426192,-6.45941105072473,7.259495999947585,31.50698506433494,53.545580951060224,66.77363922587713,76.36189048119525,82.79042807424194,91.83217553396807,102.96636667879554,96.77815550080774,66.21751646212422,24.18825102315801,-20.333859489167658,-59.734209470799435,-85.54291608214382,-97.89177719595992,-96.96996658640842,-83.11984023028546,-66.63498665885405,-53.98899946240577,-40.26756364391137,-24.565385252400056,-9.55400685829277,7.771546645859942,23.175384041837333,22.28744350206994,8.217829817436396,0.48295324925286387,1.347962294888088,3.0215387122729087,4.106029129706094,-7.2410676745942055,-29.395994944160048,-29.52905682557349,-9.398590519415627,-4.1377730295662545,-7.5526732053869665,-7.1567132086071865,-20.625821585748575,-36.11929866711094,-33.128560372296164,-27.680047955358845,-17.062412491268393,10.27813266429743,22.60976169217664,6.4494577136561215,-8.92006324085077,-15.571708524579897,-22.48907152461289,-30.02842303478124,-38.31590668781183,-35.48101186888279,-12.875994824659003,10.850052420810336,24.527933209184262,82.04248424665064,303.20693011385777,626.2558699388154,594.3395489169685,-48.430294022284784,-715.5785995199909,-802.5595022174043,-608.758008680075,-509.688247748417,-265.9133916153887,134.4516797966793,276.2498460880985,176.8554350272858,152.90655124769881,171.8782381540536,116.99871446844224,75.54486226226263,71.65628234838039,45.868559703052426,18.696916434102086,6.62143103757327,-13.991946849371978,-29.618456683368734,-26.333985403665608,-22.950374560256165,-24.75994354672218,-22.93180926376382,-19.142006913539987,-11.860893985046705,6.809056281362199,30.35513713901041,47.18717828729004,63.398969670537255,82.93959369886008,94.19848754418942,100.1075418859641,108.50179233324289,99.53757910810874,60.944148881088736,12.643626853560406,-30.284725618707718,-63.04987331101357,-80.87903798549222,-90.27414246390722,-90.52718519476691,-76.05676865116202,-67.09693528619688,-69.24995256631365,-53.99240223401815,-24.89558685247335,-8.245536345364052,0.026202085911990025,2.3325170950975647,-5.088677064373318,-2.539632480778206,9.94390361754944,10.566772360544002,8.003273087756657,7.383077454509701,-7.9893419315717225,-21.758471565242946,-14.360891146944864,-10.144583748270943,-18.360352281051796,-16.96325869543545,-11.522091233224653,-17.27757346200988,-19.29828699526753,-12.05161639634034,-16.32505039421716,-30.6557080624762,-29.11248862098593,-8.872277877274849,12.746261801153121,30.372232393277,38.20315760984914,23.531579267602904,-1.938431847676359,-16.741846874237275,-27.519546120874864,-37.714281444845525,-30.257897924625333,-11.157095257869301,2.167627047881254,14.694834283109458,68.5225013486264,273.49201702755545,592.4227024899362,584.6466983501132,-28.985787558847363,-690.0475572583168,-788.0321923395785,-601.703249618765,-509.7216823440016,-276.8620166403087,128.515319169362,288.85879032292223,189.99163235844586,151.34255626845507,169.35325042857397,126.70580764777363,92.18587517972031,79.72154322609417,31.69165300613121,-8.089793399216656,-6.967783813205415,-12.132325360467004,-29.286485216825028,-29.063932276545128,-24.180993367977024,-30.422525839744615,-29.60891105451781,-12.561086084980918,6.36476892818353,23.03076118240647,38.172595837144584,39.164100180657535,33.1245695636174,47.904053730547076,77.89155151348984,97.99792996085282,106.47908344906648,96.07267035192451,54.600869276335416,8.25828243407145,-19.619184972095553,-48.43815283560653,-83.56912005676628,-101.35920831336907,-98.82156297324124,-85.60153669621803,-62.66987320068097,-42.44046679797844,-36.05409348971787,-30.9526579828848,-20.85613039445596,-15.748650848922402,-11.440727082079981,0.6326808740503544,10.346949085450728,9.65671888075973,4.658396492928507,0.2635140733341821,-0.637453911108075,2.3700040010188363,2.234087354083675,-2.1716054209302946,-4.642805800813527,-6.620204027343561,-9.64631016590858,-9.057902736141974,-6.546872180294342,-6.194444842583788,-7.3057876257855,-11.669585654358324,-17.348270408315592,-17.45854986953721,-17.32378075251166,-22.577927846197213,-20.217202811118746,-3.142859943808083,16.490157186147226,32.17401816175834,42.07015004866603,33.36121597775622,4.678497701865999,-21.315805169498194,-32.557618874839534,-39.560292686559265,-44.416100110477295,-37.30301461648176,-16.17825012830719,12.238258441897733,55.4395380892569,195.36853847496155,489.8425803642778,650.6889969074152,247.96783335455194,-479.5038377850359,-803.104909891049,-665.5602136435448,-549.6388234702625,-415.5630357068157,-39.03181156852609,254.66392840055462,223.51878475620748,146.93212278671572,171.54131937006156,154.46743628714748,98.42618895419443,85.30786371595553,75.83872861583386,38.44398068416043,2.600960620378615,-15.031316208892493,-15.962626708455172,-12.055445368752958,-14.860329661519822,-26.356802307894675,-48.009764804514,-60.504454725515906,-39.49872350952083,-7.906332732012391,6.348564267300075,18.697850232469825,36.476446082689485,45.8319546903728,54.20687421575021,72.37844886249678,90.67398497542895,98.37491591543558,87.86509182519538,56.063756929867615,14.988088172242115,-22.759802830271763,-54.176216442039085,-76.67148639491734,-89.8132486277498,-93.06006595212618,-81.13677825541785,-58.862589796290266,-39.26733419289309,-24.72313327441958,-14.627955445070324,-11.017423186842173,-6.344955260239686,4.949521568612516,14.776072190198803,17.34257086562731,12.602940859914545,2.4184640331150185,-2.438176595843636,2.7514200058047464,5.707935312263121,1.4637070227613211,-5.501692663611596,-17.725414016356787,-29.03235862647645,-26.383238544793606,-18.64368974977048,-18.51214352800953,-18.614945008036326,-17.393170566091772,-21.44448418496576,-19.784646375858607,-5.786211452861544,2.6176550389268627,-2.202110103409426,-4.733569763072118,3.9243489451451956,19.153665366988925,29.67733237879023,19.624639538768598,-6.224460339621082,-21.184619606307525,-25.445701471748126,-36.53553473938317,-37.1628877262079,-15.189389075049258,3.577161628578171,17.43940293265461,51.40857733098472,157.44771011991566,412.32641198972493,631.9198849256858,361.7569842169474,-333.31061933623675,-740.1576838794615,-652.7184966592786,-550.1269534489649,-475.53078811016667,-134.52258670425823,215.6082128789797,237.5597079542706,147.83947517337157,151.81626066299197,138.17086329399416,87.72646747412722,73.53622605700204,60.3834014648513,29.32586509563926,10.839236948279723,-7.762547013072617,-29.65547812036555,-31.750034931557714,-25.95834023260656,-29.247000670696107,-28.630378791497645,-18.733757439718893,-11.16845240738181,-5.423430918935752,7.249808878312946,24.979104553819482,42.830520484348234,57.289964615387106,62.67793512094251,67.28925053582745,85.28756880080948,102.98049735969764,98.4970609081835,72.79700488300703,28.75302380999011,-28.90758188393917,-74.5164973392665,-92.68000917710309,-95.82559036372648,-92.70818784654685,-82.88707774235803,-70.40484874044094,-56.0550213639259,-37.84987450821639,-20.824413068111795,-10.517216207607284,-5.633338008544246,-2.188204718730095,1.5972216729509299,6.023484874309906,11.800744428655111,15.145805775201957,8.968832167297968,-1.8077063824374502,-4.061103457117964,0.6975065025164415,3.3097538722529922,5.948446677948756,7.938930468361379,0.45327136448345406,-8.884421361841275,-6.783250244403694,-6.40248517780822,-22.28568361626716,-37.213262007773125,-36.24620225303567,-31.38563534356982,-25.122207693531568,-7.528505138016435,5.477196397383025,-2.652797460805461,-6.907010805158486,14.493499203472041,36.30386686056889,31.870875411908855,12.958352457952742,-2.1129135299086785,-20.554470443062602,-47.414801539415016,-54.21206889550346,-27.177162831420613,-1.7899898237292646,10.417409450021745,40.09399595701525,124.50510139944637,334.7927895346502,578.6178037156815,437.58853316033935,-199.83671469683708,-704.9757665513678,-679.9237650176651,-538.3689135263032,-490.3611524409515,-223.08946046832136,159.5198707700161,252.19793210032964,157.352315267412,147.25574844499624,154.94226806799637,107.57132567517303,79.09330951978794,63.99272533502588,32.717857977355635,15.460622153944458,7.773419392854208,-10.533079873749266,-24.287305289006184,-26.8116991739142,-25.94912405452077,-23.773271668982506,-22.599070339197013,-19.501850648276637,-9.392090054419933,4.638441690371787,19.516345478155714,33.01782529513033,43.70686886034577,56.05571804637121,68.86984686438257,78.52272546428645,92.50642498553206,105.60896412872538,92.88490529953586,50.34239183804591,-0.3230170408817141,-41.24789167771834,-63.701789221529324,-75.41599799431529,-94.57390052829432,-108.18591642894724,-90.26003615896379,-60.81192940279722,-48.34555288078122,-36.38937575720207,-14.660034995979228,-5.332972196424667,-7.132729173818223,0.5561986797477232,9.757121610325587,7.855749121475714,5.942715755194813,7.918279155587419,5.144206326414748,2.5061619929091794,6.199700669239993,10.51095603441016,11.478458432106327,2.7740747158145957,-18.239404800407705,-29.659504592169093,-19.039055379516633,-7.033341080645892,-0.6230808597687911,5.4219914614449785,-7.486537200990881,-37.426424655873404,-46.88661571636054,-28.57567572344009,-1.795458179068116,24.580436967061143,29.69019270610513,1.0152617893606113,-27.40718749288498,-32.91765734014326,-35.51323394704282,-37.22551895486967,-24.684873210932825,-12.50371953846146,-4.149474896975061,21.560968714749798,82.60729380811792,250.9148035183805,537.2414620732519,603.387102743561,112.2391124717303,-553.9841995213026,-751.1595538121504,-597.0043415604437,-526.7689536132193,-390.33794774540706,-9.685782730690448,254.00809897150376,212.98273395075722,147.1367329853689,167.03971689273772,144.16130420258767,93.79253972280281,77.400742675645,55.74172469217455,23.880682056662128,11.339183077968414,1.3283279131864019,-16.616580652761407,-29.43257494061386,-38.55922816652964,-44.46167246462211,-40.64632220503257,-31.33176444775439,-21.55574117153447,-7.585348499022929,13.52567543967147,35.13467600760551,50.1492811140174,64.61082513509902,79.94261800913864,85.58109418850651,89.40807377753949,100.5191133738875,94.54410247024293,57.89788573058185,11.372142982361424,-34.55370439963603,-75.26209048382053,-92.39490496676135,-84.3827074093965,-66.75290073349964,-51.59124255873236,-49.546780955823415,-52.785111252475765,-43.54190492926287,-30.847499696682455,-21.075781772982527,-2.080313402466249,9.038563266258418,-6.667920307932359,-21.71549922337735,-15.716711884707557,-3.404904007819191,4.635961101695877,3.2019806865067473,-7.438543197588224,-12.61128482572547,-12.530095181871477,-15.431314923196144,-10.752333882723697,-1.389722686869554,-5.3597914539971185,-16.905186623415894,-26.412867319152717,-34.214912375146554,-27.074272586851297,-0.1950390581159076,26.44849556417737,35.766572034606355,20.5385970510275,-8.434517326849825,-22.5558462277218,-21.97700926316667,-25.375302299751016,-21.890522001721227,-8.027124763341874,-0.8286536436472645,6.86593643431566,42.17512879663229,193.34287907202418,523.448395679491,712.7579611249208,288.08156715597715,-488.01448247644436,-837.8970592418299,-697.5348622089316,-565.9868302222611,-426.34280657780505,-59.24284862114448,238.83154684529032,226.4665023095381,152.3267479114076,168.45113835645688,147.84985925091806,85.92607838216566,67.37914998178331,59.41572195848713,30.667829367454047,12.095762728047852,-1.9695627513532883,-24.63108081566094,-30.590827223662462,-21.285060297239085,-23.33368341068556,-26.320854833510552,-14.217126506334509,-1.2607986088177938,9.817809976815159,28.515095233357158,45.295468925158445,59.252440314148984,79.1140526430348,85.9778494345065,74.24537990895531,78.57677489564912,97.1623125595838,87.24681622288867,48.196843559456696,-0.8203549964085255,-64.22153748891293,-114.01967931067769,-111.5442167096793,-91.5842057206497,-93.37325361851327,-88.24361212111734,-64.94635278813863,-50.768442440348934,-37.197736687879164,-12.466122607204795,-1.3399925525959908,-4.789288376108711,0.3563903920491036,8.027272372715966,7.831497914703151,9.922801785029577,14.070375248840746,9.467165560581158,-0.8547098175565768,-4.980236604366354,-0.7380303325627064,-3.0926953093128375,-20.328870201929703,-30.8975892170083,-23.09041901656783,-20.982595143139704,-26.973920782187182,-11.915056649364054,19.321623938202173,37.53439633575742,35.589037125426096,12.59704797047512,-22.353392483968165,-40.618246491221214,-40.79339296992826,-39.96303867148991,-29.04270694213553,-5.5441287904418886,12.219587969341742,23.78486410986052,93.25375536135593,347.65912976981394,676.2891091954367,556.4409426584405,-183.30805461664576,-820.0111383718145,-813.126309208881,-579.9011024108195,-451.04374525076025,-166.337028652605,205.8907570575474,282.13557393359025,170.37486144389456,155.4471899160363,158.5682980837958,96.59999912736674,67.57558724477636,64.4082512576278,24.595400637373203,-6.875355823280655,-1.191959815587797,-1.3328338161619167,-18.830419381964276,-31.71663852630136,-36.92357438977186,-33.06910167060005,-12.42113890396254,11.56745534081184,20.207513759530954,17.80442419758374,16.679276965329677,28.452576346884285,57.71497500400947,83.69124277604311,93.35680581034578,101.97008211217224,102.26340902072278,73.53518872667189,31.253180254050733,-6.876315807991411,-42.668530459416324,-72.05361826221875,-96.77655583058574,-112.26174907560325,-96.3958152590271,-67.63478702434935,-60.79872847209179,-52.88081285261928,-29.19833997756471,-22.872300193090297,-25.446928375813215,-5.003212593090911,15.43415364421303,15.334973287621828,16.98543702438927,21.940047414099833,9.514594948368181,-11.277848725617044,-16.765601482316168,-10.683121151040579,-12.803615656765665,-22.026895540716502,-25.36312878021342,-26.871787426838274,-30.15174084207414,-26.704759762272737,-18.981930112995244,-7.609008652429323,16.46391089907638,35.759806756451205,26.84277258914564,5.0479132954748795,-11.775064369587444,-26.02019268911172,-26.589989375867606,-7.098846418374563,11.761041565640099,19.69914385013889,20.78670056362124,65.8978879436844,297.6811824242618,653.5015787065173,614.5410286079984,-90.4731492522389,-806.9953500317649,-881.916949958116,-631.2095420031305,-474.5482783216247,-208.67288163705933,176.2259256713887,292.75359354857505,179.2765636075707,153.01047209407255,175.80547550845625,126.16213018153647,86.14118236581257,77.42027455532755,46.249933680384004,20.91654072397601,14.662554335474912,-5.898265830571829,-29.164828891783472,-36.45370765657053,-40.45925385627187,-39.3617546668485,-24.846005424309972,-10.472632255878235,-2.8251877437944604,12.82074962880887,41.20632694895019,66.14201530572582,74.53474490465128,70.2398021524335,69.11536919584682,83.58391369613162,99.57050509944919,90.24987370708835,56.5714122135591,11.185348918544765,-46.643757030775745,-96.78140452765759,-111.10308637914503,-107.31250704697698,-106.3784111160203,-94.1216496522199,-76.60410687897833,-70.09411773577804,-52.18131790258961,-17.97181131739581,-1.65141156372637,-3.447977385708981,0.35239047809742985,4.775662236695723,5.122274639102908,10.588693069414632,14.952349674176894,10.29638713662132,1.3806205192258538,-9.137021654412086,-14.666203570157348,-7.9935197721196705,-4.753785358290653,-20.75600246114515,-37.63618024708197,-33.055341932197926,-17.46238044203234,-6.827661151471759,6.457891637873444,24.577130157599296,24.80567569261868,-0.8001136212659965,-27.50728374817346,-35.93345459544139,-26.545539193599446,-7.203672795928789,8.11156789785283,12.473245355650374,19.83559709277523,103.41322342733774,381.598411322615,704.2485445720242,538.7326300154234,-234.93085975896867,-865.1111064001192,-841.9986910477394,-599.3236131683419,-450.6056306210161,-142.29047528494755,227.39040794469787,279.89029857268633,162.3891013439452,168.62626234387164,189.0218571950188,128.67646128385144,95.58945916879887,77.47157080045154,16.87987405642029,-19.14296774822025,-9.53791200742079,-10.417121062332768,-18.879805102147316,-21.385512224974576,-38.64899198514854,-50.23863821837362,-26.96193112481076,2.045007276394262,11.676755752869202,18.434723193060748,28.93942766246096,37.31328691807028,50.50337178296713,69.46136167140799,85.39115998738559,96.07065474625664,95.64726052070492,73.7156200533865,34.20013447441033,-9.799336939412855,-50.75909722465448,-83.90912815344358,-103.2246753918974,-104.05064460910177,-88.91822272814457,-69.44785081631535,-52.69679917730294,-36.38412239973927,-24.369002551785076,-19.497061769379805,-10.895653017485891,-0.07143453215445561,-1.8493532741855816,-5.556167781145543,3.277545556021284,6.498599054680547,-1.6081233276143756,0.018695600240224763,3.2552211628505106,-8.475478820092118,-14.125175837531554,-7.239588625855781,-13.104945842021806,-24.86997574993621,-22.11879088417253,-20.395574052398842,-25.560025992587114,-16.442097325682894,1.9590093170124234,13.0832830160959,23.93882796395713,29.2934167800574,11.996256847296516,-12.244515990325617,-21.201894277102713,-20.441082664977593,-16.608910740789693,-5.605523364491649,15.597354370318818,38.32205036730956,79.20368808751775,259.5365948496802,582.3946952821299,600.9727400985053,-22.68311093623251,-728.6534506872011,-835.5418055710323,-616.0130866176811,-504.9502409104381,-271.10706857632726,141.71706190603004,307.0812138145454,207.5890170686465,173.6512580976334,192.3575316348361,136.8417283022092,84.78110250233449,64.62613693537867,28.80833817354638,4.0236920357173265,-4.751040846844221,-24.888254939464435,-31.658068762679104,-19.767751249648462,-18.077147902744123,-17.60921083628843,-14.296563597220091,-25.718473677909426,-28.416875236489005,-0.1310088615773708,30.623095843562428,46.95828953506534,58.80069377255798,64.04298063313664,70.47859111114346,93.49180616688486,113.30875852356137,101.46709771876604,59.781132435535135,5.570209580913296,-41.90105163071342,-73.3349119648486,-95.64112099636851,-105.25363877570092,-93.40543989462361,-77.94522711283173,-73.12725806754732,-60.63216423861672,-33.46533346187093,-13.82956759099254,-9.52355694474409,-6.223439149512728,0.6973348751110535,5.496072631007737,7.311771897455818,6.7435016518398605,4.824600351895015,3.4835080484445538,-2.009574978891429,-11.427785744830764,-10.590436587383554,-0.006984299436277652,-1.123538169432738,-16.953899226132243,-28.387611154284127,-29.060918197539305,-26.717011964503897,-22.823372259148833,-13.5470132183342,1.8884575403408097,19.631476353374744,29.804543283992203,23.71430740619459,6.286695284909587,-11.709712012603616,-24.32118464489319,-21.17359382918256,-0.8334903301799983,15.819430524665812,26.75135188896032,44.23168541715907,81.19452811633958,241.06401980457258,541.665405933833,569.7846775298289,-14.417710700711979,-693.2405574664436,-805.5410162139574,-600.0653473322257,-503.29592724100473,-296.3636571528188,98.26566443480641,272.20830847670027,179.43596826857816,144.28119390983736,179.37541432512242,139.77140552757186,82.49830819998802,66.23103855201822,47.08067037980761,22.07926942499531,13.06437240100886,6.61467901433017,-10.538674734152199,-32.10818531173496,-42.03518902722092,-34.331551906582355,-24.118427463878255,-19.644514773783456,-12.594933023418232,-0.6875068540687046,13.987618382749641,30.94349153460267,46.63105585783137,63.0782625624981,82.95767747042206,97.87605454456576,103.1189593089634,99.05746292639748,77.80524607053191,38.02151762633689,-8.576768599548362,-52.24544742598344,-82.23497688801399,-91.40357865059687,-88.39002805821332,-77.81245412546795,-58.845474348381785,-48.04408294396511,-51.12890902721732,-43.90488394040025,-21.745228422907864,-6.3580670194149285,-0.4225653413833932,2.028501594110054,-2.677591405694354,-5.699018159867563,0.9298978994998031,4.946210064370874,1.735454611346789,-3.7472532612983542,-13.802649942482315,-20.490247376694178,-14.13913844513154,-6.213549865549982,-3.8716274086884717,-2.673151439533811,-7.361403974088169,-13.652686483772497,-5.579461438062829,14.162490770611221,32.35336963350021,35.79821053655591,9.30368241118682,-31.682770366898758,-50.2806919886712,-45.00786245020168,-33.21788471216679,-16.205980233448557,3.505630376678095,22.39009830949052,46.169467769810524,132.11929312575683,374.42790998891087,601.2897758545421,357.036760419954,-321.4801608135359,-731.7430410807319,-633.4721690732141,-518.2619549811564,-489.19898051231223,-205.95492253535326,172.12734970072773,257.6508270765595,171.8190769102219,161.55706767744454,164.4878354164555,118.47818725835882,86.65091383250427,66.98529262930352,37.440163794132,22.561898835913702,10.895532555019713,-15.927797510017355,-26.02832475117701,-14.110841340059352,-17.27378892698099,-29.96791301925124,-24.3698461583547,-15.43298318649867,-12.83927026429153,6.27527601247731,32.61805398447458,38.594995746420174,41.021151617152334,59.35210317797006,76.98479631804038,87.70935115681812,97.72609197782161,91.67590094017294,59.254626345044144,16.719969679425212,-21.015521008151296,-52.75534430162839,-76.14707521561013,-82.79912124310134,-73.92516180075303,-63.69365893072768,-52.84026887066926,-33.416118227879856,-19.746324489348467,-21.201311069465486,-19.150305925094397,-12.1224153989562,-15.103540588393201,-16.413485693600816,-7.917197859681412,-8.280374027266816,-16.06583907407882,-13.550376327425532,-9.999754494690542,-14.404520534776623,-9.65200326253627,4.333421353658519,2.0111132587556106,-16.38265694652802,-21.008518555728916,-1.5626776782847083,20.75984090812229,27.155019392353445,18.71780704218135,1.4141038830625785,-19.41309308999514,-30.701035244500048,-27.29176756765616,-24.10765050261096,-31.52378643516967,-37.64079941293339,-20.475163773573477,16.460795217601873,56.2678427938328,176.08884230716023,431.3209720157459,524.4331365787375,122.16811192923551,-436.21323334384215,-583.3234910374883,-471.73691014729457,-495.68624318405693,-459.2281719705836,-134.17040983006063,176.58310713111013,225.88095959691586,172.55308961422855,158.02802595929091,141.4671425045223,103.35059879869121,70.91987399748804,46.35982269505887,25.732847371898956,10.59528122639584,-4.826596467700287,-19.80163708745076,-25.050167087023205,-21.732016794306986,-16.520730208800884,-11.44178643507596,-12.081752273781294,-18.297413414525167,-14.025883574516321,7.183716624078407,31.113224281712654,47.70641809425515,59.746505875246974,71.3804554869007,84.27112891952152,97.66218439118026,104.52224370968797,90.46050668583166,49.02818552549611,-2.6851860074481215,-43.191952488023595,-70.55895509621271,-88.50920685418592,-92.24058432802249,-80.28722593038945,-60.512435413822786,-43.43545192406853,-35.830030524861876,-35.90408267401074,-36.014683772184085,-30.136458744131254,-19.493168094648787,-12.522046847329388,-10.678014168568389,-5.230007742959369,-0.19701598736159553,-7.257025046538139,-16.482976369801648,-13.28645011482254,-4.167960873851769,1.5912017732561665,2.1472932473027733,1.1942336620496636,13.262156838302246,34.519511876490014,34.24227530130591,10.828659290940175,-9.835296894365674,-27.76538667204423,-45.51843505032441,-43.400645305010684,-28.320865202690932,-29.92431843966049,-32.83819924135754,-6.136458941708854,30.179324294346742,115.18277632280834,364.6548363239098,597.7430732073722,360.55665553278436,-264.14578136637584,-609.4505252493356,-523.3337162290961,-469.9760046880093,-499.9935727535513,-295.5228024120776,41.339789892769545,200.20654452895587,191.97331548709806,163.12132522658126,144.57773479617342,122.12398888410488,90.94572837957458,60.72604760258271,44.91268645055675,28.03559722045896,2.708683524771496,-10.653205005466571,-14.25395842586883,-21.7680341042431,-22.913575226567225,-11.223891388346495,2.705180125571294,8.914718152351197,2.7865680975386784,-4.864054360738553,5.476494317146393,30.733010643179224,52.85592314453765,67.867956975764,80.67821543460818,90.71454515027838,91.50965809695593,77.79887129610638,52.5651132041124,16.926410844534345,-30.816171972176683,-73.3571179017709,-90.21446775897243,-89.40170660793456,-83.8123951063701,-72.17743281197795,-59.93283615777077,-50.208797291588816,-32.20824726190989,-10.63667522740461,-2.3891738006076864,-3.4790808631443717,-3.6041410225021266,-4.498813406328402,-3.3088916981152465,1.244614492942782,1.318113530313834,1.8396466649751204,3.1134368749381416,-12.575962044552131,-26.939114212027185,-6.594812135022464,18.51519845804177,17.429389222874384,14.41585292769677,5.57699524260901,-25.76823905913629,-43.91898648955577,-42.19596138048756,-48.835967930010945,-46.38328311883098,-28.344596487516995,-15.740972049842473,3.104347336860336,63.256494941623515,255.10074426075454,553.5116395592038,549.1562730312778,-2.031586388815157,-554.5517107138791,-599.1282932665861,-469.03912836745246,-499.40165450674624,-420.07706555861864,-101.74515928767316,158.18066917287763,214.52678405984997,188.09934314718436,163.4581312895342,142.18449695386988,115.50374082849854,85.6948083925241,63.50837193407307,38.783659434689696,4.04083374760585,-16.497057643416973,-19.16378705024823,-27.51543079871839,-37.260158397197834,-33.768915931628484,-27.23013528570443,-23.925881974147142,-13.765447496131506,5.03900787090706,26.6750298728348,49.043686178693925,68.86799238566704,83.15459330226946,93.5920411112629,100.47829851529606,100.10493105968239,86.9751716343645,58.055045596331894,21.138962156205693,-12.276787903377981,-44.901156444112814,-83.11745679022732,-112.44255936911517,-111.95260127995961,-89.13175888400272,-69.49275673964533,-58.29450221723171,-45.355682157488,-30.76857819190809,-17.107572584513917,-2.872005725680186,8.458223497181542,15.283465894569805,15.368936666252203,4.260766660043771,-0.7502345055228226,13.08467891381758,16.69405281130243,0.8190726941145634,-2.418922710544436,1.370761140920381,-8.464012534377488,-8.83215336442366,0.09941786401378039,-9.148881326939838,-20.633710050225673,-30.44409328423933,-59.45450293288817,-69.58014252613341,-37.3133031557052,-10.895084855888655,-0.05926231782945024,22.56425615099228,115.45165043055398,381.525578263989,631.2837149661109,388.255521300613,-267.91303479771045,-642.6316778163863,-565.1182872138615,-491.33128068690485,-484.0959603279157,-260.27028473901174,70.45502809480556,214.6064687488712,189.20086034004234,151.39357496609938,140.6685844720472,128.09304443682225,97.48239021048313,58.92430420598669,28.14060630309014,4.605055429619419,-12.911569028461816,-21.659824535847612,-25.585237939002376,-27.035183353058617,-29.411166555610965,-36.503959044296934,-34.816566868696995,-13.146703474319935,12.427436899140755,27.751231911937953,41.019825097609974,59.04815879102189,78.58407924072867,95.44586371249753,104.26567102350964,105.09307625455703,101.86244083034103,84.89884368114085,46.054129109102504,1.2864063389053246,-36.66915456075214,-73.05438577075653,-99.8996014812294,-102.52069855708783,-92.08255279891675,-83.09111010447955,-67.5186294694486,-43.656470482893965,-28.09115643639921,-24.30680101893322,-19.25303121929949,-8.654318882738622,1.5714541256580752,6.4606928155896135,6.534797117346347,9.423359542347885,13.00319339206852,0.8359873660635735,-18.97593999567041,-16.409957313627626,3.240602924148334,12.079248832327695,8.549924605559204,-4.501629524223695,-26.79941165794526,-30.231734886177538,-4.473591032027144,8.661940777799764,-9.532420182809673,-28.177825107611632,-36.48085202325939,-48.286327778202,-53.58623887097199,-38.29162345003838,-16.411499889666416,-0.11201956929250301,13.493951784543565,45.21767981926851,195.99829983219774,515.483789623259,677.242460338055,267.7052019861288,-430.4414706397988,-722.7532863836504,-594.048375256003,-515.8466935069551,-461.5993776616672,-175.02389609659377,137.51589161789508,210.9811516031063,167.24348149569192,158.1219264656658,149.2869266917901,118.63830878894295,90.43174957484803,59.93960838145293,27.80453725349103,8.505495047308374,-1.9744363667869873,-12.471335603670699,-21.622352634204724,-29.32474741245325,-36.421059213813386,-36.92525283229375,-26.825018380245012,-9.94956213615545,9.760094767441519,27.805292124812446,40.9110954897172,56.51246593574623,79.69804550141855,100.23049192656568,109.31135182506426,106.49901049308914,90.94524593404034,65.81828711479821,35.42439246291737,-1.7229917141134323,-38.708069366202885,-62.657543731025704,-78.16281209700185,-92.77394585821209,-93.53341303562559,-74.25006071678672,-52.5378503031987,-37.90299488454888,-27.950448680043657,-27.15035158733845,-27.470552384085114,-13.655721853713302,0.8512916963823436,2.78144677321756,4.19455627280696,1.6576820300769342,-11.5610865515755,-13.334061902356478,-2.0494584004174037,-0.5507183966778726,-0.5805605298875651,8.730620219652744,13.604998461088243,13.329094315924713,7.68866628286462,-12.56637093018746,-28.987903183613426,-29.026829489898688,-32.105152168907466,-33.61174426022242,-20.400491249031315,-15.103820188669882,-21.259859942578327,-15.074698088129978,-6.6230823251785615,-9.930440368567186,-8.728612162126346,-3.0131132759108397,-5.645888263423036,-7.708956942180201,-5.533209543077124,-7.6240525593877155,-7.579892641943744,-1.255995027186401,0.043498305511938895,-5.595809118517437,-9.744018053142813,-10.687061878676834,-10.366830953907279,-7.941695103210787,-2.0467096655619432,3.886301030512003,3.0936582514541975,-1.6455168329331826,-2.4854295123907875,-4.463407580701157,-10.43527495455378,-7.113454170728482,3.247671540028504,-0.852341938008113,-15.149302225771367,-17.206663550971534,-11.306881182894854,-10.605266316037763,-7.695532428524761,-1.830922569127699,-6.248762370145469,-14.41187008263467,-10.377234888535234,-2.134459526295098,-2.1902682094112613,-3.4238522447880744,-1.1922101973666432,-2.6790587142878977,-6.4397342385552765,-5.815766586244418,-1.0235452375367906,6.936707610971709,11.232757469907524,2.846252853599072,-5.182167272766362,2.5899570782177985,12.742871166833751,13.593578010061808,11.271074532476423,0.4299219864957742,-19.827008292536764,-25.469867752562802,-10.834684947910313,-2.64599510206137,-14.407242611176603,-32.78270146963857,-39.684362827600054,-28.681762732811077,-14.317847491343292,-12.16301169624655,-9.695684814718714,7.985811413363237,23.893032816552328,17.733207975375727,-1.8743790757569307,-13.631392693100832,-9.811181888239917,-8.57007603631125,-31.659989781958224,-58.25495753398004,-52.07954351214468,-29.25862565157079,-21.976552574400017,-20.92918952925745,14.99448266561869,186.745993969696,532.5680693235078,721.0813775742334,333.3818313028802,-368.47132638836763,-700.6756726530273,-607.6795096952383,-520.6517797884703,-447.13308957867434,-174.61021470610194,117.64311984111161,196.58966948179807,163.02910399098562,149.502613159227,132.09073964681073,100.15442690651219,83.93101452944016,71.98863610860812,43.84236937832013,14.679838259511026,0.7267584805392273,-9.396590366525132,-22.079605234676304,-25.059766287721928,-22.657521975933612,-26.435207744378168,-24.649619128247874,-13.751627504920592,-10.238742708784043,-8.540586913386264,6.845708735574425,22.56766919677463,26.33837861551883,33.94183436713,51.580272859079415,62.410118122450825,63.40909042821103,68.45267296859245,79.6288893722761,84.07806052593162,65.07443033477028,22.511073194670246,-12.595129519432717,-26.50446980066218,-50.28561458000401,-83.64706158999218,-85.15265942537548,-63.22717737746416,-50.669861509456084,-37.64277920818356,-28.16902926235978,-40.57883399099978,-41.46844729344016,-14.557923377638298,0.8118645275287335,3.969392694708695,11.050884401524918,-4.136924258210964,-25.806527475180218,-9.999313937455387,6.366660201357234,-11.492520004197566,-17.870831486315673,-1.9874633548984448,-1.7208882537363905,-6.565699402237463,-2.162085484421926,-8.703842887846818,-14.269933733757458,-3.9490784202852947,-4.9503544308238006,-12.823252832568802,2.585087131475504,14.953230290903027,-1.440873446893061,-14.192343662877258,-13.992102924596079,-24.724255520331106,-30.043728965898467,-13.438239449916056,-4.6376710543971456,-13.165440069004383,-15.224831159038269,-11.326562314439823,-11.070785480288512,-5.792679654292588,3.277202967426417,2.791788704104217,-8.480229449115729,-18.876680300322622,-17.029338250729456,-8.429952582113337,-5.990731251453401,-4.534253423074249,-0.1311489157714565,-3.7457872259538334,-9.735737917052752,-5.831102798768388,-1.5992673434052964,-2.603248915757854,-2.1325221539905943,-4.393773599330302,-10.3737806099663,-8.567817781827696,1.0253636894311633,7.66899888177829,9.602173571019527,10.091488666635097,4.303968365904646,-11.197432716310065,-23.831412775992238,-25.050936146954243,-27.277300145857673,-35.61379242365214,-38.309184151517016,-28.364200187890923,-0.9075903377648182,35.30879978159015,43.677172031365565,14.858056118849849,-10.250591213592692,-13.428512236662746,-19.785326632178318,-37.12161651009501,-41.36822064481997,-22.42935936901008,-6.376791559311879,-14.263177753941623,-17.778435900524588,68.20897942289092,345.68723219153105,703.9038703313204,676.1491726485422,29.455830758678047,-660.8045164973049,-785.5298479473769,-598.4340515640963,-513.9527189314181,-355.7354141336967,-8.45126184877995,207.60890071426286,182.59697365541516,139.81052034536194,151.5590059474847,139.78271605706817,106.82734551578915,81.56276293892356,59.5095015292454,37.03098327673103,11.180316427469709,-9.589850254750818,-14.109956149637252,-22.011353734399012,-43.14820694470298,-49.293452319915005,-37.20488236149465,-36.10632848303697,-39.601795901869686,-20.372943349298815,8.271316948054686,21.619144370567696,33.31612511473204,59.73206431010274,85.06078285092244,99.84667986151767,114.95663699118435,120.28418433121438,100.61961030493552,76.68426825827783,59.12034848626428,22.704401761838664,-28.81435052757147,-64.24723093740901,-84.88591110773055,-102.03119488201673,-106.56394979344549,-97.43453445690693,-86.92583226268621,-79.45907036051432,-64.13818277312686,-32.35834540355391,-7.160444003105887,-9.76874025510245,-14.717163584950683,-3.6154219342083707,5.459788242393607,9.861396536918257,13.406129688357812,7.121712733539123,2.612235895459806,6.474867504490174,1.2482085450659923,-3.2295528764966814,8.646126694697516,14.572629380409396,4.675238014577197,-4.444699625905713,-12.382995527364583,-19.69482701577038,-14.51027663511815,0.6389129605563504,10.551340945525343,2.804918306065307,-19.5189225474736,-30.257249321995882,-20.326077142020047,-17.377163592347653,-26.664396117964554,-22.64410516690167,-12.239655083020942,-17.91138893273081,-22.73410416359603,-9.974342493308665,-0.609364654828461,-4.359997746228807,-5.337628130539503,-3.842856837706602,-6.112088356579118,-2.859358832663389,3.833937738732338,4.146773124348368,4.244704564726481,2.962825999810958,-6.941312357308089,-10.31376181626687,-3.380337132877912,-8.854730560912866,-22.05323476373374,-19.86499958798659,-11.858830792303031,-13.604107458753909,-16.651592903304557,-15.799307713889739,-16.12691728357497,-18.104048656591463,-17.990950862953284,-7.126121361901477,16.18309220196761,30.718219755297923,20.454547891207042,0.729316505016774,-13.379213964287485,-29.12564066598186,-47.93859673866823,-55.56419498799485,-48.15186571731402,-35.69826777524193,-23.82727216993,-12.033392856419308,36.281249671429975,237.60518945454774,609.7141167143297,780.7348542366217,322.8434307191594,-471.0966301253869,-847.5789197252592,-709.1239838187118,-542.4024561083002,-416.0870932725212,-112.0053580520427,184.220653187567,229.53367390377161,173.19928639091563,172.82131747229832,168.78671962745423,133.73557227372916,99.62306279649144,60.11599078356639,26.102072272126378,12.633341911846866,-2.6100194606959306,-21.04504325646859,-28.14262280663037,-37.826389880918235,-52.71519823361288,-54.72350321901783,-46.7250924579223,-37.06064390137807,-22.355375802267584,-7.3545673480595735,5.583103114881723,26.223232510205086,54.76763238017839,82.68438614125823,103.99318165493155,112.73906494990976,112.28372835421766,110.20700369566889,96.4847435025255,62.246074831124886,19.71192013574257,-23.775969070061848,-67.29424900712368,-94.21461172598003,-96.97935243396829,-90.90726509194046,-80.78399805095665,-64.52374000782493,-52.44817131932154,-43.805263950849266,-31.141687803432895,-24.546492351049892,-23.376647134938732,-12.37931079091679,-0.20233700596019588,2.0406558080258748,4.131000421544776,1.871186533440067,-11.613935132328038,-16.10130799060481,-7.746461306670419,-9.344034879246845,-16.516643545570535,-11.319912449142222,-4.093506367380478,-4.882431501824058,-5.221176790782927,-6.37659530088667,-12.771239308963061,-13.905511346044275,-6.874081363004761,-2.346022630465452,-2.508145179569036,-5.541019891062618,-11.524043990189178,-12.179778744297339,-5.864879487849645,-3.320922817088327,-1.834905139655989,4.103759411576888,4.097155276590117,-0.246632883394037,1.8011095905571448,1.2256439519710085,-4.693872205536696,-4.630219662710594,-7.826111976378494,-20.221913997923252,-21.76616876099314,-10.151289455014798,-0.8023672550989751,5.373222854126727,1.1461328836620446,-18.926667391933726,-26.848684045516155,-11.969597422329528,-5.656302584122692,-11.221988992351212,-6.25568033292587,-2.8145603772271564,-10.649386081057497,-7.485469035811889,1.9683271880051834,-6.1853904617124496,-17.120327557208963,-13.45581781740819,-10.849834959323239,-14.441097501940106,-13.72328077575313,-12.325990544462757,-12.426263559392078,-9.906116970011066,-9.993707520819541,-10.886948955218354,-4.785995487897853,2.3826385698919723,10.62557995868486,24.23746785537827,23.068422798019377,-0.11111736601316746,-13.878697857663308,-11.622575980577732,-23.19523389469069,-46.80104155630299,-52.09649889712621,-36.786950376366335,-24.978894205888327,-21.73417090591114,46.69764652575765,309.63175210558444,678.4444966045447,690.5820823985326,85.66593974505288,-615.9065107191657,-789.8862187533799,-614.034987009835,-510.8673848118365,-358.7625822582354,-20.912038584764538,210.51956489259413,198.78984406381076,155.17505766138595,161.38183002533066,138.25009920635242,98.35535953967016,80.44767812584217,63.84675415453502,35.37883631159028,5.91242754735106,-13.543603964975986,-22.85323113935965,-31.937841024663765,-38.88291559639689,-37.34539633061151,-33.24027723530939,-27.594931572430614,-19.763846482163203,-13.613259563878646,0.5096121674994514,27.428432127017178,54.09665567011719,76.29828717222856,88.47098112788593,81.44188173783363,77.17813892353523,93.06922140673063,103.45750985189066,90.38711031107286,56.5078061567813,0.37139322828360477,-54.10369629066662,-76.02100061962676,-81.85292297716828,-91.2597186529105,-90.75199785130054,-81.22348483203692,-74.21411845928279,-58.475644759914005,-33.96570677152454,-22.51233377129909,-23.256261523605076,-17.96187657907842,-7.5709822171656285,-1.0979036925512418,3.9682515463239127,10.91753984519476,17.243634884669817,17.3789813761708,5.458221375901575,-10.51818862187572,-13.368215365118582,-6.516011421605791,-5.554262819821913,-8.78721731413615,-10.307955615052633,-12.118803198567484,-10.00741926237405,-3.4175331790705297,-2.864317795995335,-7.40281904238967,-7.613391719632839,-4.66904122489667,-2.180540582500063,-1.8609689457437,-5.439926018309185,-5.327315243341072,0.821671619724258,-1.222263197461647,-8.816528174890484,-3.1212757907078235,5.708903050943746,-2.180270231333221,-12.975291738386735,-11.33168954706084,-8.08224955545327,-9.374829968125635,-9.985693547884795,-9.643975427743637,-7.112184438189516,-3.4130564564875012,-4.5214824313165245,-5.966602288560683,-3.9126922741710093,-5.872038208831592,-8.148450775095503,-3.8763230461471156,-3.9571753725747083,-11.028631588387494,-13.365837558190304,-12.274534147280724,-10.930219348247935,-5.327524578451572,-2.522135243664307,-5.93284305790368,-3.278808496951632,11.007124221154923,32.231164939360845,45.0119086708336,26.186136281948784,-11.768199007572653,-30.88240331425454,-36.163334744469154,-45.394011463778256,-38.36780031463972,-20.67975803874061,-28.187080933364005,-40.9410461416344,-6.574088588081764,135.9985657283368,446.6676805844227,724.321438503385,506.22816543212,-200.98090980281614,-719.0853873640511,-715.2133450307169,-577.34351798445,-489.0009398706633,-226.95161923723694,107.63238473778604,210.7093560769136,156.64096394021306,145.9845136085395,148.69539196762216,116.28889638099744,89.07485698346169,67.47845712308614,40.491443352949574,23.74405805182938,9.331127485587505,-9.588789710814812,-17.737961322517034,-18.37763580430106,-22.58207732429812,-22.197030309666808,-15.181893026502362,-14.869536607745559,-22.646031493352375,-23.482918816084485,-8.598455011732595,14.876764964147714,37.37187471602803,56.33489292304559,70.63527638989339,80.36788995671883,88.34353009544523,91.58507837543007,84.14303156553744,66.41135994594939,37.276891850847754,-5.682789343227362,-49.85589282296999,-76.14175787176511,-83.69820657909669,-85.04211918223494,-83.90064109622156,-76.25649110812583,-64.44979599186074,-52.35444611779273,-37.487761967814684,-21.234922006084226,-9.580834409615264,-2.383530145931978,1.8314253038670856,5.163832610858169,13.617291538047272,22.854098264293953,24.623800237767725,22.292578106799706,10.83358113407023,-13.770194700712194,-24.88567451450802,-11.809168458551964,-4.094404518682051,-6.372802180541594,-2.1198874421603975,-5.60327106699755,-20.221574387384937,-18.948990801225065,-6.260081475310059,-7.6897814906117645,-18.321386081806956,-24.009242106244265,-23.359059905519487,-17.67261397900412,-13.939783907739866,-13.797589551610413,-7.453263368079401,0.02099591834249992,-1.5386873339223914,-3.267610614695709,-3.8051261572961046,-11.075940837061706,-12.3767872627846,-2.279994584573446,0.008043256259631093,-6.280998807503014,-7.571078265991023,-8.42107057216082,-11.484678778076354,-11.972981162238096,-14.020017055184516,-13.949917166137547,-7.957526242478963,-10.06362894846924,-14.523202778339058,2.9104088985593646,27.882939522091284,27.78419637588895,7.233113718959464,-11.45944865568661,-20.850099891179983,-25.403788710265893,-33.85466375573911,-43.768204631920554,-40.63029232165131,-23.732326496995718,-5.971548654865524,17.824072154748322,115.25650175874733,377.3185061642393,661.4014627419772,538.1964801916486,-88.10311468077757,-636.2009881799041,-682.2822243378235,-541.6971190207141,-492.73855350994194,-313.42065242780154,31.534114438488686,218.66526910309682,190.31085608409313,156.00346488949262,155.30117954172036,124.96616908426671,89.16360760371622,69.65092956400295,52.83941903670818,38.92894682188181,18.57496256237552,-10.139253076951494,-21.650537501304797,-17.83450714241546,-20.48895068782604,-23.31917515380613,-23.22438850902628,-31.59613919528381,-37.70161833333417,-29.457926773727426,-11.591064067869747,16.6808451364719,45.039421958710435,54.853544054156885,61.46470130460124,81.37216257808107,96.2474498647204,101.23522981182373,104.45354855378594,84.67795833071813,36.076312462915126,-6.814569094220277,-33.671473025836136,-60.188913946918774,-78.23726995187765,-81.6755132202536,-85.92617157965596,-85.53686880953249,-67.27667597476017,-49.41643255648185,-42.75945282317454,-32.1099982825579,-21.777297819719426,-20.71960592207445,-11.883706251106823,3.4124069758979907,3.7438757245243934,-1.5291271576392553,0.5642683325235609,-1.628602996466455,-3.9512854601841134,2.854491115863329,2.857864285049942,-4.227098924686121,-2.5692446593461007,-4.064456796841121,-14.468413659349212,-12.838071525523056,-4.0941793830469315,-6.3867702152558685,-8.553602535804,-7.34801962116785,-15.689855823120174,-19.65470233223338,-8.846621751917755,-6.464923388775988,-15.84112703762808,-13.88813072012788,-6.733992522560211,-14.76330244651697,-27.12240846717016,-23.93716231961799,-6.849135251667934,13.977980474127047,28.747138981492775,25.44273400764225,5.0938405918984,-13.20019671294704,-20.06358292292029,-26.698711400407106,-35.54707392701249,-32.44876593906603,-17.081715898137013,-5.5570101442440425,-1.2954731759354967,41.79410538174332,236.78286230792065,575.3001257327547,678.1730821491975,190.76934557261967,-513.6719282060628,-763.4102952326012,-617.5631576125977,-530.4605208429764,-424.7031515822124,-89.37737333180178,199.88632667384186,219.4493462050695,168.02047944859038,176.1125399387951,155.98535254112764,104.17621428382088,78.56165718169017,65.53889301472543,48.79148805995898,25.765707502169878,-13.44823976979042,-41.41236101049326,-35.83475507937512,-29.447597626240093,-35.4362087333172,-34.06971896005131,-35.570488423690406,-43.448781576449974,-30.71673304921594,-3.1574516852349586,17.81509714144759,41.03503076434874,64.83789832097425,76.03189335265331,88.08372916643239,106.52601971181258,113.06531233659203,102.49410731561393,76.5230525100715,35.42707873905567,-6.0788224835182145,-38.51999030824582,-65.95840644545568,-83.45284428120927,-88.00257171853485,-87.55485192492118,-82.32580242463325,-69.79776596094553,-52.708007631594874,-33.82893550988769,-22.841339140779347,-22.917830623935185,-18.003764545151082,-6.54162232821065,-2.5542762331134767,1.6529080827091533,12.300465727205934,12.46036882935808,4.120239389412241,5.072443852020758,8.810327990455834,8.084339027829312,10.077009029936939,4.285122329664841,-15.911537048075273,-23.198150246065147,-8.480689339484329,-0.7179781757380699,-3.894077608933806,1.2702568425630911,1.2123772270989193,-17.829541415235518,-28.90963036893912,-20.954073050722897,-16.948446723238145,-17.418805160886972,-13.714474806952097,-17.59366701194768,-19.06974097449121,0.09075063838770703,12.479849619023632,-4.733761318457615,-25.41117164767344,-33.36901840620268,-42.13575226414149,-50.40324019398322,-44.64177809022448,-27.881445069969025,-11.337123247119685,4.138959576851562,41.95732047325227,183.50929254399193,482.07517714980884,688.6379884348481,371.6335294397247,-352.92814241052963,-781.8390942947493,-687.4185244297031,-532.6263209767924,-451.5688929844142,-171.57280139658786,168.35681160355495,242.84015277584106,170.10289285332414,161.8881978168301,155.34378944877673,108.78798586562041,89.99311171439575,83.09191781309956,50.286367526625135,17.211617238678674,-4.939186343544605,-25.205779039435747,-35.13283130116302,-33.79670033957907,-33.05096536423237,-37.004631769331,-39.39479249566142,-31.189382235958725,-15.212430647251665,0.41517231029397195,20.502234261845583,44.71557066638803,62.310559182544246,78.55043256597459,98.9862484361424,111.0693249307802,112.02981545275608,104.20759333986197,74.99405925049881,28.958976136408403,-9.039515193300875,-38.192173423662396,-70.87642916148944,-95.99766379737251,-98.15260766535188,-84.96611974056178,-69.28430541479247,-48.733947677055255,-25.80879905258764,-20.029146528144693,-29.35016513606363,-26.167625872041235,-12.093902932452501,-6.544312903395184,-0.819268552193126,5.242423334278328,-7.875091422952963,-21.654110256652494,-9.972602846194402,3.292224137337847,-1.212555318313477,-5.631291684704127,-6.5351185986112625,-13.898485919826523,-19.445636786419524,-16.84174302912732,-13.025520332264758,-12.671993916564816,-16.892043070557612,-21.340798252004546,-18.077318545453164,-10.674218154062201,-8.592456701263167,-10.253679311128355,-6.955275767304779,6.371850002195093,24.864953464997296,33.88366120762344,24.655738329791504,4.27822319725052,-16.511051996337706,-32.08349273962764,-38.01969515693512,-34.028487598473475,-27.595958330319824,-20.487847595024657,-4.413418528954324,25.349846757249836,114.34949721285521,358.2404905611924,644.0757644756004,533.766956140581,-113.89764870857454,-705.9220393222603,-752.858086570639,-568.2425541497905,-483.8126468513673,-284.7895088096698,74.19641932601236,249.83098065704428,195.70087470123997,160.11245198273377,173.9034996141494,144.2172334459912,100.04058451524492,71.99327237979377,41.1927501647185,19.406044139611275,9.961362569865768,-9.469128151015639,-29.270103900758887,-32.519213119737415,-34.15511919076122,-40.54430462820599,-37.51213690239451,-28.866853849618977,-25.142044395726305,-16.187172381004228,3.860382362185259,23.262726236034673,39.12144236956814,57.982592599027946,76.66634636268186,89.84508391311061,99.67642936726523,102.96669518587878,88.21566828027312,54.57530424995801,15.931213931672035,-16.84983039426242,-42.94953717517349,-67.31192327804503,-93.1686157162539,-108.30812436670011,-98.12981611638439,-73.40937213461791,-49.778190868061685,-27.829471915223667,-18.474393759804364,-28.28303016293762,-31.619798022350338,-16.164333534324676,-0.38186768736918,9.906447059977523,12.910328555880529,2.2725140156703176,-2.839535470545311,6.202785934756019,2.999181825483735,-11.387220278425183,-14.836738192326635,-17.223986060667592,-22.6218461409496,-16.77828264604994,-12.476858793890761,-18.14489420576213,-15.16539372154677,-8.242067488071786,-12.256872874840116,-15.837472062599439,-14.240048579536417,-9.745834456374194,11.179443931560076,39.02028272725367,39.834949509925195,14.00461785725295,-8.611954660468077,-17.067836966934927,-25.81484307353457,-44.595107976724684,-54.8094961988248,-40.18257896046819,-19.449308549929317,-2.8545271170495514,44.28905127518949,194.52388246461203,482.68907509436866,676.9273755385582,368.83351373075345,-337.51142592922054,-762.8357944884592,-682.883430570705,-547.010380845674,-477.6577651564205,-197.47601524123007,154.2306965204448,240.79489724769363,170.32540836869305,163.43852164123678,162.1144721097118,113.37999885925382,87.86185080960117,80.54117143999864,47.74583000697838,14.2504217488978,0.14812634628448862,-9.739524712990356,-16.973739855968446,-21.20205620577599,-28.16508502881223,-26.3795998148238,-14.507086967151317,-14.799413539603274,-22.393286380543632,-9.810283937214026,17.880563011523925,40.58910082239274,58.86756528392736,73.91194281059579,83.93771419881367,94.86712309535615,101.65445029308844,95.35337917278557,78.87696035096033,43.6819862613565,-16.107217065238462,-69.09727661994387,-92.68338873764857,-104.9986164771033,-111.09166699717323,-98.2510929676501,-78.40721743557613,-62.465699320659176,-42.11152032355018,-24.025424496250956,-15.085217673478233,-0.7222827109669225,15.391785675150093,14.311373118752083,8.84222195343098,15.180313941996246,13.569709977541272,-2.392445569668137,-3.578418321848254,5.690592776823653,-11.243658727236514,-37.23115214326321,-30.557505889138163,-13.996124695888856,-19.99778237376057,-26.761408442056876,-23.682635356273153,-26.983496119666817,-27.30077330335355,-17.40218903491907,-9.294362097951549,5.706838673001087,28.67594615805171,27.055000784912984,-2.9515080073269235,-24.308949410692573,-26.717132902604106,-33.04318198820473,-44.59753030120292,-40.26578653841793,-20.886538569768042,-2.8618059736499966,17.3467729341558,87.51080746253457,309.0611026559435,636.7339685735703,651.2561981284538,55.283909691244645,-651.6120327695897,-816.3854437733511,-629.2364166521155,-525.3910372849514,-345.1320717235243,36.24291509121601,269.02171638558,231.5638552386955,175.81171117446257,168.0460879062412,126.80859203430452,92.10497392374947,85.84946755940337,61.289596552069966,24.200334926609347,-5.769887384500513,-32.386387125593544,-44.322302075847915,-40.45163634899251,-37.24498474723492,-36.31573359514749,-35.93064226600333,-34.53272870936631,-21.897030844159765,-0.6244437305357309,19.353740349870797,41.18903733144823,61.04817233388128,67.710555852434,70.99043047532635,84.50639755695374,99.52463119852527,103.94369263302849,92.40644046068331,59.258366616208235,15.399309211418611,-19.41659243999694,-53.51918587529644,-95.78816717490709,-116.50328785244488,-101.63394336921303,-82.74839416761515,-70.66158557608324,-47.642825903087136,-23.05728887166914,-15.3171009536137,-15.917160717267905,-11.566237133703062,-0.9514244512354963,7.8425156322884675,5.485788408234061,1.014783019043346,6.62850294360155,10.698664205781832,2.8472588738728817,-8.798820503965647,-17.837169510528796,-21.897193954112275,-21.737609189489845,-22.28831002831592,-19.30743082836215,-14.162523976185287,-19.483933785060465,-21.076418870358612,1.3144472302703858,25.933131845014714,31.218008523596772,25.406410522205203,7.713759084575777,-18.718397645149395,-29.927104352179253,-27.97322579530451,-29.86383350615998,-23.110780792475254,-2.2505715132001,14.410915716162673,31.322182421625303,102.35067529993425,319.3598149022673,617.0998141424608,583.0438433660248,-32.809403907610886,-696.4357730564188,-797.7438922774406,-600.0519321167043,-523.0059314769641,-334.4669598239856,70.63013398639285,274.97053955320314,197.21672738001078,156.790062305299,175.00479964896184,120.63096748434316,71.36997567134912,69.11995238310882,45.36358475850024,17.61102303947122,11.035237454914597,-10.562532065565739,-32.58764694258858,-26.21237714894026,-19.682056051976733,-21.42601682431181,-14.539426421298076,-16.80815753150771,-27.915458404584257,-10.76159522763106,25.41816812971465,42.285113099390735,46.38162983460468,54.755793029069594,60.82614206875513,67.54562886796315,80.63608109992953,88.10468250180756,79.0265937153725,47.83911266333606,-1.9199372431356139,-46.04804972623377,-70.04316585788449,-83.17293721101449,-85.72357004705381,-76.48808842351652,-70.10259421840726,-64.30858846612426,-44.165528959691855,-21.50639768078965,-11.466497202017663,-5.93680884072473,-1.8568059859330575,-2.359550076863478,1.3702010687668214,8.267497081724596,7.1616630320270405,5.347270470519864,9.112598431099915,4.3929736709600675,-9.133576126088737,-13.531375605171917,-9.627659472176784,-11.17358549546031,-17.974523948537282,-23.086473149569898,-22.373820962669758,-14.423878797817313,-6.291732030579906,-2.169315923164893,8.607130438772751,29.059282824957027,42.04482956227386,33.82183738093874,8.97098396671835,-13.704600398448504,-21.032545806956016,-30.18560439623741,-54.53591243126293,-61.8838117092019,-33.795023286564806,-2.967678864670205,18.704794280286315,80.08611595366915,270.4308081976032,569.5271108788622,621.1457102032325,99.1006103742624,-586.489481611894,-772.9120572335424,-601.8924712122079,-522.6606648593801,-364.9226854774489,24.31276323727819,254.7586232881859,191.92897050252435,142.34279599420503,162.78151527762427,121.05210827193216,73.587859867436,70.61958409086076,54.826136135953035,27.61847232748821,7.951393562750047,-18.071512540570094,-33.77616989237268,-30.42036280365344,-30.525967271494856,-31.89877930100968,-24.834851514046413,-19.064555679803124,-14.378475097603168,-3.922612720064582,8.892016479144546,24.19601852937275,42.88747757022427,55.55705748572662,59.480046754155765,65.83014823109475,77.495163214114,84.37145695765564,80.27155805716144,60.02619675347917,18.456233864339218,-29.37001542336697,-60.48672505969188,-74.12749694472198,-77.85308111288461,-73.53187098829164,-67.89011282220716,-61.63032767796405,-48.06116011594997,-33.29649264195914,-22.622332742266153,-11.247958979603833,-5.054515573685766,-6.81702054504353,-2.8418903252454975,5.725318750845847,5.184089112253702,0.25112195025868544,-0.15516382832002762,-0.20894073390863355,-3.5759270157601577,-7.260682126191321,-2.763755297079136,11.87065049281712,14.814015504064281,-5.554349691812838,-18.214977344178443,-7.674936227417728,-6.930366982557754,-21.431529667461067,-12.20132982024632,17.6574709452258,26.7254217910568,16.912103777261578,12.491943520759396,3.8227962856806563,-20.563083045479296,-48.23393590522374,-62.7276402367188,-49.99298181992408,-20.776845864271152,-5.211020848489749,7.094768040362904,58.30046169524083,205.12649398759527,471.7616812504759,605.9832283308172,220.52480678063512,-468.3128350046412,-768.0144214786667,-621.1976730472736,-514.7551630300402,-421.9395643915427,-79.9773244712834,233.7838541707104,239.13522756035923,158.2663038240132,164.27633731998446,154.24720012776493,110.59266540469302,91.54762258397805,71.55190029707893,38.99817026936404,18.062405106166803,-0.803291660639375,-22.771667238067554,-32.702943771643575,-32.819523613986114,-31.261612656326243,-27.822388560919073,-25.079661677003887,-23.913243700417794,-18.178142203491937,-2.9880997214028984,18.852588741771104,37.41091490786955,45.900496061792595,50.85654434563724,63.51630519927286,83.12911958006856,96.21480941457352,90.00444685340491,63.47630603320977,26.46780071027398,-12.40074178113878,-50.965228587821706,-81.03897810761916,-88.87569160120194,-78.85264898469448,-70.4177504796094,-66.081085516438,-52.70630456741858,-30.849082857156674,-14.62462991133377,-8.001670452383937,-1.3402161556630823,8.566275940438492,10.695442825641369,2.5905279350164037,1.9085955952527325,13.709688181256483,15.006576955158275,-2.2381846625414568,-15.538235835194579,-15.28200983454212,-10.518022049079345,-4.999199116150788,-11.105873760487185,-33.528006703261795,-38.91832085332105,-17.623442024141028,-7.044583352099979,-5.810755090414913,11.857860138182069,22.132207538022225,9.338979358643513,0.13636569378145103,-3.5312128191122145,-15.605915035849135,-31.962059507582204,-49.146612591265665,-51.598848277586114,-28.153433241371246,-4.269980726528068,13.535707504526892,51.195836801634,162.34057581900265,424.4445451311371,658.2910335443064,403.0248206419526,-301.3018711715454,-743.6443182935213,-673.0590342741052,-557.8884255975441,-504.0745240156347,-213.05598924210238,155.86299024967246,252.74281339203324,180.77162282202733,154.9419765092167,144.0372431713068,110.41816069575421,91.71774272467695,75.38157602347847,47.69807301616946,27.66603561537329,7.736915517984102,-18.876111250174834,-24.845163387733297,-8.582465095791534,-9.55892493363704,-30.49528488261686,-30.889564038383444,-10.758108069032486,-2.173451996767879,2.113939101105636,16.866007762153423,24.67061278057561,27.541225456530867,49.47395277176652,80.37348837687696,96.67895479429282,103.12578597583091,104.21255533960472,85.22528627580827,45.354580227915484,-0.8425696501844158,-53.782616653764975,-104.72223918526055,-117.32784037495698,-94.5067805533053,-83.16119268195513,-80.17896610724506,-53.31300778670523,-23.460268938989742,-12.155562617853029,-3.298357148359198,-3.188226998264799,-19.843832988841136,-23.36175901238763,-6.094572137759776,5.575733860142943,4.840852943920559,-2.614597745312153,-14.497252864002363,-22.1957121366804,-23.699641167347053,-21.075310389087065,-12.681273445590655,-13.181080415757798,-29.58905370533732,-29.80701345713806,1.9513671648905149,31.27464530766054,32.43785341878318,15.960138810111825,-1.6568611928775812,-14.520802544071442,-29.217937777043907,-45.039641527121034,-42.58987920587609,-24.142878777413703,-9.166748563856437,6.572003655090738,39.21603084475093,171.21103287411756,484.0302818129434,684.017101557775,296.4179650230194,-438.69079835717855,-761.6048020790874,-623.8409351067154,-538.4076687509651,-474.66157454180154,-151.6949827097234,185.66725394759578,242.8440890654504,177.43635366180453,168.04273650509066,160.46103955853974,119.60316066806766,85.51532514245972,59.43488950313795,30.437060687494196,13.792852836113598,9.04478907695719,-3.2589440530222813,-17.74349090256863,-18.01491290351285,-16.06367210951417,-22.600458435180723,-21.349339439124144,-9.82325658757896,-5.203607495649562,-2.32200125939557,15.860922113834103,41.00337689842368,57.57726330614753,73.39786986664042,94.04865368946196,100.19907981348442,87.8386924702271,78.22671659192892,64.19207204412054,26.30671015560808,-14.868685899119184,-48.718147570162486,-95.94850850539487,-130.60629677240664,-112.74458583999174,-76.32192571783139,-59.48630355152957,-47.864753153755586,-42.168292102427316,-47.21841404841752,-33.272229223464365,-3.7680844812040846,5.204245571959422,1.3890077909432748,2.7285125520539886,-3.20597422961346,-11.909319000667509,-10.163900539869495,-13.931659591534824,-27.49827329998618,-28.894121646794105,-17.731475253634557,-8.087860870959062,4.798373547773772,23.219807049659714,30.648984788030702,15.22120873338126,-13.656277644617115,-32.46778864221273,-31.733958852120445,-26.76746889810043,-25.269641492618312,-21.069428079381822,-12.046152229950955,4.605390505161841,31.39001161895567,132.0607715006513,406.4829499574383,639.5618790618618,358.909922813348,-319.1921508899253,-672.6151381063688,-556.1046166383585,-480.1534710884937,-499.3086880890967,-279.2123374191242,67.38010248319074,222.9372199610166,212.8759605228991,184.41073738656587,155.71666811207467,124.56115888113965,104.96437941447185,84.92874023055612,50.08758251600488,8.251443420558708,-14.750797930089178,-12.770123863789195,-17.532449006746592,-39.188174163259504,-44.88548669309566,-28.584277052416592,-21.21598689092524,-22.58463283530881,-5.9395237322856556,20.837624691239057,31.32554276563221,34.31921430835605,51.50467961903153,72.2793372689536,81.5694018848182,92.96266777126017,108.64192130985475,100.71478322935869,67.21758795913188,37.7356511365853,14.020114687745014,-25.23385782477895,-76.93308843080902,-114.49209977915514,-117.73068537236105,-97.00371493652953,-79.76252845438961,-67.87068743694235,-50.87584639001691,-37.561428289631515,-26.944841395797585,-7.864383492618558,7.69415620479074,11.453759356357622,9.256628506888724,-7.300993693939258,-30.615806122923647,-28.66165381959048,-5.9126932113195245,3.59957485535379,-5.642154650151237,-14.641978720590963,-9.9115013109157,6.35519111710005,19.143654604757746,18.064995487763134,4.900002757511011,-15.064573609316017,-35.40142010243856,-45.752640441583594,-35.12822909600564,-12.188485488831631,-0.9591586311883624,2.467569494924458,17.13568527557274,81.99251983707364,298.7147700606407,584.3722765179612,502.7652390756416,-84.0983705529506,-583.8537684556451,-589.8925709858102,-476.5101581390499,-502.26454186177915,-375.33479350419685,-35.296030845782916,184.31474553814786,190.14670393274534,158.37156088199902,150.98342340199972,131.78732428767856,105.76456584077323,78.70567046389529,44.12741024932198,18.370077234829644,10.464593520448764,0.6554878480231299,-17.386006157775498,-24.149669800959316,-18.409981265322024,-18.941931194299535,-23.54836925586452,-18.031454597339746,-4.792454115088775,10.619566874644914,27.38983498228725,41.36346059794645,55.6781202034878,74.56932562557513,88.10652130471178,92.81917474390883,92.98479004559661,78.49148058479233,48.98500952938817,21.012520428186086,-8.169644258037346,-40.56977968793413,-60.690707169495084,-78.33769068365845,-102.1947706721467,-101.73858980870777,-76.38270696650133,-61.04541297805045,-48.912535426464984,-29.522229071359526,-28.303428177894276,-35.97314567077886,-23.451730174910434,-9.736875280789619,-10.018109341501578,-5.292694845724519,2.0700777030854454,1.0409750641093112,1.4770389060466051,2.24929060987235,-0.5674852064969382,8.097265656220841,26.127940752759333,30.42572402088797,15.339890573300051,-7.456883543223057,-26.1025056007177,-36.253349554017404,-40.901690541077144,-38.05951094329662,-27.497677625234637,-12.795266906419577,8.962581459516569,33.414201447022734,117.59571625978798,376.37471937122535,627.633399600218,397.98088535112714,-262.3749165552425,-667.9749787998121,-602.1317439298622,-514.4715100898754,-502.55523632438,-274.77186503725784,68.81295142717103,218.4041334831079,202.25840890892738,176.936147243047,151.36492923526745,115.67977027748587,91.24641230156277,70.53221824524978,49.24052994265287,31.79708612165263,8.148958066264127,-15.3146031513211,-19.790686519783407,-17.939590021581942,-28.817763096138048,-36.163593750631165,-26.939679738736537,-17.71224422732096,-7.495966869436515,21.655533473136984,56.07254476465026,74.8167035148808,83.25472501927798,85.09766648833708,83.15601207306094,91.86284258531475,102.30726627529899,90.462133292978,58.438273072913276,11.764463974244467,-49.73137509539407,-97.61676551773135,-108.25591901830742,-104.09734674931963,-104.31829013299175,-96.92853795998757,-79.68690730302254,-61.77991186520617,-41.46950678856286,-22.811599655228648,-12.973950038063212,-1.6713814172223422,12.124803819151598,11.90612430706335,6.141731067732156,13.854209944927845,18.666284014771247,1.7435941237947041,-19.64622317154471,-24.334884434487357,-14.293935081950664,-1.1298979645837486,12.049387288970347,25.466768113177245,19.30890334725501,-18.237229731957925,-48.094192137417274,-43.64896994613544,-37.350944219741336,-40.52242209332167,-29.208884980603543,-12.495645305104127,-7.981107989756342,23.143183389501488,192.57862866865042,530.250362071922,696.3558214430286,270.88273976840526,-462.0417459824063,-784.0251605538906,-653.2635220853252,-536.0153737596584,-428.79336113108945,-115.26802513964275,185.21374004557754,236.6307412232705,184.63034458059494,174.52924688448712,159.41551126314084,115.98911534702499,79.16712304532983,53.89654626374476,29.96752201943421,6.357955002104207,-11.894071162686686,-21.34749258972345,-29.572672333428336,-39.022931869539256,-39.31827363392585,-31.616534634289806,-24.15914913161689,-10.238982565695292,11.401709866328531,26.921978428768806,39.99983082359071,62.710090163124185,84.02600187686994,97.46385307432539,112.8100236014034,119.93018562185708,105.43865354657906,79.4679299846571,45.95167615352776,5.1173579490861805,-29.43864384400008,-61.80931713872371,-98.55872030901669,-113.99661696450158,-98.70812016386506,-76.22670983188152,-56.10188618690329,-46.69252071655114,-56.42661939175509,-55.39957783544209,-28.828859709099085,-11.806814904571844,-8.232351550056194,7.223931288903955,18.349148132861718,9.467757427165623,-0.2483406507219179,-8.041282928526094,-19.717527158430762,-21.66069378800783,-14.758411044991881,-14.610534752174665,-19.31344808073094,-18.467034850310597,-6.805029523028093,13.515535066520629,28.343561908148807,25.591982534342407,7.936281593015982,-13.18125011349451,-26.283873259073303,-33.918298254396916,-46.5001000746135,-53.77179039393966,-40.41587710249557,-18.074766301115574,-3.876988031391299,11.882104494638682,101.93888994679178,374.35935253399066,695.7546460700609,587.018607672247,-107.60052902111244,-750.2853693367646,-800.3643632612027,-585.8431664139058,-481.0941168307952,-272.62839020475053,91.3811383984608,253.05571462777257,181.58288120544154,152.9349586753163,175.28534365314067,134.21118921419983,86.3785649890826,73.02074140079344,47.470637322826185,16.31074771113701,2.9621938977937106,-11.403222013419324,-28.341072408184438,-32.618322289582004,-30.906912430386864,-29.229415908605134,-22.874424182334202,-15.70377446170104,-9.329235364880695,5.178183241042689,27.78839129013536,50.498320168908464,71.05253793442861,87.02097758121529,98.352344992188,110.08585889841603,115.04031083596352,104.50272912107772,83.74110135836015,45.541038211326835,-16.798492459759153,-70.2176990909396,-87.89621742226424,-87.12230982378676,-82.99878542953938,-80.46205164294949,-87.2145337658602,-84.52220803581653,-59.17931799120799,-41.168079785676255,-37.30626125170651,-21.237132338501603,-6.6251637705450115,-14.40549397953248,-18.7282736178174,-5.659404320692815,3.675904581084943,5.107212883963317,5.878673714542707,0.35708798140831277,-7.240558550856452,-5.087046177045419,1.2771351588536533,4.4517693975764026,7.963248857056719,5.854647070136217,-8.858263455187739,-18.03264520713202,-7.275425550136317,3.1291798563905555,-2.005984717816709,-8.873728440547094,-13.291053074566008,-21.609202243686145,-21.670260930599763,-8.734142991831433,-2.0727142211455565,-6.954577201985336,-10.312122908443168,-11.285466324283853,-14.620375953523187,-13.09579936693087,-2.528723570398558,3.7652393358495964,-4.103553021157349,-12.558333067431576,-10.652493637335391,-8.844967389669888,-7.5977101096555355,2.407504405502241,6.251034476047849,-6.146839130558455,-12.166614410803916,-4.746920998960434,-1.8151563609124253,-0.8895610971031438,4.405535964856199,-1.3078261593430494,-16.192833092814503,-15.865111653297422,-1.76610076338158,2.8315124922373514,-4.112864909917345,-8.419849252757853,-8.343213254291847,-7.102347932882339,-1.6112939491067744,4.373825898555154,6.1831507503412535,8.313755191147276,3.7855388056829824,-13.106675945277857,-18.613450284630158,-3.880917598382749,3.2553221122889617,-5.343011778861339,-15.675756808543616,-24.24711334109715,-23.257240697035844,-10.797796229465728,-4.712158942544717,-9.186547206082835,-16.76806079302011,-18.031150681738627,8.327883626684649,42.92592952223804,30.851169623173003,-9.373704279240306,-20.975282576435312,-22.99993770861647,-45.23270940618501,-55.82626218675938,-39.51764324563871,-24.908448255993537,-21.261286293187105,-14.244511489309328,24.389836507210774,178.63138079256248,483.6765946275524,664.8453956365245,330.7659374679272,-340.9988337006207,-700.2474189825078,-612.1575304170187,-498.2774522360905,-416.1319258976712,-135.87515451353352,164.1245254307384,213.23776983926209,148.74680375877597,143.61765043546336,135.17641284526837,93.37989521343468,70.46033182953809,56.263163473225546,32.11433645207317,14.531377732983291,1.698194302422917,-10.293444213954505,-10.617616586176666,-7.257218874428079,-15.895015513053718,-30.065962212546058,-34.20744159145748,-24.638912252475308,-10.767963939110945,-2.4838592003774345,2.534088689332391,10.863664129450509,19.88086882254786,26.709101692684882,36.502776148374735,48.373733890073446,54.54654267242806,60.73787570575017,72.81673802487504,70.54236416552529,42.41610459404538,11.849780171666549,-12.898612194578075,-44.777189892649304,-67.76265813303085,-65.4939415817491,-56.1639334898496,-48.024294907621424,-39.215922417749354,-43.884344262279946,-51.6676737845695,-36.86889736133946,-13.848166662035354,-1.3540778894940182,7.922981427407883,9.558271472569963,0.9177674118619734,-0.6260747306414771,4.6478312301800475,7.61283369104812,11.483538224501885,4.587939720276363,-18.5718869923596,-29.462864643510095,-19.121340078892246,-10.803991609818958,-9.406644759212433,-10.381264865710353,-18.06631932657618,-22.919735792782436,-16.74359372817607,-11.430202920662328,-10.03233048484551,-6.457950189033795,-7.703279265335016,-14.2394403927014,-11.970136706708963,-2.908837181556306,-1.8168557317539111,-5.299971829356181,-3.940934917490811,-4.368319837685512,-6.389067574042759,2.384479652181648,12.897396871368837,10.255900384745226,6.7514655393607015,7.982439568953484,-0.9912063529321173,-13.843630369138772,-16.48449323636783,-20.129974514599287,-28.384672307075583,-25.10171858569359,-12.513078463389725,-7.158364022165022,-9.119725376114008,-8.587938702356638,-5.441780921088583,-6.9356255701943645,-11.322043457962296,-8.722195402130822,-3.296299571546678,-5.731488446443247,-7.764484526651783,-5.0341390328917495,-11.479471802737171,-20.344240470479146,-17.042721770165567,-15.134600829824336,-7.069130634563523,30.443884414892707,50.91982759419308,11.025771345320885,-26.413549013603202,-17.025297370813973,-13.401894558925886,-33.443160742919815,-40.21062169081845,-38.32485710386077,-41.413925363143456,-33.78807911348312,-14.675652759849529,56.37263523416554,294.19076175601674,623.5205189741856,619.0123245168506,56.559506991681616,-572.1196377915543,-720.6882227287522,-579.1698315038562,-504.66089546455714,-351.94284392708005,-19.547880410522758,198.12501844619095,190.3979333333627,160.7271524199289,168.13510711298085,136.36427332002333,94.15085130762174,80.18358897183577,62.288060260905716,33.15968945509756,12.042989513918592,-5.07832186084529,-20.108544283992458,-25.235572942606346,-27.039345200171127,-30.79696487645588,-28.820366829574223,-21.350018336150622,-13.886632455320974,-5.6778020739197705,0.6791376607468482,7.745288008827444,27.092792561698097,50.29796858698047,58.4906927644238,58.87829000442256,67.24594329430057,82.63384622415644,96.61770662258178,94.37486073445426,64.86727759567172,22.005084168218207,-17.7769809778267,-55.22420460020912,-82.42665385087933,-86.17858351395093,-77.62807602639822,-73.54221669966262,-72.0781164387414,-68.8434155147223,-59.710425759404046,-36.871100850096596,-14.043856376023655,-12.996037292882598,-15.822677684595831,2.1749326057755702,21.49729870759921,25.504121018764728,25.633072942490244,15.433450562363891,-6.3504312921890325,-10.735095558036619,-2.3982536266912433,-8.37727746851947,-13.6806474478669,-10.892247808266156,-22.855763687592983,-34.717732743940005,-23.895860009862965,-12.82643649762403,-12.979642684675973,-11.618425743062744,-14.177304003901938,-20.0115031233205,-13.903442876284071,-3.5135013250082494,-2.8869791406711336,-6.306617480484583,-7.333719962094786,-6.092816581148959,-2.2390273908802847,-0.018218349508932974,-4.482306776878605,-11.02297950785876,-10.379580689234057,-2.213404052725421,4.443933381416157,4.204590255416348,0.3685236979070474,-0.9961978473206337,2.2590700537901878,4.854941038791323,2.304199644531897,-3.1531639945008862,-11.156864971291592,-20.006096832115908,-22.751561524832418,-21.34876323668758,-20.7588498996313,-18.834601400909474,-20.895072587054848,-27.89359010614517,-21.577489957545836,2.6210987708619418,27.085933689584074,37.38449244021289,24.35996374911106,-0.6537331217652778,