ECG,11.539559496613226,19.265555415315266,-3.1353604727360573,-39.39087256371486,-66.41122444744589,-83.4751701995816,-89.0163101285821,-90.56589829162404,-106.3218913000982,-116.31604195501042,-90.84440269248704,-56.514742653679036,-43.0669372877801,-30.767239247502154,-5.481847612257447,20.38634872497239,44.12382484742105,69.17227856729751,89.20067825565864,94.47304091341135,78.77304179616814,43.33020324303403,-2.2627620547558394,-39.67962406841316,-52.60103662343384,-49.925511617937815,-52.0402140998231,-55.916427559802024,-50.11402938972792,-40.920661008825185,-36.62585124707394,-35.29195342816756,-32.959210411347115,-26.2777475164999,-16.65526016092255,-11.882487183950484,-13.944642561701166,-16.015903384896944,-14.598530009295345,-11.47947414880289,-6.389426197607531,-1.6622465312720962,-5.990793872046229,-16.58171965937982,-15.056470006509446,0.6810970019099791,9.715540660050102,4.233797886033273,-3.2691601315600582,-5.434754303316714,-3.59706122610263,-1.148453712399979,-3.715189127720727,-11.017451557084986,-17.279442522511754,-21.191207611885048,-20.033799540095387,-10.326755254615989,-1.8345597027164704,-4.998925844413112,-12.054569764175575,-13.120076279893798,-10.617634580999844,-4.379207185856501,10.308556056435465,22.33242740745439,15.925419298219882,5.362290973358564,12.334910709011702,20.928944310456497,10.894123722344851,-9.383985167698366,-34.324165633438156,-52.986711316440946,-49.68334424810724,-49.9679846954895,-62.20597440701631,-64.15772569921484,-101.21269299316205,-171.53473926277388,-152.8736290392082,10.694455490113228,369.07180462245515,859.7385364597432,880.9353052243645,73.31984428120569,-666.4574517982886,-525.6872818076866,-125.41040051539883,-113.74009676085409,-148.84931944079182,-32.77994562334316,-14.686367021301407,-45.00971533267717,5.086859310281895,19.88562549024657,-9.858794555470869,3.8677054571284453,19.063609566400004,10.043754779395606,14.14777652705537,12.238113573615836,-6.024510407476092,-6.821292165542394,1.199809153362784,-5.756811035567896,-12.193649473124337,-11.581203089834165,-16.870326351490366,-19.871282047446616,-10.16738385113336,2.8047928897042773,12.461428398248675,20.103829920471792,28.404426737454244,42.750855907310566,59.22487811958324,69.26134655291047,76.64501556497854,84.57627987972162,90.27218566004922,95.36243702285881,91.7751922273986,63.76047156118443,16.376801890050633,-31.09479290754544,-66.62070952655324,-84.04841224544685,-84.94461747510047,-79.43965610027679,-73.19631789358169,-64.54371802152396,-51.86359130973692,-35.42707312256832,-16.577948014687614,-0.28257258565601795,5.311743068477698,2.955016968610215,7.088973632965257,16.30044382319282,16.36457195299993,11.914198052535989,13.693358272544268,15.281186327836581,11.604017942216203,9.907653456262102,14.073745171329366,15.892900230316693,5.738570495858829,-8.450041805427498,-9.969425256146945,2.0828623182002115,15.562967230344745,8.579804293092561,-33.61028342207478,-74.53963082756498,-68.29578413647533,-40.49838947914674,-32.65130893497303,-30.95834997975122,-22.52019007585623,-22.20385074667998,-25.341357950071213,-17.379451487765966,-5.547279895541557,-1.1006108592524555,-2.9399619792701692,-6.340235062554591,-8.386239691750147,-4.898130573085405,4.285852214998693,7.112141707313397,-2.290336956943044,-8.918312131471074,-4.323938619838652,2.2518606639167853,6.92996394878286,9.554482800512172,6.47353035126022,-0.3581746196076985,-9.627291792118738,-18.182401231879687,-14.07774175336132,-3.6858027533089466,-7.120027608995052,-15.487066339297822,-11.630967583802821,-5.913406822578915,-5.874839403303137,-2.291213693883452,5.470465029435107,12.07048940379969,15.326915723778777,14.845355122048346,14.995337334243619,14.112937905565005,4.331674159452448,-14.974055283143985,-39.699919732370496,-53.70689590307779,-51.31730820642601,-64.46330845568828,-86.52656369760615,-81.97428560195021,-95.74884457244958,-136.55898931156113,-106.66331457165451,50.21110532821703,406.9613815349796,864.0084573812329,794.7370028046437,-44.6659591743269,-689.565187628514,-464.6263561340159,-74.93020117538751,-78.92853095515724,-104.94724291916083,1.7562782513100288,16.049720709073902,-7.1199422024784615,19.71718095116872,9.0936964806609,-6.701742171659044,23.64438510956148,20.740440629298735,-22.58532573038785,-33.833275418365304,-19.656180787255824,-16.663247111183946,-17.72500523687787,-15.811220818084164,-18.45648073333905,-22.434547773406397,-21.205975178106815,-17.624547608311026,-14.308801460310715,-9.372620838357879,-3.495747068465052,2.8844238891710408,14.95201973029274,34.20781471409491,52.397930691976214,65.99370592858052,79.15054886891244,85.57129991451428,81.31730409368359,83.62172168007481,92.86516313912493,80.67675091257732,45.66569449887168,10.86504603761887,-23.623373989638853,-59.83665183832474,-82.36263720455324,-87.97182989950412,-82.74376999248403,-67.50191425887913,-50.35851838926705,-38.23972321051198,-27.477573225349452,-19.113377935780058,-13.99185494723348,-5.806778932999594,2.3776610545882946,2.912158592115185,0.5367922275902028,1.6987731800313446,3.8860045959633416,4.4666042197768965,4.875835986210941,4.986108363806454,2.5717401111570215,-0.026918654105548168,3.580061862994609,12.753886139917267,16.924222194688085,7.505665755703384,-8.60783068289727,-11.645934630761186,4.2485393778643585,17.17551513260707,10.694910887473906,0.9673082670946478,6.94748672377573,16.023709893238173,5.155449870612264,-17.94535000690756,-27.348523728664098,-25.95190830241816,-34.16885215400694,-42.537778625403135,-31.231632522557863,-13.334223575473658,-9.88036744607194,-14.328897449503184,-11.30832808246226,-1.804300757011056,5.96942300774883,13.236537668578928,18.65032523196065,4.623255717005584,-28.861892402776917,-45.8371095181685,-30.650493112303995,-10.363925789257962,-0.19702862860869175,7.064473965252123,9.048433828759801,2.215836476937433,-7.282459119138364,-15.137420960962903,-25.817769869514947,-47.902796810376024,-66.39789663950627,-61.27330384201758,-60.794043889919536,-75.82851356775973,-71.90305380802364,-81.41081256704257,-125.00816783333332,-109.50729081836039,26.71447741083682,339.27850785909254,778.0318633130338,794.5262607155834,34.685977044357216,-675.9966464328659,-530.5884841377344,-96.30833579542913,-49.88418176847993,-99.81212207199303,-9.27050563833587,9.510453753811056,-20.591127713644653,21.240535136977027,37.749724473054144,9.056941434407122,12.982402463690184,25.220578427750414,21.39935499799778,19.724665308653403,4.17816046204681,-20.506610258652188,-22.144738126383366,-11.356395014644495,-7.6534147667799814,-4.555467913091266,-4.6662632835974724,-9.043391215879828,-3.9566198176482477,-1.2585055417544444,-17.27480754195155,-24.03813708571561,-3.273923815109386,15.438755008894486,22.245919657035188,41.68033749718979,72.4420513322977,90.6255260656024,92.37387803292154,91.58275193563934,93.3667382081638,85.15049792884793,55.52822344487945,11.752622108280997,-30.395261306847175,-59.95555188877212,-73.8166228245689,-74.02685608965031,-60.965981088250366,-41.4842235773405,-30.507220744726588,-28.283916591007447,-24.529814654857795,-14.472637375660609,4.550943746002702,12.91751074293815,-15.280486786855558,-45.9494206771287,-34.639678754841086,-12.762199802309873,-12.94865860752952,-12.29264062790324,-7.845412764460807,-14.338366284936257,-12.149884884348358,3.678099066685178,6.352199162646887,-2.1386793670845634,-2.9447902448278906,-3.90344540948524,-10.347742978451176,-5.405614105348456,8.937180491058369,6.811901282822394,-10.514967326338928,-14.316385187916122,-1.565396526538775,6.416802806559316,4.894806464053552,1.8327436695483037,-0.3654299986004901,0.7978355069360941,5.409017982820886,5.516389731826305,-3.3248978426916977,-15.038101502926327,-20.232076415074133,-16.270487837605266,-9.410717969058492,-3.6393146009158244,3.7545239935249946,10.08681079679425,8.035385411019153,2.6488843673126414,6.914618920327034,15.347963956090021,6.7686538249133665,-15.4954636605332,-19.593079196098614,1.035481569700611,14.225470603645556,8.718470615120438,10.151480237869329,20.09619385843648,11.439136275934136,-10.518186749013193,-26.805634781780544,-47.32938097649857,-65.96210191130757,-71.1137195032318,-88.74744654348882,-106.21157257819434,-95.43480878164699,-105.48959861052847,-133.2637194109359,-90.29497555538111,90.75479001654435,498.96775088161786,914.3646698950822,654.5879206567024,-257.77522030444743,-724.1510594519707,-378.55036612423885,-64.55890179343578,-95.37165738717395,-65.18756694433122,6.9924997913313405,-46.15150883386387,-56.89173065183777,0.5059146645786043,-2.5197201332080077,-12.537890375043503,10.521950841082381,5.092478946005693,-10.74451367027807,-1.701267280711539,4.6187534527182805,-3.1356683854755047,-8.745775077270036,-6.674237708310422,-5.775339580861887,-13.545784372892594,-16.929683663729893,-9.017851653425742,-7.495607223971416,-10.039724486723378,2.0778690040241052,15.788247501286243,13.756482480032798,14.103790961838222,33.32992427764421,56.61389155811749,71.94073405903023,89.02640413124908,106.79684415317196,109.06770381402718,97.58391580613082,77.88420701470592,41.05584544628876,-0.17279003314719876,-25.89755407642597,-55.48007779725953,-95.9602729392097,-110.04034637782124,-92.34816810185569,-76.25821447778526,-65.16313468580664,-46.94338148191743,-31.173716082861304,-24.348567428575286,-17.195752445178314,-6.046087052116622,0.595044581352056,0.04425630412928783,4.150160987842273,12.322934143414912,8.724364727644183,4.176056534668799,16.41206227912486,20.901136764001976,-0.4102297526899541,-16.511776329196863,-10.774632979119342,-6.20373486462972,-10.36532962536541,-9.959853340846312,-5.39568521524207,-3.057753875624516,-0.2873235669459815,2.092090326232979,0.1062708433198285,-0.007309124672080447,6.111374223582999,12.459145221475907,20.332494272776735,26.74872148670476,10.84645133813332,-19.28482064615268,-25.22744152210177,-10.238255810426608,-2.5888779151190935,-0.0765690091681126,-7.683080256032213,-32.16142229060368,-32.206693991686535,2.5858773464274067,14.882456412146482,1.2380022592488338,4.655346280264358,6.534811108391861,-11.276672960546655,-22.93052944649673,-39.75821267673089,-69.69508055230159,-80.25160312874277,-82.91590155349843,-89.60992930312725,-81.38121719323783,-95.0530228990032,-126.86010879552295,-79.73729755618375,123.10721380207536,547.6552290561966,956.6387963599625,685.1786235267907,-234.00355336558454,-711.0911141644903,-384.4059493405444,-93.56951577167817,-136.09289919147898,-95.09496024556833,-5.670855918201056,-48.87900639114025,-51.6686312923962,9.432421504883113,3.115947046419297,-10.957423457419326,6.127873969059454,-1.1665608180748759,-5.485197795623815,9.782025638818373,6.933102805164094,-3.321735190101064,-7.2559175192400875,-17.880895970328705,-24.7604843648869,-21.895891442223373,-21.272506058116203,-21.30210743017775,-20.702503126593736,-22.08405061008538,-14.968005340702092,5.165150710931414,25.668780345824104,38.00761509894869,50.02028431857159,70.04694891662524,88.22395305084794,97.88776430467163,111.62215393723051,121.36786169972325,101.50094392935114,62.194079065592206,26.59218803346181,-5.484391964506202,-33.21482050135458,-61.658459634921954,-100.97523021394672,-123.05493874324893,-102.27993351170262,-67.49296566738462,-46.13967030735059,-35.33729292796185,-29.987859142651395,-19.975597212337462,-5.4527147240170635,-3.295560582042757,-7.008357213124221,-5.007986085370348,-8.383697475932438,-10.969400317917737,0.5916169460685516,10.511520465862702,9.487427036769734,5.600315423176073,-1.0293589338585907,-3.596284295947136,5.690437501767439,13.906317971449656,12.257453876411475,8.995822389045085,9.579714405337555,8.119526129966243,-4.817175422687168,-20.47160092859717,-21.409974401769762,-19.006686996061163,-25.033700133503366,-20.867722618724564,-6.140035099304011,-0.8874192646996963,-0.19606653456115097,1.1549023136655023,-3.740356896736637,-3.9955830662881486,5.991529610288488,12.645842226342904,11.535005233734596,2.47037522941866,-10.311161381900556,-10.624938159898303,-2.0869204393353957,0.18474338597118578,2.0669345511660375,2.437207283151195,-7.475380235675787,-11.124891414519485,-1.042995045293893,3.4368578661023053,-0.36725032452558004,-3.4055856031879768,-7.499853645772495,-7.441110358593372,0.866730378847441,6.068336107465994,7.501032625312786,12.983617783347716,15.016291238194286,13.046043638203246,17.727664190779066,16.692444819212895,-1.5729301194375127,-21.574585541727878,-38.23695521427697,-48.0839103661285,-40.630050804062584,-43.72347041410843,-62.92797488138211,-60.61458555318468,-73.67681607174777,-120.90337889599138,-98.26502074073225,65.8053639038545,414.14436978506274,821.6227306906991,709.3244134142847,-113.49507121014015,-703.0066172317818,-442.4070966251737,-59.651688523868266,-82.28087318298051,-105.26583936398232,12.61859539384561,20.291207557369766,-12.767714581518867,24.72981100293663,27.171376118203405,0.15750545655011372,12.882875265230862,12.460913301930287,-22.698126225435544,-38.508914460194156,-31.78906695696334,-31.209425034700782,-30.19212655544908,-20.376911162916052,-18.677378687959646,-27.3951096114657,-27.19541612705446,-17.369426170985133,-9.7636970701273,-4.911745451475717,-3.4670981973976125,-4.157976385556423,2.3021291984338372,17.610274038471346,37.034039742763845,55.261997281743554,66.17600993342194,74.27843244677064,85.59643767221193,93.00962205265218,90.99802286260133,76.16081253782362,41.81142676970391,-2.6213306973191797,-39.04952668931683,-64.07991419693401,-78.1676266288298,-79.09803829705642,-71.31119264921074,-60.81932941513344,-50.08403733603889,-37.305666651681044,-20.238812883695967,-6.884518863703725,-3.2176249723709507,-0.8768700243893992,3.2685671865393484,5.841746142166152,9.387887957123416,10.310146558871097,6.023934140188182,4.551282240218692,0.014179644652010381,-13.956610169962827,-18.831779514361187,-10.567564647896809,-8.016996673416433,-8.804208533241,-3.3600835806229963,0.7022522431503155,1.4013002405139527,2.8698774340430875,4.986773392557618,9.744553238600005,14.685525584634338,17.802900987169128,18.634461434742526,2.6578324972168588,-24.67111461899223,-28.300738016458865,-12.464690015339192,-7.282611320249837,-5.342977286956966,-3.0315349403572043,-16.6140427281853,-27.504656933558927,-16.550280176102834,-6.260065331999483,-8.773826848162484,-10.24120795254984,-6.668136785087776,-1.5264871805404479,4.723390559379784,8.565913457965335,3.6068592170229055,-9.836535684625197,-16.334299612894252,-6.152699248696103,4.300838464590386,1.5543867340744422,-5.281722108939219,-6.452052664751834,-1.557979863832732,2.3390842636979876,-0.8288526712858868,-2.0267678715141404,1.675346740152463,-2.6898628826063153,-7.521492896154485,1.431546599786914,6.32458386655982,-4.528810573633303,-11.143663508539401,-5.650986637280359,-0.1021532790517965,2.5452292052681056,5.204324516669576,6.17447045342352,7.892061911134733,20.076512270615186,38.133829556658476,37.69430668295727,20.610849110288576,17.343963006530494,22.471061341923757,7.451978999712253,-22.88477491820906,-48.932572228559465,-63.67414319958402,-79.5885795205954,-107.94213580735406,-117.07732318878567,-106.41831514230779,-130.63141554827143,-149.51793350529508,-71.03344246711758,162.4956082349538,599.9901693629338,903.8265590327853,454.9801734433124,-428.0379682532512,-661.8004390019121,-236.9642106483809,-30.91621926880999,-104.69855627304175,-42.52206286595267,34.027432432122076,-9.297928531799734,-8.428449660176394,18.54311665149236,-7.787232998623967,-1.8716220218305484,28.20084658172478,0.17089409401345534,-38.56856515732951,-33.240459327727194,-15.6726729894141,-8.50634003802529,-12.45680169187354,-30.24616718119559,-42.411608085654414,-33.97921369230529,-22.18135422246383,-18.53421750609803,-17.411551807225916,-17.437222893502785,-12.785005062323936,3.2834118233192005,21.370644598068985,33.96289850285445,44.309951920273974,53.4172880190059,64.35351999652234,78.75318223716005,90.01347223257815,95.92766565728309,92.92742536838178,70.63591620863406,34.14491074810606,-0.825480925725361,-30.705065374975312,-57.13195018521186,-78.21748142432472,-88.34517209516552,-79.66407823278647,-56.84291921399027,-33.95073362052371,-16.075543590392215,-6.81681460437958,-11.077541279416245,-20.93169123978038,-22.581723879350967,-11.552948083133515,1.1601085315081132,0.20314264010154304,-6.958732259480714,-5.513055028423921,-3.350672969333969,-1.7320302944992338,7.112392720207366,5.686405240072849,-8.57858226270093,-8.54976149727733,0.4947716605946857,1.8008997030867269,6.32280370765449,7.191801548206675,-6.671269658660132,-11.521451445355911,-0.15588525094006367,7.969634900290243,9.387710312292835,6.952456364640867,7.160047238405005,14.877079417243408,8.875537217501101,-11.801367411740491,-13.634993503676448,-2.2658072406447856,-3.404553229572784,-2.2581522546060624,13.871254860632845,24.167539526672286,6.013613769157299,-35.2301817189631,-57.477378067077545,-40.13480100126904,-22.026452855510804,-20.34508828945769,-12.306354674834665,-8.627306919770628,-19.740278374268247,-16.472169683441443,3.3816816358909865,14.790584633244393,17.36796387888159,16.37477068012074,13.771060431510804,18.5391435332663,27.118509452619506,31.178556767930747,25.261749604501304,0.8366686474789677,-26.322560782245645,-40.025209286980264,-56.74840941763776,-71.19610599944578,-75.46005988510689,-95.45450043240058,-108.70441945908256,-98.15104764341105,-119.4536568807023,-140.99144126822026,-60.69937820419146,190.96166870382672,655.7094906766952,961.1806190456786,465.743656752735,-470.8690683908287,-718.6568341372358,-285.7804261871181,-71.69455962963262,-128.132437893379,-50.794608265254254,21.843679328424287,-27.947472623880827,-22.708811912339698,15.7083884119877,2.748380425206765,8.401147446579888,27.579861280386655,10.813729590254354,-1.0406116616672527,6.903138696309382,7.8082212875005546,7.200437946652993,6.448440910248504,-2.4445618498206527,-6.727745353601293,-0.29136270849389767,1.122745632692347,-15.245811600301746,-35.96165802379538,-34.008296258007256,-11.447368877627174,8.405711047403226,23.230028485427635,37.356423073311824,47.648111494908996,62.96198216429528,84.60192191841428,100.80457741655376,116.71828231159787,123.62776376553829,89.48579137096269,29.219020311530358,-13.626445289041033,-43.03494751409995,-74.73650674365271,-94.12581740189994,-96.59632894324324,-92.87758003529427,-82.72434215156255,-66.06212448536506,-48.7455534334488,-33.2882791812051,-21.818673293923325,-15.180101343131547,-9.476477292329612,-1.1815712178804425,6.792720757162369,8.04352868100338,6.734721605643065,11.933673115073438,15.534218355883711,9.828097883118028,9.215282552494887,18.04154000359515,15.666106474333493,-4.327203668283564,-19.922552671920684,-14.758113161865332,-3.377614661569602,-6.919585770542499,-14.929859937125771,-9.054827910448596,-3.0504804041733813,-9.091092658116263,-11.617475748448824,-7.052196147999605,-5.891491064746021,-3.3441947758531674,1.4263896748563338,-1.2314646322693052,-5.273948784270926,-1.588645664100806,4.1401520682857615,7.374771168814107,10.046874904775239,13.541906808509669,16.2431429771506,12.667191741747853,5.4522277106797805,6.200828210863712,15.30492523536174,23.189727674794195,21.004736821076555,4.275681903711708,-12.919498633856824,-14.640667255975517,-15.639900656572205,-30.21087243579983,-41.99103798888337,-38.88608154581746,-28.48604557628113,-18.285161518849602,-13.483672434203385,-14.50564298490164,-12.259526313347997,1.640273289715152,22.748222475783745,33.692914721088556,31.406226555065434,29.757540308004465,14.352026712362687,-27.187396485915784,-55.30269316089827,-56.6660298373792,-63.81247744677881,-72.49661148376482,-78.541214786036,-93.12052704308778,-91.44968284927899,-93.99067510398064,-133.06505446964096,-129.31843937785243,2.8499637542940093,339.59106058314825,822.2159168167238,870.7506178978572,95.34974437571688,-658.745936442038,-532.9357564389745,-104.36886250216855,-74.1981875304865,-122.64756930824976,-12.443386091387431,2.978423790710309,-46.14786170356065,-6.474657201627927,22.1016851231391,8.357799059536779,20.77903074026706,21.535370999696116,-1.4480550991197463,-0.03342083952971109,11.24237149815594,7.853747909104895,0.4599014599987439,-10.613005205581858,-21.565239182325307,-19.30506525021715,-10.901545791800341,-7.483139773329469,-6.2445193823094,-4.827453538033529,-3.4968043003921796,3.0122701569294037,21.048070597814046,46.632986756119465,65.99107783645286,76.18493778091793,86.57252502821402,92.44934303329401,86.12042569606717,80.55135461193396,77.33133417626442,56.41847584711435,19.91786112322719,-14.116010512216615,-42.91996931140223,-64.71788852298155,-77.34278131729307,-86.27757321896257,-85.66669628462655,-68.91901352048357,-46.84794779300418,-27.87229183734673,-15.399635133955652,-11.336346700096449,-3.9842014373965426,11.282783239730335,24.107880498103917,31.309098208140675,21.34580924123076,-13.756016956687178,-36.96238605565718,-23.095560940013037,-6.34874380253215,-7.320106116678938,-9.79824764789263,-11.381886694165557,-12.204144409126755,-3.676351528518169,5.6905927929952425,7.823359039766774,7.355387008659724,-0.12199135808618955,-13.321177160457877,-14.781914774908039,-4.344885821990149,-0.7207986740133467,-7.99884878802472,-13.535392444379141,-9.84187383011712,-1.6073252355090397,4.162028282787318,4.977294060864674,0.6027118586273321,-4.3182878234026525,-0.22415344939462822,12.875648569355837,21.450346844043768,15.35405632856002,0.8730500544632629,-5.41702033541848,1.7207636886597526,9.318473899625959,9.001524806906836,4.146690126779028,-5.772727302418838,-18.66167832848275,-22.147471987641627,-11.462268312291318,2.839679331595068,6.898482495948465,0.9833889309094079,0.9296329234260625,3.4042794096328635,-13.770376339307806,-36.54722729286936,-34.95976947380598,-25.228730904406355,-27.572731868512605,-23.815942938253446,-9.26215437797298,-2.958757614166011,-5.752324877365716,-9.252307805595892,-11.931372656752345,-9.376042722017992,-1.5868516339319143,2.7288921833228272,-0.9326411952806453,-8.579138640423821,-11.819575320048283,-7.437512600544956,0.5515554670489564,11.778828632541138,21.0181749510813,15.674285130637788,5.6485949332328165,9.170797545920369,12.809707111968196,1.177534150855418,-19.36600028380833,-43.41123434063276,-56.42309626554933,-52.87664528014555,-57.50295446506411,-62.86751932326813,-63.42720384585871,-103.76747911434795,-142.2324475654834,-79.6713339687206,125.42615222612773,535.0835926783061,907.9921631713863,587.1024233839973,-325.00179785843477,-720.3390797264766,-329.14443622906794,-41.45283303452441,-114.10641060310184,-92.5713337724398,1.2917314460600835,-22.95133187252162,-23.587164178099925,22.741667867233094,10.70590733594721,0.04592473803086339,20.60042714977145,16.945555259331023,10.34783349209393,17.31008750583524,10.165332665927608,1.2449076007371764,2.211779904045674,0.9884317602914132,3.318101542709373,7.635922250616083,3.8328075052948822,3.1302709227078935,2.953487088638015,-16.912563186316184,-40.136996643565126,-34.60153511676927,-10.702278831095596,5.344203191393213,19.946935982560586,45.588898688177835,67.3737916241146,74.89713449658305,82.85236920502763,94.54661407095443,94.58343470524802,79.18399790512693,50.83446736302532,10.039938808653458,-29.686548283244544,-56.02092539058404,-71.4937236109976,-76.14927145656576,-70.47698706803347,-61.57297194914615,-49.24028150052071,-34.0795525493321,-22.8096296031427,-14.256582717006053,-8.198536604464367,-6.231079435855845,-0.041424851265485785,8.372731696305568,8.694885982898725,7.823533506569875,7.646603833275762,-1.6295369528475234,-9.384359235864416,-3.688355326980144,3.414550211284838,2.9996980271686686,1.1985203152240143,4.40403766565214,10.571293346965014,12.540738195614455,13.946046591305837,14.463697377735096,-5.160112011860543,-34.00121939174311,-34.37009311435679,-17.75099271941406,-16.59027267410759,-19.252774682558822,-12.652796504605288,-7.866233504365228,-3.8708442418856626,4.597909892592378,10.470830445554716,9.165099051870644,3.0753964227993564,0.9982052985267904,10.61775828512826,22.43885323216862,22.07519101004425,12.846740108600521,8.019502817986258,7.5707341783663775,-0.714393250175819,-14.240126084368868,-22.094540094817116,-33.91409964255467,-51.03538222026497,-48.677069454089064,-30.112995285362565,-22.532948911629056,-20.857128474761964,-14.380013714017728,-13.931350610124237,-13.50399346597732,-2.332189572085758,2.8590249911374066,-5.261214661848253,-9.623161053240178,-5.581445711120708,-1.0501230097753478,1.9313386206603038,0.8855394060322119,-5.490707252590251,-10.391601622878646,-9.316948976957132,-5.496453997406018,-1.7809257677637333,0.5304327886085254,-2.0960676744460525,-6.008159995302823,2.2945009160792784,19.494965308750285,25.164839960874396,20.176075451945216,14.200955680227416,-1.9562295690876415,-24.07033869985057,-36.83926124383414,-45.511284491157795,-53.51478588119027,-66.30273378263365,-87.90107980296955,-88.66259888781875,-81.69342724987025,-111.40523778961823,-118.3813051427538,-21.016221439562884,245.55594731909002,703.9777430054271,912.4667212246482,320.4353311450077,-527.1851514686624,-616.9492458309578,-194.91405305035443,-72.53187301733323,-134.32059911528805,-43.236736909912814,6.984874815729569,-42.524370750527396,-21.50915460341823,17.20702105835241,7.867227275408441,17.41634616771413,31.20336937057471,16.2249391723251,10.266155397551397,13.228364657642928,2.6002163694136025,-4.696588182997756,-0.18050919339900506,-3.2242642910816555,-24.380406950334866,-43.916920797063106,-35.31411478346659,-14.283839636401748,-14.992024164190441,-24.491041445214258,-15.515373385230454,0.7302707767857886,15.443554016472472,38.08104441267379,54.79837191732216,53.851216761173696,58.54678569103548,79.3664485697291,96.5874470132639,100.24496278675808,90.85486829005427,65.40823293752037,27.18403590848552,-12.878685949369746,-41.09408380555161,-55.19420280221358,-71.21213870765601,-86.66691388831927,-77.66952493617761,-51.27934396770834,-33.56685833663471,-27.683309084123618,-30.44219037773408,-34.039138680795276,-20.86129471316864,-1.6096142151957515,1.6886765853785803,1.7376885260543489,7.880168024001312,4.846295299869594,-1.267669007792641,6.873711169760509,19.452011489464624,20.64739792929479,10.669906637413312,-2.862411874424744,-8.542481044409989,1.463313323116096,16.767402889212025,16.589001226080626,-0.15375482674752305,-13.233614846127729,-17.369078921066308,-20.27618307690581,-14.591506954655365,-3.3731309612322473,-6.826105094054505,-15.2863222715198,-6.955018657205697,9.832174897081254,20.774324995822305,14.609386744902949,-16.411267153453704,-43.3861072511285,-37.04807520112099,-19.903625857372884,-13.908391535778058,-8.640873097173799,-6.7716132726927505,-20.072913576307684,-35.79470039050401,-35.6866030531267,-23.75940861518371,-17.013673919993145,-18.674298890956756,-17.34991245185571,-11.702837441789594,-6.55543403559018,0.4019569503709004,2.224160524062441,-7.127993740918136,-9.696324860591481,1.280076745394176,4.188176969349733,-4.0808135226548234,-6.896548929369018,-6.126433232460679,-3.6510130861164782,11.538226642167988,26.850803171050565,23.612862961055498,17.436148084076894,16.565857702323157,5.680277788397479,-7.329177806825339,-19.957795764593605,-49.89431947873083,-75.58376288109565,-83.14686297880932,-98.59986337330176,-104.45070741298139,-97.28752447243039,-123.52633473378545,-137.74142871677944,-36.1231098043329,272.74793466400683,770.2763615534283,951.0392592583812,293.8838091001749,-571.4334686626065,-631.41836228409,-191.9407573961003,-67.76845254528021,-122.21539544280635,-32.30716920073595,9.319912260641253,-35.08755259865917,-6.590952145282733,25.460746244217113,6.798641245686718,14.327357735825007,29.200394347118234,12.753279095934836,6.262183721107723,21.11510360581964,26.38539902349687,18.51034093596057,13.576054589310653,8.470839933122136,-3.6005159049439435,-2.907745743578662,7.573370701592399,-9.381823462848253,-35.65730029804694,-29.901624408498467,-21.726000613946876,-32.24023128152817,-21.17136996703823,13.148754979890784,33.84794357047375,46.065615274806476,66.63784666457177,84.74116741884283,94.13635248784705,98.71828088698419,90.92834691626378,62.21984116521428,20.62432919002648,-19.735821144253364,-53.47537720608793,-76.3391096085982,-83.07114085103203,-79.42465635541535,-72.02177322686752,-58.02683666411956,-40.32558441686528,-26.22715173455692,-14.489665291798515,-3.967737367633088,1.5921850239817008,0.21130118551825916,-5.257052441247151,-5.678489163060037,2.266610313026506,9.547478291847536,13.347137212158875,15.240874814846482,9.485679388114063,1.9047313595281192,4.835013306140084,9.807130763783023,6.951856850607587,3.0977015282467493,0.2152761197643418,-6.032736410432658,-14.020462168509278,-20.988866211729345,-23.974984675886112,-23.25661055492214,-24.00647674607017,-22.518058690857885,-14.480218757867181,-9.83900069737332,-12.21301336818216,-12.605077445874652,-10.408846578517586,-7.661698320918365,-0.9301853316642834,4.763684654494253,3.138121310261255,1.1115986022059374,2.6895402990142827,-0.21800243649841988,-7.510382867744154,-7.152620803380088,0.7039115067405781,3.67036532050932,4.6854270591332865,16.345218784261554,30.37368505489003,26.325223569489054,-0.327365159336118,-36.00749445344258,-56.80190401626864,-47.75627741828849,-27.356987233000538,-22.494791088250757,-27.506158377997195,-25.633337471413405,-19.199441486814962,-9.170553882631264,9.706723300271536,23.499140501853326,18.358693287810404,9.643027958710816,8.974244164353689,5.588090223014093,-4.11043468543356,-21.59250774359874,-45.29287362233865,-53.31083721809479,-52.72833669570231,-65.63202077803624,-67.55959737098777,-77.03007670537467,-135.80374277367017,-156.01818486407865,-40.32626489097149,254.0103644548504,719.6927161777763,901.2258051125896,269.24675065988174,-580.1257774985386,-624.3004496640802,-162.8853536397254,-36.76567245672604,-110.5659174986568,-33.9638579471532,6.97660023547779,-33.47426033755301,1.3926988005076915,35.279040600583784,9.05958559255798,7.006176671479684,18.157705181190593,6.965528781230099,7.66990914106559,17.106387909545013,8.655098172685003,-5.533543072846087,-9.020046482182973,-4.030470515108476,-0.12687877177670082,0.11253685275109149,0.7611998540191713,-4.705205489216267,-18.96344598135132,-23.61751619548518,-8.511219199576349,11.914281594362038,23.46069598527467,30.12529400759348,43.89410432199435,65.02578747802364,85.64389658224675,101.75116869578369,103.01215692378908,83.26420277069761,61.12277472613974,45.41062555741685,17.94672188294234,-21.39923110120006,-53.96277350726322,-76.65083075051598,-88.15952060965107,-79.78918204483466,-58.01775369612812,-41.20530655281824,-35.43220904897134,-28.74685412039753,-12.424408148152581,5.415793670644707,19.898445513082798,27.77281260900675,12.031178296874113,-17.810922661037466,-22.22039757291069,-4.94371675168035,-2.7480337108418347,-15.973214343334094,-25.763799394804646,-26.832753573462423,-18.164542152062893,-8.060019499201388,-5.579593282930595,-4.395168971953657,-3.232934391725866,-6.389409640348365,-5.724853206310289,2.3706214090836806,8.504733533156124,6.375408331382612,-1.181815435670634,-3.5283054326325605,3.171286687243535,7.472211207848281,5.065580267112026,3.884213170004012,5.689238465918468,6.340998123260069,6.8513735826602025,17.326814392703255,30.769035929045202,10.401771195483342,-36.840790460299075,-52.857692734608506,-45.61459785604771,-55.97862020507193,-44.608542490282105,4.161501924516527,19.5831496403024,-4.084643796447136,-9.186725012576925,-2.4976968952121457,-2.742872043835419,8.452352517011084,13.65920174910431,-7.509707593746041,-12.632157561722172,20.50343714577482,38.63562021387369,5.148140089791919,-43.372261283387445,-59.92819540513051,-38.961541903605216,-4.095045114058626,9.450606239978397,-15.060257924986864,-40.81440474245936,-23.271732924690163,18.91777184178411,36.799509652760584,16.79961798010885,-13.578745277323913,-9.39916286665028,27.01482390258244,22.300565153616084,-32.29703559741101,-36.51390730830191,25.636214605484504,58.006571454179266,44.68810078771199,29.63174075547922,-3.2693060369420763,-64.01916037845136,-123.60994830408046,-148.3195694120805,-101.81665860973324,-57.11070953877119,-127.38491947730549,-165.57807101703446,-17.547120239165917,92.15615652121394,125.39665040522067,474.9959350322124,902.8727524695902,554.1924722229586,-365.40462611299887,-679.9796979041962,-256.43534372634133,-15.398148511439828,-152.54928468293713,-156.91689999407535,-16.635856577194474,5.35159975937853,11.215872487884232,66.85003503205895,18.152379698341463,-55.100982883734,4.087438259145824,31.168947113947542,-73.58257912937263,-68.93752964959872,97.30406702545713,135.11236082594354,-14.488370597621287,-101.13984930583229,-44.69108576430158,18.70245629306409,15.220435665354994,-23.94165971817038,-37.338297795267785,-5.811465839240014,14.910809112413325,19.532135591042678,59.3650200253215,73.49440439092483,2.357598254212208,-36.48527195363996,21.199050610737693,59.83514353405613,53.25246096247734,85.26531108042698,119.20168547263026,89.05136089350232,48.150579117528906,26.207191485131567,-22.66887474476151,-86.05533176471465,-101.7326634824528,-67.31679168626684,-40.205124714720064,-31.63066558567528,-0.4364089390621402,0.9539776773891546,-80.67712864189178,-96.56333563491545,14.748093572017073,51.26194958727362,-2.101287748621459,23.813608288016574,47.85883894714583,-14.849278372654162,-34.68159618927629,-19.529379450330474,-35.07166305137847,-0.4351916035304484,40.30263177970146,2.561381118334932,-19.299530370473363,-25.367725389716103,-60.42596516937788,-10.660357769831457,58.12281596940333,-13.433724310198958,-57.59575066871561,23.599322782165572,30.64125397564463,-23.078241637730507,-7.993026817021516,-9.03271281926955,-9.941525958944073,61.994063883447154,51.27367948251565,-40.509502472354114,-7.486478199390419,66.03547155524426,25.703928556131487,-4.874243074158022,21.367721250634624,-10.996051699029145,-59.59922736983022,-42.17599224158773,-28.048982738046842,-53.30482843547689,-67.96703136856988,-79.68961185161731,-95.20152651748856,-79.12875161982399,-87.69123550243492,-163.14543920297155,-170.42112191304486,5.873559879607285,378.9367154935137,853.7779800900964,922.6528872500205,182.8560438533812,-643.5173977229136,-634.0967090485503,-197.30380498098168,-103.80178836263067,-163.6670775189383,-60.46117667135049,13.371453895578952,1.4521513707000686,26.921545718881724,28.410828514240205,-18.631117876652553,-7.655605599401003,53.838086421619074,57.85230346023976,-11.493699621578639,-48.647825715820225,-5.713658700893142,14.333488003475008,-30.145903486426636,-39.60979666522901,-4.261516265343996,-5.919075981781027,-29.599687932201412,-25.595547707191013,-5.585813990446926,19.557675871362314,43.387229576722646,45.59734094073767,38.94493204711405,48.233725731697064,63.83709157576411,76.7976810988654,92.8591638509825,101.9116522205323,106.34890693978747,123.51601456106232,112.12241145441723,37.16171284132797,-18.468624802911872,-14.524015959051734,-56.613089066890055,-144.40237203813246,-139.97845551549634,-61.56779080567489,-33.5250364061438,-53.121808643994505,-72.7587295642538,-78.06321463001481,-40.09558200931143,5.616789897981798,-4.975488050019905,-20.435792223013692,6.70284662260457,24.904909173334033,25.19729856346296,28.65510747953489,11.626253587637837,0.9970109487230268,30.212114237345098,39.15302663003517,10.325297078975945,1.3857356546730575,-2.0377699201535098,-30.289820169105337,-39.3946776603393,-17.92341198785985,-8.580566644945423,-12.437245042697121,-8.673664434411606,-5.097211038000696,-8.720263582728899,-9.247380461451138,0.5077429697228029,11.625104789775364,8.163398549984088,-0.6554967333199464,11.656803131089202,28.533689841436154,12.61092773251854,-9.38423405555549,2.6504857893448692,11.66161452282785,-14.416652782607462,-39.29843651015001,-48.85299840646431,-57.12852170001435,-58.49375517992948,-72.76090381650059,-101.95190347308558,-100.1426189600121,-102.17877029544753,-150.7240866342593,-151.96883862767248,-0.5261979063616025,392.9904812665644,935.0147543923913,980.1755389768094,141.66307577432198,-671.1442367969282,-564.0189360176942,-122.46572486914721,-75.09056588181761,-115.42475942620214,8.93404807545528,30.89800446246187,-51.33851714968675,-46.10265201228067,-6.145643002744119,-1.377686343988671,2.5083457081451286,-5.4775852097554125,-29.75543826693353,-37.0445614453289,-33.67929416870616,-30.473057296617895,-13.534150404294131,-5.2880446463223905,-37.368205245542256,-65.64112064613627,-38.284558677384496,-4.498328749445081,-18.079449567217885,-29.672232666505117,-0.8244473440348195,25.287812982494028,36.280401638304426,57.63682633612066,64.61439205861481,46.42054624501225,60.24628928390389,112.48931979594646,134.178356306688,116.09130479998004,103.34187623154025,78.09164514399947,7.8054105299134955,-56.51834693649769,-68.26893292538104,-71.59867777644783,-95.61129982174252,-97.32602833198364,-74.93132227309596,-75.04530998860922,-78.55522206746829,-46.700986257328196,-20.28364070416803,-32.19079481920467,-36.24651837164167,-10.37144856261931,4.3691495556770015,-2.729523443126002,-2.1163835888680147,4.749794099689236,0.9080180064153254,1.2142586139141116,13.690969951570445,15.07288414481032,3.4013874235711175,-0.069649673605503,4.00836330079395,6.816264226086675,6.296769633854163,-1.6526595093685597,-5.96731953226384,-1.997849126484116,-11.087306293018457,-20.467711003592402,-4.1922404382971274,3.8952772322404443,-7.359083613131686,11.698827566377727,47.23690356756087,46.91907649556731,30.401092906455297,15.251186036168443,-22.243903202329633,-57.24041482333841,-51.54241429930254,-24.650423854822883,-1.725627033072609,8.812682549569026,1.826459641520497,-1.1690280999983873,10.84791743398371,10.326626370070018,-7.692648890316823,-27.80783995629728,-45.34231967565147,-43.21492120341702,-37.67328520292654,-67.08943867996086,-89.60499946780739,-89.92887291654688,-134.38360542385044,-169.99420423657,-83.9710063771915,174.71633541134383,644.8464652625173,960.6679776464923,472.2351487824592,-459.2884518355992,-685.7588235318201,-220.48278486190333,-4.1129606056102475,-102.62506270680016,-59.76067399388434,14.684979319698158,-40.516178918514434,-54.56552963099277,-4.710818923080279,6.494856283575308,4.81899193673225,7.482631330935509,-4.002347540421539,-3.3783453554650755,2.6261609439506866,-8.521771851793929,-6.9256514310785295,9.300780115063105,7.128921805859447,1.5213743311081585,-0.9168188837095856,-25.132653419585072,-32.365410256811664,7.16445550007446,23.626472989221348,0.3514395671652082,10.737626310841307,48.41464625151478,63.518292398803155,74.00883045233536,85.32483029068442,81.65387397680344,93.30090787252549,115.516012418019,100.79892343929211,68.77770138616535,41.65289357063799,-16.411876488907474,-80.04725513059176,-96.34971888226602,-107.11883614713372,-127.91444450672377,-98.39640677140416,-51.16249810597388,-49.136438979249334,-39.1186146858213,-0.7069906528689955,5.957484118021341,2.7527564187415763,17.68789328455458,-4.10809970747389,-41.28506050998692,-24.511861569011963,2.9125830403706985,-2.6865923553809914,-4.5719682821191014,-6.87291578009733,-28.074884425723322,-31.753337575596948,-15.626439116395169,-10.086996464178696,-3.5406084884585063,5.136290570279751,-4.818424907545108,-11.137919232320286,3.9076745864695432,10.383619700443553,0.8270854532210024,-2.191583202771879,-3.73381993081901,-13.628874824052208,-15.737691956093421,-7.751762814670178,-8.786147162771734,-16.74206397283685,-14.160405305401643,-3.0194379877587423,3.7038310678005226,1.1875467444536998,-7.762135573557945,-12.388126692559306,-5.144750830566193,4.4872155585710125,6.6496487308760726,3.6281744834625895,-2.165760934576168,-8.040916608441103,-7.381590259297198,-0.01988464116923061,6.0742742199969255,3.418394738489566,-6.3600242622558305,-12.007007970978231,-8.038962632728902,-0.29286090679026877,6.730508872402974,13.153864660831749,18.954590093115897,22.58664948118961,25.40297514785964,30.150352140687197,22.992630803526342,-8.515058850472618,-40.57633819239682,-52.599488441664406,-54.64009625559481,-53.95251623190873,-62.90262037409039,-84.54601604668393,-95.46059920768779,-113.66602468087241,-148.7224676176814,-127.64020722289077,22.883675034733926,390.3458986035667,865.3685293709134,828.2226306014174,19.591783443574315,-633.0542857095481,-434.8257355303409,-53.57874474447843,-64.68588842375652,-115.74719897832297,-28.646426837631694,-9.030494314489886,-23.41764909652392,-7.0897038076615,-28.85922391540182,-40.25670355359368,-3.075813006643539,12.76752886735467,6.072713155187458,5.7960990737987,-4.754634197249263,-18.40756233371849,-20.697910282343656,-18.053004892594352,-12.970366111132309,-15.8444498468686,-27.579856189119106,-26.558089751846882,-13.947621731201403,-5.222045934997903,1.380596805767203,4.56674445927794,5.881717881447891,21.859170329525014,50.41550984195637,72.11293945339091,82.11670438897677,85.35805702279205,89.27176955788264,101.53761423143175,110.32568733296812,93.87848411292491,53.524145739949304,7.711701515667201,-32.34448265124131,-61.576227454217936,-73.6743694810099,-69.12255524460429,-60.440637922976684,-55.71877704794362,-47.36048590798072,-33.02260322130569,-26.583596506021784,-33.02290145871507,-40.093461404631384,-39.25285976363735,-30.796046915131043,-18.37941542172594,-9.926217791708986,-8.464717098162598,-8.604832247474299,-10.559520776430034,-15.86981942581835,-15.359956678289192,-6.390377235874919,-0.9365172733282634,-2.896724057295362,-5.427916898360069,-5.2706775429494925,-0.31032124099490055,6.592116574319316,4.904422466546881,-1.38082988116728,2.5571057068819982,9.905549442932173,3.9438491810120286,-9.582807529678758,-15.20266924177042,-11.896375225390997,-6.722068889077033,0.06546438091685758,12.200162644999686,20.691693456164305,7.268326976667012,-25.280016527827485,-48.89679612571108,-45.045499694941014,-25.95388837849473,-16.210836235337776,-19.660383488992753,-20.852315777928013,-17.50167852050463,-15.440189639085972,-7.807798962861387,4.21586179797264,11.133433092293577,16.67308428015749,18.133055588243337,11.76014613519336,11.744789233462367,9.691195483087036,-13.43702998319732,-37.64446501645221,-48.79047103305241,-57.75477146648363,-64.67471555597399,-75.69367662830963,-88.90932299626725,-95.87086326121766,-122.28222299280756,-147.48507570964438,-87.00143387242211,145.89808577845795,621.0333207312345,1020.7885466995967,655.4686708252059,-311.7597962296814,-736.4557063733222,-367.53467108398354,-84.84648492133594,-130.3238232730655,-88.60017304245315,-1.9214283161837926,-29.020186206646287,-23.24396186453288,20.201040962921045,4.621485605956163,-2.502986808553456,19.784680362280763,12.840666410975455,-0.4487140995137695,3.9727434174378313,3.9126464969330703,1.0772083985449905,2.7263226091997157,0.7979873629383629,-4.764105344606426,-11.08368708397491,-16.22578526081966,-10.598896597406542,6.226543875683465,10.22743269979501,-6.4296635343986,-5.413832209965811,28.537357015109233,53.87569679639754,61.59435727538528,86.28772188302905,117.03371514436043,121.93597431596466,116.67200470767263,117.94119250270428,101.1376393149092,45.236570383786386,-31.127438458108212,-88.1026448432564,-109.59750192289215,-115.43948899762648,-118.71149144619542,-112.19595870407721,-97.44115062530307,-79.08450494146125,-55.197143642198036,-34.78958760698632,-25.93500857671748,-20.382448994690634,-13.290830177909939,-6.288987306551235,2.8336508061989285,10.477921424421424,9.886579410251088,4.3581357317532685,1.3626901255440256,3.7768386156002016,7.993171712245206,8.16406152972967,5.547712333892848,3.0646452521102283,0.18615486576734952,1.546797422153146,4.785769985699771,-4.787027164594624,-21.50941735443805,-24.64116772305584,-18.40857206604931,-15.074992762341502,-9.480236040045904,-3.6679916504273464,-7.295778047242624,-12.732229784836314,-9.937261087129311,-2.8159241968295508,3.048334286176159,3.84483195039956,-1.658661134600461,-5.69940326473146,-2.8752585703201645,1.9331766600032572,5.549504921819958,6.66861028455007,1.3678382230550636,-4.6376994626931,-0.6648092324941484,8.96029388786011,14.580339459528195,13.601056165183014,0.6483183804652697,-20.815375264538396,-27.9843789079847,-11.296028145081227,11.954115898477141,23.885252802903377,19.187366130308686,6.347351074311989,-0.9705262672867399,-1.86176401771653,-6.120733596655165,-24.532375576780183,-49.436280443340635,-54.62837839131156,-52.23954554203499,-63.42105017646911,-58.1853293481388,-64.95644780860788,-141.72790993373707,-189.09150859318572,-77.63499864002199,245.25741985195538,745.9728114045425,934.3244212442547,282.905381961344,-574.2868909150885,-607.9523578861215,-150.92640763813097,-44.73092013928623,-125.47137909491283,-43.055649642408824,3.5918488784531064,-31.108421793053218,8.154329433883536,46.09820921073475,25.43026418243825,21.718777150166197,25.921627481831248,13.525151250701565,10.783754725237884,8.094235137668305,-6.019359570880846,-15.870507385085405,-21.638860521575502,-27.372544367102165,-28.3971356807452,-28.089836027441937,-31.60178674813725,-34.06146092251121,-27.66686968077533,-14.789412314606057,-1.4891920777415795,12.758322271343397,24.338310530872242,31.969611831277827,47.54530526896543,70.88849725908895,88.54314156053873,98.79207692187683,101.5899942548912,93.57793286130689,76.70975729710008,47.97829177951148,11.442165826791268,-18.429746658920866,-49.716337246161714,-88.51950700657184,-104.72607281873235,-85.94211675115993,-61.32475059176397,-49.81701323237145,-47.84144326267438,-45.684710194009824,-32.52862209417496,-13.593262027331779,-3.013642199810487,-0.07839437046490971,-0.8730764839275764,-4.595779124307818,-3.45607813378229,3.8635986444209554,7.759197663239059,4.700002247226651,-1.269328971391456,-4.539305676833954,-1.3045032811667427,5.383830131028036,9.755871719116303,9.351308727590233,4.86821937312129,0.9667202302208429,5.162838030235875,19.360135847180867,26.148397536312828,2.806302644496732,-32.62442466062413,-37.70645713200342,-17.784345788061614,-7.60693095259337,-6.1764273473053475,-1.44898236818117,-1.3008420235219695,-5.666598798182527,-7.839456480193195,-10.395178334727552,-11.328742483194082,-9.34608052627086,-11.303386063444337,-12.493298134421629,-4.198235230533474,4.103719861397586,2.492071942101326,-1.9760200876396397,-2.732273250518354,-3.09123247461386,-3.605724117389551,-1.3029409661863536,0.23771681981447745,-4.032250709423513,-9.573259034891887,-4.710800142203075,13.804659240705407,28.022998712525578,22.362981993883274,12.532414565222805,11.270189079938245,5.497903508337823,-5.130021506306859,-15.776978160124019,-30.39342861416229,-34.589564620314505,-39.89580439601605,-74.20754391497712,-95.6501389866331,-93.43532994045962,-126.21484153708475,-144.75500394649487,-41.49198925612032,252.57425379912155,716.6733694666295,888.051356270273,268.1051660991222,-545.5285980195799,-577.693273466087,-143.01205639274826,-45.18786534701641,-128.5366548912994,-53.96782908742773,-14.39214847289233,-56.77539815284819,-24.70280350811367,11.140893653120639,-8.895567777573866,-6.587943805749074,8.030302808038163,-1.1068150262114855,-4.114305930742347,0.4473372650433731,-4.769283185588014,-9.051378560380336,-9.02246982273098,-10.984097346170595,-9.892712941844545,-4.868112271027859,-3.3017106668295155,-0.579288396742661,7.844221684006178,7.790264672011029,3.0831928488281584,16.86957366546472,29.896851194000647,16.612433377971307,12.632267774496327,40.414421665698235,63.667857615211204,70.92762648435159,82.13618877207318,88.31658323816119,73.88306673873964,44.7921987490389,8.679612275711506,-29.340834352453985,-62.382864577418054,-82.96934621577266,-84.95304535419378,-73.71641554716166,-59.625401703245124,-46.180990732780984,-36.55460678547058,-27.893001663892928,-12.606091973002595,1.294924246066497,5.4890366773117005,7.769230392991504,11.717653110401535,17.160235900468468,22.90632531944231,12.591481169083545,-15.194275180137058,-30.6120217386464,-24.641758021112913,-18.416351096297245,-17.47501826192173,-13.356159627285376,-8.792345294215998,-9.680892279327903,-12.211082113079275,-9.553735853545916,-3.659522187846127,-0.11782984745037162,1.7434116886837554,0.04662701343451303,-7.32786473212863,-9.636648028790654,-3.1621392436754707,-0.8652581703862658,-3.371907545656626,-2.2883318847903986,-2.923041375446526,-6.046578255921606,-1.0893101211494738,6.58148684390409,3.1103749551734508,-4.7451957087854595,-3.621364336281364,1.760444474176689,4.222513517997433,6.749845216295633,6.7562335191138,3.071185792847499,5.2259330904404635,6.604469893943399,-4.6568620387524335,-11.202496553228112,-4.263932500241211,-3.8689596695924386,-6.364712013182983,6.259449474319393,21.408798259419775,21.480349104125708,3.999953555135445,-25.13805031175036,-41.2749860814278,-27.386950257256437,-3.0043248704770775,8.787582679412312,5.6471738388427895,-1.6432074891175468,-1.5201641230392573,-0.10290078127737701,-10.008494817163843,-29.860369119769373,-48.95274901170086,-53.70372944450128,-52.87158882779852,-62.72401616234856,-62.72874082272084,-67.4538014932902,-117.93662906192304,-143.5549804097031,-46.71740441361446,241.052489109991,741.7254740102298,996.8163818589514,391.02831401710864,-548.0582985570724,-697.3050476133972,-240.43858804227375,-81.48128193041981,-160.43460782530127,-81.31110542718767,-15.489389288171765,-53.04718696837143,-25.51724738952131,17.58667667059968,-0.9321814162863369,-6.224260999693966,3.268485889331524,-4.34425895365321,2.952447730970256,15.669532918461663,1.5591239857149741,-17.93811967732638,-18.926499874680065,-10.906500367647034,-6.999684487529096,-8.848945207639101,-13.269015881565508,-17.037746366873247,-16.100873888907024,-7.632287982242396,8.195688976199822,26.523353718251116,37.234488511605555,40.52471411605714,47.70771136931404,58.06825360322088,67.93769940375861,81.17904884920893,87.24092942581763,78.17038589736654,69.39102215112865,58.85511392903618,25.475364223161414,-21.766038285490325,-57.79406790532427,-78.41576632034126,-86.86594216730839,-78.52453089312694,-55.730499629260045,-40.49775678743216,-45.52198419516482,-44.0156679075599,-18.173817401667545,6.503057297926716,18.498433338402233,21.69716193987052,-2.988687728285857,-38.45165298402435,-33.29291827903868,-5.3669325153471075,-1.6175604744245042,-4.987903454268549,2.9952107167488506,2.071345299282351,-0.8821907076983324,14.530865594311859,23.922134490997323,-0.2000537076993396,-32.37416206187298,-35.59860729734564,-19.910981721712876,-13.661241828166375,-13.448570186295786,-7.4842016605416575,-4.811092673223339,-9.860638187638154,-11.339297838536805,-3.8114454161868565,4.795598203953309,2.7617724842538225,-7.394687846218703,-8.707457545926061,-0.06326191457082153,4.341696703783448,3.5640233308293094,0.5173037318411708,-6.056049111681521,-5.945712885857786,2.9155365685872794,4.599473222083336,0.6585564300077182,2.0963287821508065,-0.13984578672749537,-7.4948539662144515,-5.014988454843751,4.365983889054856,9.560805234553115,11.58444523262752,9.255435834391541,3.442843240159528,2.8683876103757737,7.331790122984113,11.631160797420556,10.657452859724657,-2.0009747506847377,-18.182053293315636,-26.868278792408077,-31.075503573500182,-36.383279431377474,-55.237934019828785,-80.67940388111816,-82.5540743156267,-89.62001407235236,-130.5429412505193,-136.22109128536218,-25.42491462458534,309.2383333572883,818.364680326859,886.1846912334245,103.48568510431008,-667.9739750378792,-549.3875196689096,-111.78518095062914,-66.72242042544961,-109.25931877007122,-6.255818638817246,-5.71162594336883,-62.439364595202406,-10.443772315782311,29.482738821265244,-2.733905381387043,-10.605743606402369,7.591760181188457,-1.3809337733379472,-35.31175835788519,-52.336207473567484,-27.007193710101745,-2.810124998906904,-15.494647186433905,-24.049153751542995,-10.518586270021576,-9.375798582888784,-22.46340830675581,-23.716986170931797,-5.2850603864382375,10.821308245243088,-1.333754786748342,-7.579664591248285,31.44337674574068,59.297706588655394,44.85153601974717,60.27095498203867,100.79825118288444,92.48315491963004,77.93446527847405,99.37074642534017,81.60368773030449,27.50135101694481,11.706864640138397,-15.421177466622296,-85.21761143990426,-100.24328112266465,-70.39407850417479,-86.23724474439858,-88.2316065397666,-35.40949168694025,-30.105836897094946,-59.533860280445204,-22.476009205897928,18.960760836253993,-6.424809089670028,-17.381633647597393,13.224906479083533,12.769234026094686,-11.444509201804832,-6.480191685647437,14.043866002267126,19.757416569830255,11.752839337420413,1.4126620880928158,-3.908485107661562,-8.510393807400904,-13.772108655366436,-9.357780384895449,-3.388945667573129,-6.131095890441544,0.5301444494488949,11.67754023223207,-1.307942522634514,-14.141105783345566,6.103742227028733,26.17226574496319,21.887444015832383,21.3123707865792,27.21371541544183,16.24582202967619,-2.696050101515098,-13.513154766098113,-24.18054771451746,-38.090369712385346,-44.715989597700286,-41.59623028553947,-32.698512398804134,-18.017395934379845,-5.206553381628872,-5.554614617964239,-8.56407889846829,-1.152979236920622,2.2857273317059184,-3.6193994007742143,1.0497122876389984,11.017831016557306,5.253371002246885,-3.7999119700109945,-0.27242425353674893,7.850726943532272,19.055047220211165,31.482349240124886,30.72719911600152,20.555997178717718,14.736306028319444,6.936738589139402,-11.933555823161896,-30.38306762978994,-31.542957112010477,-30.558558782926738,-50.54396337988578,-64.66544074470953,-68.73185784920041,-111.40204289313003,-153.69530541625872,-112.04036104602517,71.99199612249828,495.70001416070096,885.5690310779775,551.6258051836542,-346.85261617880894,-685.829049690722,-277.15229308942634,-19.980346831272897,-99.40421038645405,-62.55508792745961,25.491025788700696,-16.110197893556077,-26.453281115583863,16.659181725518863,10.01522698713202,7.225341619016208,24.264086714901694,8.261864218733677,-5.194242099577092,7.82727867271301,12.149397228157136,8.256527109772314,6.490405583695551,-3.709320835886527,-11.628517497624289,-2.6577803707146295,8.513972981225665,4.73584090233501,-7.0585365377542635,-8.408894158905767,5.616246908703253,22.902116966984703,32.433916892753246,30.69879308401039,20.452060256736168,17.816499712827984,34.36533280686044,54.61284431213426,66.39816973552321,76.98227759956072,75.90480474652954,49.740223550428915,19.61845211253584,0.8413086673456522,-15.07945768335013,-26.611126999402693,-41.722201640231376,-71.19386744228491,-81.4723044512008,-52.356403125892015,-21.981910261976157,-12.944632781600284,-19.06911207529492,-38.02672119670686,-44.2650113328038,-21.444753809200265,-3.1617841066031502,-3.973207528117161,-4.866454427554331,-9.911218185700807,-20.120885570743198,-15.323163684590089,-0.4211391738775738,3.169739612855647,-6.358758876533123,-17.322889660676793,-18.04066416644688,-8.535672193931273,-2.466413162788836,-6.116409503547441,-11.24500131744713,-9.963639150510318,-5.090609237685191,-3.6387269074425284,-2.5476426578890994,1.3887220143862216,-1.4387363175514167,-10.852605318913476,-12.170833854548192,-3.993011146192803,3.7069560689618015,4.124990741286729,-4.768343917812313,-12.845298580698952,-9.689208982209365,-1.8705819886399881,2.8897715651013236,3.40612558843228,0.20624848506528348,1.4519450727487944,6.792215035544916,2.26561576029993,-8.348430831778856,-9.73915814623772,-1.6755749632449755,8.780357462653233,14.906036291745675,18.729401840030718,26.3849647238609,17.674315326568024,-19.289139873130026,-49.18159615524874,-52.575879430107946,-46.749593904848844,-43.4568946797056,-53.1214222000242,-66.99165500226466,-70.21057630206141,-88.18768925815147,-107.18845359929502,-63.27959892904743,106.8054431303479,495.41182374016205,876.6552354401033,608.3887338354788,-257.72187272142065,-695.240922307054,-385.69683338603977,-105.49562744796096,-130.78122567796055,-88.24201057688434,5.860047672795801,-14.229193307495812,-20.200485816378805,16.012275875385082,4.893028137093307,4.675730074696013,33.94413511683553,12.76560914052098,-32.77232795815474,-35.94917520580963,-22.287709945204313,-23.009116945308705,-20.760080632913876,-14.495724196389517,-20.50013303532052,-27.25068917342213,-20.752591793964772,-12.100920545974784,-6.089131129734257,2.8462230017311336,6.962255638130262,4.000000324758798,10.324767044591617,31.53285786283391,51.55763452024864,59.03844371838894,62.377497708304915,70.40518699558675,78.74239329952306,83.8921061318829,81.64183502016908,59.94286902488375,23.804427860284555,-8.326022144464606,-39.57070647037344,-73.57515017438762,-89.61585977262644,-80.695104522206,-63.402978649636324,-45.575144648215144,-29.986358501991116,-18.191612213419774,-1.925874712028591,8.761260693706006,-6.4534180671921995,-23.554269904433692,-11.788771165303455,1.0668919547846265,-9.858949188815483,-15.959363800930882,-4.944125021912011,0.20995182830097114,-1.0558293054656218,1.477861028430751,0.2870640950479224,-3.4380114427215185,-2.020578165859259,-0.45780194836167354,0.8763819279661993,2.697621229427278,-2.6619147792050377,-7.226280330813748,-0.6454458847395435,4.361697294864995,3.779987176110265,6.754345058389572,5.68510318551288,-0.5672166281162321,1.753314539489228,8.551115703584982,11.99547969595206,10.929683711887014,-7.641999833219089,-35.088242248966594,-34.5572011181425,-8.800736715871716,4.971733083717475,3.5814626880787213,6.06940278717238,7.108257906463463,-4.499649397636709,-19.504448810200188,-31.49746896296117,-44.00137521661702,-52.91267784741567,-61.48117195845248,-71.61869132039979,-70.84714676565724,-80.19658278247542,-114.72008660346089,-116.97555127324983,-9.757322551416394,316.68436258450674,800.4025500294996,849.4707824439145,91.03237507632234,-652.8900972478888,-544.4545185528307,-115.79473468789195,-61.42191750971033,-111.09013025931145,-18.81910502337957,1.4283890798028978,-30.908558596326316,15.8115370814267,41.54845066365318,18.951355214545167,30.16352316341353,43.47881183554198,21.461085889455152,0.24885458165390606,-8.097060193479946,-13.322910878761304,-14.36978195906936,-13.425084877781584,-12.379588278408324,-12.052059543887673,-16.397933511531644,-24.82772172523393,-28.726054513121635,-20.223148083595472,-5.981922493564171,3.3385860330358597,12.031760590521916,24.10392181876219,34.67471710486457,47.12990760464783,66.83924991620086,86.35752025033467,93.2683733559983,83.93293849294983,67.68972572123681,48.910348119674524,20.186125275552747,-9.923532608050913,-32.397022582822615,-69.26897164845366,-116.12073017520878,-121.62514369834075,-84.23997157307696,-58.539439700102164,-55.9251762932296,-49.128013113477365,-34.84884143397047,-20.63008224417777,-4.571966012169135,8.50656011953112,9.548405443493134,2.0271913422690098,-1.661105716157234,2.3236606190539835,7.021672840142402,8.348329820302297,5.783607363396302,-0.6199072084436246,-4.566167140301761,-2.640540293652416,1.1299362883455002,6.527767340079096,8.712850026188326,0.7597828901215316,-4.760272973287519,-0.8413121022788914,-4.563145469921958,-15.319216917793502,-16.18949823415739,-13.991724513926634,-15.707161268816659,-8.354729169178029,5.417246652671429,8.52196864139403,2.8519602960970145,0.6499172460023388,4.12195611458716,9.270097268236112,9.145062235457923,-2.3818867192662303,-15.632119495066348,-14.075228124436013,-2.8317899433854183,5.213153579867647,11.614077791709974,9.293713347178478,-11.628383093007187,-35.90632209442163,-49.55141544085947,-52.0409073840404,-48.35683910207587,-57.42659748909939,-72.87787510185623,-76.66382968526034,-96.10803296971386,-118.98275992577634,-74.27247881420627,107.94205034103695,510.3142033266368,878.2929936085058,560.5900766095826,-329.28986103714914,-702.1634335731478,-306.11226647881523,-24.03050673183077,-98.90722257101041,-73.04706036515252,25.55657658760189,1.3237727657652059,-5.265571066415447,32.47891112111075,17.410614224432088,10.809596203831155,38.2415166349424,40.67726583167982,24.179543792856343,0.4917360124625487,-24.689685109075267,-20.390900086550033,-0.34039733868571576,5.753953315788197,-1.1823917732986322,-25.911746856957713,-48.88359907907695,-33.03620532190774,-2.0555251895158975,9.704116876315037,17.858347077326183,26.493242495303235,22.52232162777808,23.223731145148648,42.10974209467276,59.91365252106904,62.50428563190419,59.7949375005947,61.76096666541296,61.18170862571763,47.364459738992736,21.365949300681507,-11.682768933578012,-45.41983144840644,-68.34704513633218,-74.05619847993941,-66.30997693883755,-56.57579811593563,-58.2453704137405,-66.17813767291808,-60.80649371065794,-41.263892915466954,-21.79084417332118,-8.58887365447077,-4.062750659828829,-7.064121037559808,-7.18871246009904,0.41199887661179346,8.075695723653645,9.010878258278947,4.347714363914454,-0.4089406667829003,0.017584375565363075,5.582266551425191,6.992587741165252,-4.617410431169876,-20.22443995643927,-24.13381655131592,-18.90605930623134,-13.71173562709086,-8.239932149589963,-5.4081226384196945,-9.211675076922726,-12.20417023709604,-8.027556428811545,-0.9632501974065466,1.77032285654135,-1.363945040908292,-2.910700122808352,-0.23448842296570938,-0.3137973328861312,0.6334695691662944,8.508115243714748,12.582712843755946,9.389882126036312,9.069795788617515,13.334407332384869,20.563301503764134,22.428950900639755,1.873937734512472,-27.711957063009564,-32.82537933719895,-18.275950458906657,-10.152111754116996,-8.784344554434814,-5.733933384551449,-7.31883970614177,-14.479284324996353,-10.787550424776619,5.714492802645359,13.127105958985984,8.946294750998138,6.923150117074089,-0.4337104739145863,-17.573746559017547,-31.95754517883161,-39.85347486227212,-44.17689565236651,-53.21678352646664,-63.76036319132828,-59.529692913655296,-68.8243897681239,-104.98962866799815,-103.41984573563539,-4.028734869756079,298.2122758526109,760.6242717937112,782.0938167251364,7.6597448574206055,-679.9115870544986,-490.8558649536426,-62.90361086767088,-50.09592311253272,-98.72692187242492,4.362099864955184,13.969093889646828,-22.924299953182665,21.285671016831596,34.99248501483506,3.0516251423335703,0.7073712856977608,0.820812942824305,-6.0445514186975,0.5620451801318858,-0.6053130679015197,-8.131994018860713,-7.160224880884586,-7.783229138158243,-7.836327927481458,-3.8220799364697946,-4.81772442112838,-6.029352697173138,-2.385366065212075,2.8799922490049035,13.132084094389288,26.058091798757864,34.671294845916954,41.389006327815096,47.060002458466926,51.64679283871555,62.11700647255385,77.44007177679593,85.91264870278548,82.29158802512441,71.13060902001679,54.83798269849512,30.263126038622406,1.5904676345318527,-24.92072949364009,-59.178853123674635,-100.04606365486276,-116.28867852288494,-99.83186870998954,-81.16503335465794,-71.56495265507958,-58.3745723183406,-41.589883591117726,-25.60642620992673,-9.945210134498325,-1.013851988541557,-1.8817932021786348,-3.3449714160258033,0.9390302155445944,8.103761840198441,13.63657106683415,14.002530093041397,9.74481095241283,8.248206207483985,9.734036599638955,0.019402107895579945,-21.220649545972748,-31.095333768375898,-24.836426649996394,-22.298164016100714,-23.898284260064614,-14.504477354603296,-1.0978589375882102,1.284135396722336,-3.0206252405756455,-4.636581512956999,-2.243618519749294,4.706973408433647,10.3496911047401,1.7721238559636436,-15.484316132520537,-19.844765155563714,-11.530116939810204,-6.712506283035072,-3.9810767204909414,0.18377908453138225,-3.7503469739210065,-11.030249539938882,-7.036607761024908,2.5900440331990913,5.6001548496173115,2.8194374918846226,-1.7889361817997882,-4.961391014633908,-3.1596326645495294,2.010054760397461,5.974450679286518,4.152340004177737,-3.766236622237024,-8.632832036206734,-4.833454488191369,1.4550996694777947,4.530179847137063,1.5695065746099517,-3.9660509426826867,2.3422309296711594,19.530469888678304,28.76434567933527,28.967926195476984,24.674403045325626,7.6844717338571815,-17.77199935395449,-40.695491137691754,-52.17768446427545,-45.98922864124686,-50.28838199105044,-73.68435670186825,-70.9742216944562,-64.57807196296807,-95.00136652765747,-93.51208888787009,0.37656080062791375,263.7968162249014,701.3514223564497,786.5612487030917,84.63427450166326,-638.3185756654527,-518.8159962408974,-82.68217053293694,-35.93598956152743,-94.12860136109958,-10.08911330465159,-4.473121946265593,-49.54005525963989,-13.182670910397936,8.333222390124753,-2.5752238829888476,18.374711924761147,26.594376103893637,9.208173207254323,9.133102855923307,14.96124639561125,15.216250572165626,17.158788304317273,6.383269085953131,-12.987449547524928,-17.663114531291523,-9.873299544613648,-0.4120690069333328,8.307628446094343,8.28967998076711,-1.6204881540271217,-6.825490829422537,-0.8633995684039544,10.280831992546956,23.844118748898747,33.986777967045434,33.31007718024097,31.845019807843663,41.72204216224457,55.39085842507375,62.099290924443096,54.98838852240401,26.339554504525914,-13.042420489051041,-39.69404682532127,-51.11788515959986,-57.41833414093698,-60.306097767414045,-61.411060272372296,-60.01092560659287,-48.755228471265234,-30.321334716260132,-14.006556067746295,-1.8701066282441516,1.4898535486830191,-7.00471094192449,-12.660000762134729,-4.208244252419583,4.426455092546959,-0.1979469603824775,-8.788675952860508,-9.353308070188767,-4.367817656040055,0.12687908172402018,1.5712792751906175,-2.4198134812275356,-8.747790160430512,-8.186873417127902,1.1594342444879588,9.778769264176912,10.381836432940375,8.680756939364496,12.224397060928915,17.149849854763684,22.373408101285804,28.921591365432356,14.23087275086128,-31.22017799324354,-60.995153374661854,-46.39453667292939,-25.49129519471962,-20.374443777946478,-11.87207122740353,-3.183743687085517,-4.856370564251989,-2.526747145883787,1.8917957847624116,-8.259440654701478,-19.455922529531602,-14.422927954637203,-6.582159715226066,-6.236885519955527,-4.17437514463534,-0.0354244239157957,-1.572541007864304,-6.028262665011477,-7.7191186890139525,-6.029524387696021,-1.6070034303076666,2.3736445606161203,2.2145346339354983,0.7323134615760898,4.5760719804765015,13.6002125493213,19.284843086105486,16.87378807088523,10.384368147720277,1.984044779580962,-14.343545903161841,-38.431883755796584,-51.11320151160618,-50.024467882339515,-64.54486031772606,-83.18344564024122,-75.99251644859154,-85.84640707997337,-121.63980086566771,-101.90418972241446,35.80125726108412,386.2088569509309,844.0055508455396,778.1148743892476,-44.96978579796682,-675.6699395197143,-454.3790346884366,-70.69091159947796,-75.13639852439422,-101.70173943665698,7.137729582731765,19.065501391459463,-15.84815030491053,10.28729029780664,8.792119979577532,-17.640246103331904,-5.512877951277373,4.3298962044660065,-7.594536563649733,-6.761319437621491,2.0330714174272657,4.243624419834591,8.105107647651156,10.165834907401006,1.1563176017474088,-8.584499488940331,-5.416895310011753,5.33978142434865,5.506035762126681,-12.985523319212504,-29.589901140010255,-19.317285695725747,2.94567095936265,8.48705906499991,6.990665716300235,19.446767793769894,39.88613751852945,54.709666235062215,60.527079264541634,62.8519047344474,64.98902010959704,52.140217613926175,16.43083688522832,-18.55270819877601,-37.824766455820686,-54.95964525334235,-73.1079079802782,-78.35116174430678,-67.60148792762256,-51.21527262676982,-39.49268401146074,-32.96210684332139,-23.716940935571728,-10.27509401035357,-0.2384565079405121,3.555583559989703,5.635975852348835,8.472552555375987,9.053116739819279,5.824638024272172,4.524963873613446,9.17872250437789,12.421423780349205,6.217523245082066,-5.0198478109096385,-10.80490331949759,-7.817662540496416,-2.750579059510967,-3.3193644006381007,-8.515665640684102,-12.192492834015527,-12.097451617535242,-7.991490313323648,-0.6519160705979274,1.3921383576259263,-7.890088079177498,-15.626525379799922,-9.257607377952478,0.505855736952844,2.1294275808645566,1.1387694461485447,0.007602123643057013,-3.9182243193390596,-3.900828191945121,3.7810469729258687,11.254559507216953,13.483797097378783,13.564701630607141,13.85797965290983,7.7519802527040405,-8.006495181786802,-16.06793510257121,-8.394916586413487,-5.88248259093538,-9.226896732701086,3.8568013882922547,23.638120457670773,28.43849920553869,21.747092474223408,5.248167598433794,-21.386826427276702,-38.25056998285193,-35.69546288508535,-36.66534886368644,-53.23600507184342,-62.23859072374343,-60.86208025564812,-70.26546511798861,-70.57777026147406,-61.78857596923451,-95.66978423708855,-136.1858278077769,-82.39481462759264,156.5798679153889,634.4703249604024,965.0030871967379,492.40649449152136,-444.15804924486594,-716.3949146954293,-290.58924838775727,-57.50702032707436,-115.0273099196115,-62.95666748434746,1.11595330633304,-37.638583147749266,-23.837356372370536,21.215511493695814,12.673471823943101,7.342952286596656,7.585916825004435,-13.249907705869653,-13.20524762625062,5.545894170514483,5.983902524787879,-4.495003905277818,-12.49451341321801,-15.407871240620707,-9.275680308884722,-2.449980426471384,-3.91059141720704,-11.012917670689863,-16.28755544087155,-10.5304728562174,6.767245053657353,24.87415943116625,35.316662492128486,38.88665200885639,44.86198818788249,57.27126619225572,68.98900042943612,81.58031023799124,95.57856598933921,91.96851323761038,68.42706101061113,43.48248775949601,10.510919711788393,-38.10725756760077,-75.86299728077023,-86.98453626579426,-85.15211539283732,-79.77966827237003,-71.95448421854731,-61.0981220989311,-46.01133634956469,-33.161535786178156,-25.63550926678559,-15.649046167250628,-0.6486019772618459,13.502972834594816,18.750764994823427,12.936359846634062,8.936443246973887,16.381966718960488,27.66177083651031,31.45900382752817,14.386085332127728,-21.989663390887316,-41.615553436692394,-27.94315520552732,-13.776088750028396,-14.814327060475009,-14.270004009468517,-12.030027929629792,-13.385605834941686,-8.877924932375196,-0.44284536984925893,1.305731429158584,-0.41582516106390166,-0.5239864541767272,-1.098151203405795,0.7647385029322429,7.341562982415562,7.743874707306663,-4.531066066209238,-15.477028614973758,-13.523057316719925,-6.203144048230872,-1.7393832078017635,-0.5346625038183648,-3.050112824702339,-7.166180688992705,-7.660389876713519,-2.8174079019260394,3.3715439853281333,4.1874472537530885,-0.44785648787330334,-5.311516095863304,-10.209477429335227,-10.772231604163593,-1.428310653241291,4.771526214434639,1.3179950501228945,5.0256402512575,15.526684994780673,18.943693509433647,20.973583878866886,22.483953530371068,12.737594525037997,-6.246815534326646,-23.676193217610553,-24.334106834354394,-21.520901821561807,-53.49265990102539,-86.3956972383168,-82.20698571464115,-107.74815385110695,-156.12576846047304,-118.10209281808591,59.04611764907028,455.6418160578662,887.4142081692983,664.3278580090245,-249.66739694562762,-738.1845198082146,-374.6510526429859,-40.952067651190454,-105.19592277751906,-101.05542977490241,5.738245597620079,-12.371953896482218,-30.636443237131807,14.310594520837583,10.774160543297652,-2.399125471236882,21.243611884941796,20.834627958701397,2.7373086554997936,6.4599235787791915,9.134024250670247,4.528091773966467,13.953756481141454,14.751506333201077,-16.951974084250413,-43.71999967004901,-33.38460188513105,-13.900251372974889,-10.60736513173299,-14.562865220578107,-17.812611500029607,-12.914843894104623,6.506496808749985,27.37199094458222,39.37221854040611,48.72190133651175,58.92959708212165,68.42198460574025,74.00434136801425,72.83040544389826,65.54148266136903,45.4309993237143,8.649997942648415,-27.801839307113013,-51.45040623177877,-66.30701648691408,-71.29477829094589,-66.15457032481163,-57.316349086679296,-45.2349039426481,-31.888902737216064,-21.49210630976075,-11.766792874739577,-4.30307804757261,1.0438825177382292,11.55786618237244,20.80203346016227,21.856910499911148,24.894916500864866,24.228523539344973,3.6388256587884715,-20.33228790245595,-24.71431759794934,-19.189071172404944,-18.55310142446842,-19.309984279315106,-15.599714767905558,-10.057791333778516,-7.659931587746096,-7.128832522237923,-5.405897391517813,-4.975761980616253,-4.590421272163195,-0.5046261996306001,1.032212224940043,-2.8563689239370937,-4.5346136443480045,-4.339432124996622,-5.285496858352431,-1.9923785503303058,2.4342141817896574,-0.6122613305917062,-4.831787769192631,-2.2785089470077535,1.8822849853572428,4.639542042590621,9.02371489975267,12.070143823064654,12.35091603757003,16.876582889875696,25.719454192095252,32.8821620200289,37.17544080648575,24.433471424187044,-19.467635242033417,-59.11716823137381,-51.89904566052452,-25.8126397492303,-22.75365042879216,-26.882102943438795,-20.739237418539226,-17.450717067373024,-15.096605812678906,-5.149507587362161,3.174821121027466,7.393977330138067,11.613852917497876,13.684730643999089,16.24062508962971,16.967543646527332,5.734570313426344,-16.48528114410393,-39.88777089240407,-48.079335681096744,-40.556821276215615,-46.85233005727982,-59.267075242924534,-57.09896372206448,-84.81865111621991,-128.23079701920537,-89.10737814187296,88.12621601338955,478.20183777437967,902.9756009476649,692.6569373101986,-225.56649002369346,-759.8963344934268,-414.57955392754843,-53.407829899161506,-115.03029699031794,-128.34937257729928,-12.196851604837164,-17.632556986300926,-37.50431255966296,10.481238899196182,7.63888851864677,-12.407367373536184,11.653572661283544,18.411409168124763,5.518799460629438,6.413826409127244,-2.1918916916628834,-15.491093560194036,-9.14812556342333,-1.277192744208028,-4.809083636262658,-9.852314076019638,-13.955466455010566,-13.560398298312954,-4.908158524815134,5.394083193673328,13.671246343782935,19.59081405564961,22.985233614786736,32.22957982984684,51.197346288469575,67.82231332541772,70.2876754343659,60.03357115508183,51.54593900090638,56.338524960863694,62.31761651648483,50.9507189979602,22.426225818854128,-14.102310663135459,-46.07352393011467,-60.01545432076728,-57.41139875480642,-45.80229752477903,-34.41710130345496,-43.79272041688873,-67.22588733088118,-64.0360038245957,-33.64007517591678,-13.794645694958184,-10.56413919454123,-10.467488336294178,-11.30656510873371,-6.660219277755253,4.815212664404887,11.820691981290494,11.552089833071395,6.606521376662384,0.741947660358484,3.4212010954090397,12.867348040739055,19.677321723262864,23.111582156131114,18.662076371883302,4.659709541336663,-6.03781466548466,-13.352616734086583,-26.243815485807705,-34.44875407621094,-31.746076855862306,-28.545564064382344,-23.217096373248953,-10.602367845386684,-1.9245215545540262,-3.8565777563765806,-8.463124254117059,-9.844590545237835,-7.447885628835807,-1.0100162294646404,5.792179500391675,5.3112012435034135,-2.2485198207093067,-5.874880068408004,-1.1960809490642443,4.046549223869967,5.354619840643511,3.445772714748105,-1.202715713933972,-3.804249166702687,0.04580658828779138,6.896240374357614,11.134366615041671,9.004893114273173,2.697398741193531,2.415168979966241,9.028736977182122,8.133262229985297,-4.937883297604837,-17.196710279906306,-19.745914838556132,-15.974061218449375,-9.722413031788705,-2.4054722932007833,-0.8078776992947532,-7.694747676634466,-7.416307133509957,9.674096259984754,26.864393250246888,34.23038216511301,37.34427774857733,28.651033323391598,5.296970385794667,-15.708656644694981,-22.235644567428785,-15.390732098372524,-24.10073220553973,-70.51384725165738,-100.4505130934885,-90.23753555098969,-109.53995287624926,-142.4932401179247,-108.16846095678606,54.19165397238643,462.775706850003,865.7867668383216,548.6937877212188,-354.90721046310404,-695.7589958991562,-273.6518373670399,-16.45896087870925,-107.07479972087577,-70.68453156554459,10.480444686573136,-49.7696437900786,-58.11893106641114,1.5233112174622079,-6.249419361382785,-14.275980388116226,13.167357981212879,7.018057539763911,-7.43837709340179,-0.5362038760022152,-3.6258670328862905,-8.184355070175345,-2.2731691866353296,-5.377835775908219,-10.428621648400577,-7.636070611049005,-8.837439125566974,-8.98205942040931,-1.8436568724301692,1.72770091104832,4.754730236605724,15.48967990733189,27.818351298905142,39.73943383637409,51.72130683455851,59.20883900597305,66.37826951029201,75.57247544794592,76.86078518275941,67.29507255139634,52.03805806960854,31.01484695473468,2.6959654625490854,-29.23256874170169,-54.38166291989446,-65.86336530475117,-70.17397399853189,-69.5990211949249,-58.257695603699716,-43.781551110952414,-34.531294253014806,-24.81440518282329,-15.40965394959235,-9.080397898762328,0.47560149906186666,8.99057660892851,9.927911620212244,10.966551931244153,14.307526816868897,15.96330149472095,17.711267620557134,19.52380451843841,22.18315351777267,18.169151456386942,-8.788711990785135,-36.77047565986643,-29.331617581719563,-10.353082903623818,-11.12961433357488,-8.786854154825146,2.7830074223785903,-2.0504339454453024,-10.498224795007994,-0.03596581280486966,7.574411165277954,-7.4427134566815685,-24.770195788814743,-23.508132974003267,-12.940790146997713,-8.529159898592477,-8.621154034819675,-8.882738166371627,-10.263956975038159,-7.818423125142932,-0.5488955122596044,2.182111758197675,-0.9831498482198242,-4.038964993118052,-4.90478503720433,-1.2418485590057458,5.02673508740002,5.764554223318186,1.1038364714365052,-2.2996534819003007,-1.7489904254879725,3.8656917797443375,12.29822839717947,17.11391820139212,17.146037432715854,16.56033672397046,17.073926682269594,15.997133708505217,9.56796041278933,0.5326189011265732,-3.937410163937032,-5.5755194991111265,-9.487692416011884,-10.964028835154243,-9.832890208640496,-16.848587633518548,-28.449566699976778,-30.04292883288081,-23.165182232705554,-11.886564553635454,6.700746838907914,17.93512224844081,8.421247751280202,-5.120830390258089,-9.305781700259054,-13.670223854377014,-27.067453501121513,-45.04118366542959,-55.67385848111288,-65.04033887300263,-81.05523086111975,-78.45202651411,-71.92772324423242,-109.16409195379963,-138.71641753736841,-72.93141047980438,171.35230364130078,641.6021144320629,910.5136159002816,368.12872896677754,-509.37306753549024,-637.9590818370268,-178.01095236789553,-14.375595234218551,-95.46223428885844,-23.665946762125976,27.849912140931252,-34.991315393888584,-24.487956480848112,24.263037876684358,21.418589623309366,16.587467324531524,-3.300746738789165,-42.83897460411066,-33.47357520043252,-0.7468438148173764,-4.448116870793337,-18.548107396230648,-19.393092721467077,-18.786252135649953,-15.165772275392737,-6.068343017340152,3.5558724969547892,5.945518897012751,-4.986663966429318,-10.908644523002135,5.592263100066965,27.41590150425612,38.890490175496836,44.10230670902195,47.56265563845,56.76433575083712,69.35883329662583,68.49461071555237,60.28027902536163,61.00052331730461,55.8269598267317,29.394668224773373,-2.6855300026393567,-24.79044222527739,-42.33601863895091,-62.394382082461036,-76.46268514212842,-73.09443652161116,-57.453334565559366,-41.739117528840275,-30.505367835468366,-24.0202645034232,-18.225162635257902,-9.344548732770757,-0.3651193481597801,8.284448578445872,12.87145013230322,4.114673668960359,-5.619086262257779,1.3746264574077953,11.39964916137114,10.368842042753737,5.699591005106241,-1.1772052700895577,-8.605697882061701,-6.113905117758126,3.2729474543855064,9.541375100854621,7.892139116242663,-3.1761633696338043,-9.820802686814421,-0.9223282094494585,8.427886831318606,11.724979855290806,18.109056318038917,14.806818882139808,-7.400801306254545,-20.124183363693614,-5.4351230697724855,8.156165561771994,-6.613419281448568,-32.793495945759425,-40.20474696530718,-26.59410420979644,-6.453669233506671,7.0328090870624145,2.705860137381059,-12.045912461606566,-13.391611610461016,1.3480848552561913,12.272280230642751,10.666983717626422,2.228411663401541,-9.967155578973323,-21.861239371362657,-20.137795202031196,-4.960668223775468,-2.7709812493405117,-16.516593421835573,-14.049960585901388,-3.0828607110405244,-15.53924392449185,-22.19743322344671,3.194013164273855,14.958730677762592,-2.0160651432515806,-6.369019090104931,-0.4119535404157162,-11.47430260255365,-34.55554197419603,-57.32975236813319,-68.72187597551016,-71.56675241210203,-80.93261243673852,-82.61681225163149,-84.6476076111373,-120.80039596444665,-142.78596596123228,-55.76265711181641,247.93149790547443,754.4722071169991,935.076983551848,272.68378641519985,-584.8377147790426,-631.6712808819532,-180.60268045218226,-50.78426552563198,-114.31715665801767,-32.267909406263584,15.686437353387845,-25.633460814260193,0.23322233078581966,33.44402354394515,8.952829411717147,3.7779132366395256,16.470965923653715,9.285535885016902,8.65709480228638,14.3214598912975,8.481159612128703,8.926930479259319,11.649797751914154,-7.599607699948921,-30.82236751936079,-32.16477418091907,-24.839183776658363,-21.412272357325044,-14.17904412080139,-2.7237946141619798,9.800342088547211,24.600077276167106,39.36508397248216,53.96403791548563,68.65396497773614,83.86281284682241,102.31687101703965,108.17110384909361,87.34323460482395,64.34085816917303,54.66836150295867,36.04314393051672,-1.053949001737438,-46.56450076026766,-88.55060729627291,-108.40124157608611,-107.09489978066105,-102.09209691672001,-88.92838166271717,-65.70828801685893,-48.20027906989588,-34.651642766365164,-18.368107863057247,-7.470341932831577,-2.6611762266304595,1.6676404143094068,5.987257064353701,9.921447564874217,10.379922462740213,8.440141215201265,8.589698042573264,6.294895257063153,2.6470570220066456,4.3169243355124465,3.643947758613413,-1.6410491216093686,-2.6822811525215116,-4.3574418532486305,-8.344988984338531,-5.359872004480528,-2.218345626347542,-5.3029156714573045,-5.15598906096613,-3.0678367301075085,-4.001423633594188,-0.6295842151025122,4.429020123365416,0.5934730725343362,-8.291909353464483,-12.854951302693758,-10.33941959646322,-2.493594114891995,5.3807650527699264,9.062911418086596,9.229474734400174,10.149919716994209,17.493895659316905,28.92851069107185,29.23586204801656,7.6574760244757165,-20.82573247747988,-27.43845570586211,-11.663932077068834,-3.6634314778282686,-12.085283279783912,-18.077909250914356,-20.971405188279483,-28.380965321642904,-27.35667513940592,-15.130951250285626,-7.583114407973838,-2.200692330205623,9.74190153284888,19.00184816120494,24.296826408027794,33.04813569530772,33.783454566834614,9.584645365371351,-37.475455372931485,-77.84507946987276,-82.71985653619214,-80.64401316624101,-100.25742122712867,-102.15345792296117,-95.97710306874662,-132.72137085538583,-148.74918383183842,-61.63736444179568,197.7691148129444,670.1886093084264,900.6136580721451,298.78604827999095,-566.7537515572293,-620.9274147699637,-141.89314019477348,-20.794777782115816,-120.0003068054977,-37.521475129615744,22.44536441681761,-25.046948118406398,-4.015563347825056,25.330301523512585,-2.745849029513929,2.6546146914782796,25.918003704133326,16.206689089084797,9.158602601985386,6.80182089283098,-5.945800919922107,-5.20820770135582,6.526247649128396,7.743506809162712,-2.244978374984601,-19.24425610770946,-29.744066902334822,-20.090797553539414,-2.7084965572750175,8.093251920999279,14.149712921106488,19.264509402561778,28.89897507419625,45.822323474748615,65.14829920281329,81.24621693241308,81.6359292387424,62.57420816552123,51.23370455617798,59.83432479916247,57.66644969249599,28.48331649924407,-10.189965229195352,-45.00474987472724,-68.71986309232453,-74.35214878193375,-67.44134897103574,-58.199047234283455,-51.01739798154132,-44.858517135651965,-33.54255977373185,-15.907579788127457,0.4387933894956806,9.858162834914664,11.938169039405583,9.810363174348584,5.4317899579934545,-0.4367277365931237,0.7887863063747202,8.771192828796677,6.147941811042388,-3.2144833907324646,0.5510028407739935,13.145193449151265,23.24692513131253,21.773329137331302,-4.754353698692178,-37.298243330037245,-46.830882223311335,-44.46924744771197,-32.429142227308404,-1.2923086453639794,12.184440745919892,-7.624812178982598,-14.762820321761192,-0.25401609138777914,4.7088127913542515,2.0385669112124374,0.10539988367235331,-6.8910871655730315,-9.415384909398174,-1.1536736735245312,6.229726754850175,6.376595064065446,1.101798187298594,-3.472472341424229,0.9249754730443167,9.380262552884897,8.491197792035779,-3.3874668303834863,-15.121402436536718,-14.954515040002104,-3.4345375888944742,7.819532836772176,12.946523009461227,13.035370938317874,7.938311656484206,2.1394312287080064,4.692755459052748,17.378973796621246,28.004520804399785,17.409379465104305,-14.166375749926566,-38.1352348434601,-34.25466293377366,-15.055310310239097,-3.695339701753186,-6.56304169465319,-11.751865559794558,-10.576589969521406,-10.162941588037992,-20.78803910598398,-39.63272354245106,-49.177712902791285,-50.41915430330574,-66.80066721547924,-77.66246390879964,-61.256508701557,-73.77092786463339,-117.27358831396168,-105.77147112838331,23.869603968836316,380.12364036111234,824.9059881784467,686.805412217848,-171.7339794683881,-710.9406812890429,-395.2894030046035,-24.84267825072361,-57.69555640776517,-75.76558983817816,15.042964442969279,-0.5085524164414963,-21.78701509724978,30.029775841254104,40.657844932536086,9.26564926749065,-10.420306312985575,-23.707986937330045,-20.536783968866406,-7.856963859242768,-9.613161502330684,-11.386988813166587,-8.549807221770816,-13.582006499317691,-14.513031575733585,-6.000302456563816,-1.9205102490936081,-3.5427466750519017,-3.100021747588258,3.190929595875687,14.756882239401737,22.07657829581667,18.970721682310124,18.164004503789563,30.612498444111715,46.492758200670174,57.46886720390472,68.14647986909881,77.39753693346026,80.44326632422032,76.6078484451176,59.58534781578176,27.494650349802797,-7.275475533087695,-33.647291772225394,-47.72780580774733,-57.45468791209342,-76.41848384412971,-88.5146645274781,-71.09093300726556,-47.38679433943081,-39.210911000537116,-28.797918748467332,-14.6133331103143,-9.723752039724037,-2.913956521750338,7.370333599494723,8.624146718194762,8.94172485913031,13.054615956177518,12.800229597302687,12.593334511449207,12.445220876536101,3.279016992261818,-8.493534036194802,-13.875502710753034,-14.037248704034639,-11.83537395741858,-12.945275149493327,-15.022086925768072,-8.885344938570306,-2.6435982462359107,-4.674236463813521,-5.579118850738206,-3.909138761405062,-4.226719600356862,-1.574661008721674,3.0297449039760584,5.428206347463807,6.688671829183096,4.164706432623661,2.7910018723777057,11.376599638815565,20.868351884846554,20.934957657289726,8.610382576159576,-17.336978152987143,-34.915020557453445,-25.19213436557888,-13.10353913165849,-14.472574339817402,-10.493328158699224,-3.724422521923538,-4.7599587692382785,1.3770235758097442,9.545739346766423,-3.3333762997865026,-21.309586929021044,-18.98841353338343,-9.394414085843472,-6.279753088957921,-0.20385225051864975,7.935846039706969,11.690090126492958,20.000766238327174,28.619645147482544,23.978662420584406,21.419398626083954,29.240872737824436,21.727842405503438,-4.794696468841169,-27.41923785388132,-45.70276052094046,-75.87025948993042,-113.11372123603492,-121.59272741124423,-101.2605615817977,-113.81529014390432,-149.75984924726095,-124.42404514156911,26.955157735711907,411.2189549962947,866.6037803757475,715.3907230553784,-157.5672761406803,-706.7403252768456,-403.9921799646801,-44.98557265496412,-83.44002205790456,-97.93774410104841,5.361918560257351,-4.527220742627577,-33.94638674569832,5.803337771166755,8.054503385333541,-8.869425068383379,15.90680238314478,27.063001939381547,2.867602594398635,-12.155513920228138,-6.6924229528326125,-0.3139708683408111,-2.3684439691231707,-6.00813107477976,-9.040740511720564,-16.56444384460142,-18.539279903622287,-7.081206762251655,4.019541236213696,6.305002288190526,6.892360675509785,15.096397125468947,34.956196067596984,58.28513528512367,76.0704109865728,83.56369963927395,70.9766369219317,51.89402390115014,59.990684121781854,80.3040595927338,66.57142316615807,22.995559034310215,-16.555597413524996,-44.887759655828305,-65.78898249646662,-76.51543942729162,-78.65359190925375,-76.77896188823544,-72.46698213865493,-62.791423468559486,-42.93184715070216,-18.41004575984036,-4.9357239132375845,-5.548197623466226,-4.635055960659148,5.560050775821209,17.49903494120661,27.687851892058955,27.67770513019223,3.156269152902203,-24.918441241105047,-22.419922002027548,-5.545147729859297,-2.535806034029866,-4.010381517377638,-4.504840394959068,-10.533909405812924,-11.077006268157811,-2.8964060192370784,3.383314187212656,8.179852157048316,7.294588661987529,-5.960853297332918,-16.137951959847257,-10.519269352184548,-0.20673287243099203,1.2037352078992978,-7.651149916814159,-15.483797526786569,-11.965592074277726,-2.697474417935966,4.489626021965054,6.190893455158345,-1.9640122753038485,-10.231049867455017,-6.073396386453837,0.7555026474828277,3.043429184528457,5.433554551803142,0.6048412853849725,-10.513769208744986,-9.536945817105922,0.887892163594458,3.6847727217111315,-0.1516007062403597,-4.194858976730784,-6.750753664515311,0.33162235243528837,19.963793019096787,36.40766345878069,36.241822360888634,27.96912152732209,23.301707588243485,14.887259145553038,-11.412323493080423,-46.52075119417051,-60.18500906844455,-56.41712859846601,-70.94414022040425,-85.57037155391029,-76.3718604431007,-94.57359810293413,-136.09861618491513,-109.07605938230331,72.152362872651,498.95790929452005,921.7205745694057,643.8314649258336,-293.064385890497,-763.5531583402316,-394.0072407852181,-58.85302487032466,-95.37151192467002,-66.09987211253232,28.365107230149405,-18.079243935293455,-45.250794967941246,14.474564029441586,29.71002087831758,8.89815986851193,-5.358131174370648,-27.431722206532957,-28.625137255053794,-8.040568652150531,-3.271265051277531,-4.623945947543842,-2.2220867358753793,-9.282740430125408,-13.920014970245882,-3.5049459559719747,6.2413405199182765,-3.5252548231110037,-28.091504634498598,-39.35752009095988,-23.5857856258355,0.8398042476887007,20.040189018406046,36.202096184432044,48.18181265843141,56.88341804954803,67.73880241845863,80.06291127741476,90.0747333336446,90.98065735385072,71.9407167702649,33.08110584441554,-9.053693683413188,-39.92564609620919,-60.70204520225427,-75.96196352295219,-81.14889987984678,-74.47296116889167,-61.191578921965885,-43.21948207287351,-26.60933623130348,-18.57529175298675,-10.695536008942565,-0.3991750677336334,-1.5407152203869359,-9.234222983728085,-7.263035981666155,-2.1385043862337643,-2.6758802429526938,-2.5221043792049116,0.4402388011903646,2.731534159522461,2.3488223496875316,-1.4543199717796558,-2.8662435280136904,1.59297512812201,5.401266736875744,6.075671493015612,6.978709501765492,9.340181488210412,13.449041623110897,17.824100575895333,23.35321858027253,29.266557327857758,19.854681508088998,-10.346499474965768,-36.82897347693154,-43.93978469652096,-39.723908355643914,-30.35030773761624,-21.68651050503496,-18.491541158002043,-13.912536104437883,-6.331756126026907,-1.0189734079643156,2.432689278754477,0.4206165346886408,-6.985823193352411,-7.764504385967124,-3.068608805780891,-2.974622240281734,-3.6188221160958687,-2.3185221858131655,-2.6820344800511853,-1.680241098021983,0.4886986335498964,0.034833101869854666,-0.7062218705455923,-1.5966412198182587,-2.690172364971072,-0.14486824738756665,1.632264375771245,-1.3784422398937641,1.0467124712351317,14.341030704434091,27.330888811255598,32.11038816249538,30.865485564275904,21.49815988155848,4.200528943481463,-11.015852700792792,-23.661798129096802,-35.24824637167148,-40.905265936156795,-55.6759388597027,-78.73799448770808,-83.04005315127077,-97.20470451754237,-139.9561891367264,-138.77188599375773,-14.6118846613237,334.3019011413576,806.8683311144564,767.8900400867124,-55.4826085240835,-707.8555490596888,-468.9773940876387,-49.9861710781269,-62.74432533254782,-110.01281145420937,0.8298101851356918,9.556251377185951,-32.21885133828268,5.371281994641145,20.28701059164845,4.515036746818229,23.48896287401535,34.293934921950154,20.90315843099872,17.34555446645935,20.068801590788052,22.316255221767932,20.142250920695524,1.526701620287934,-25.650103610875156,-48.23704972056231,-57.4574182926914,-43.774324426778435,-20.23628534124015,-8.970850441084961,-7.1757232477091835,-0.4380344401363878,16.71906791334635,40.90476705761935,65.57369620042799,82.1103141139816,76.12934139068527,51.977723371879534,45.60331361826138,66.00111237297779,72.94457254627416,44.9550796579599,2.4636394633741983,-33.860659993910645,-56.8054391710249,-66.67794877271044,-69.84513953500382,-71.12506565383906,-69.96294904535105,-61.551027603467396,-43.715379788362554,-23.918608686400546,-9.662464028847843,-3.2137664072146457,-4.728203704958286,-5.475756372574121,3.038090223714433,14.160728840570542,19.181468756021037,16.035188227413627,7.532537726084572,3.2755096008521356,2.8740830366279138,-3.686137724044249,-9.980360749642816,-9.737765429158799,-12.895150974708521,-16.01068324010658,-8.81822132596695,-0.637859422071144,0.24252086825799957,-3.146415912264823,-9.274410670300288,-11.917176493420651,-5.415442044592007,2.8078799409114983,4.5092798767395434,-0.20419415271818053,-5.35578478861105,-3.8440177465123186,2.2553121149853643,6.091659260953846,7.352313405928442,6.598827744026767,3.8125648543885853,4.594832721143512,13.080348784653118,19.720644360729906,7.190569640867523,-18.901327734882994,-27.865633958685702,-14.724143788080083,-3.6731000911918033,1.3617720788529972,4.523467226823634,-2.6029938538854456,-8.932412037806113,0.47115041389321766,14.262751112135648,24.56224699304584,23.797411349397557,-3.1228999496075627,-30.2622749134599,-20.81107217796289,4.426036697729559,14.912038536223463,9.248226075768642,-13.491491623973308,-31.45710800034352,-14.376399331772106,9.797585046092998,9.931858540653021,9.537108999573011,12.881933079317767,-2.030648232100141,-22.844254265097376,-37.875266225418144,-53.152663488042776,-65.07763763660681,-80.953062171704,-93.26845384467184,-83.23514511643047,-90.90033427836185,-123.97205107294403,-106.78721725610379,26.043777761856603,378.47731579998117,826.155194738605,714.7636104189099,-137.700299383495,-719.5928714916495,-431.1411261215673,-45.843264448981856,-73.82631968877475,-96.01976929750303,9.706379871080117,0.5484581890437568,-33.70809600611182,8.80801251393127,17.107417505288566,2.1262846848654373,19.205559267394896,17.056791250442352,-2.817703752523639,-1.5446570400046769,1.6830222778857724,-0.9566025186025203,1.4913767015821644,-1.195988397351233,-7.610200486476472,-7.358791859203574,-4.257621953216562,2.4109164098431837,11.222411007508162,6.3908774593267115,-8.685560295164283,-5.678628801578931,20.61609077815568,40.46560657930053,38.43691153836926,35.77737356805528,48.59000329795222,65.73034848599316,78.84993097018196,87.5677816185989,83.2777557999329,63.092925226991234,32.469325363996944,-3.4818796865123014,-29.01705086145978,-40.3767083395515,-60.40324442417101,-84.35157588310081,-81.24518894281044,-55.30445480197778,-29.43177321548473,-17.51497922706915,-33.7858974982109,-58.64164307517291,-50.42243849664404,-21.266858268396383,-7.981881168181946,-6.169551579153243,-3.057362190876937,-1.4710866521107668,1.2141648887357448,4.927121492518172,6.473787155526935,10.678597685052008,12.867677591538282,1.8316945917940632,-13.47243280113915,-16.515972856983353,-11.090891983315322,-9.667468374356115,-10.223230027191779,-7.521217783668439,-7.760626949560821,-10.543357636477378,-6.348050929384371,-1.004541629180201,-3.5462916510632496,-4.871241885481034,-0.5128066900625008,0.1479182926842686,-3.3500518665099213,-4.2643019303293,-2.5632589781522563,-1.6192181718408665,-1.646800989506372,1.5181369837268037,6.231583209705121,3.2265972167271224,-1.8286086607178829,4.747241116975937,14.062693844740785,15.13363805256935,17.574852552301724,20.046577282893125,8.34111716807786,-7.862522860808512,-11.454942004617006,-11.664200194888767,-19.365453161686638,-23.48106704687259,-17.270210976667162,-9.104084566435901,-0.9789758532804917,6.171436753653433,2.9531646176645943,-5.6527629321429895,-4.11352160614386,5.152576863363608,12.199243907059595,14.199244636338584,12.229943665450005,15.42063913620672,22.17692262753573,16.270974638091516,8.106404365692581,10.794492200936372,-6.405876608384812,-56.24718270577047,-91.16610683390101,-82.36264370189778,-70.51739438998392,-91.12496801859709,-106.61692410544157,-95.67516251808792,-109.48471613748825,-137.064776540857,-93.72517680061202,104.16730434850831,541.8913964522378,936.3953586284895,608.6903611234817,-314.40872025196904,-717.8101001965397,-338.0301473473629,-51.7258711673138,-110.5725184856793,-78.85822958285183,12.407296382206155,-18.155385040428214,-25.018618607067673,15.234403906552899,3.9122496187899714,0.09077420108181844,22.371024367771486,12.610086775240141,0.10728688164922406,5.019655210342584,-2.8941017251835097,-8.878420106509047,0.6421944415248839,-0.5035064592930949,-11.847465120371012,-9.840146585142,-0.5675600959519329,-0.031111584091775057,3.9540093098012896,19.479394086890995,25.21507318688915,21.629581837526988,33.85059419610891,49.807567665729906,48.74050616870239,48.429353854637995,55.557986843223816,57.09009440789537,65.26934008293335,83.71422947788575,81.68559463584089,46.1084634501904,-2.9707420022314066,-43.28294115502024,-65.18450832030783,-74.3681084442959,-78.26187864029156,-76.15097553077868,-71.14887154747535,-63.727662721312996,-47.01330486983095,-27.06346632348518,-13.517941420944734,-4.162699967877586,-2.386956742035654,-8.376484096225123,-3.847438752475779,14.048401329399509,23.698565729873643,19.299928599083806,14.852857112850678,15.511457929090797,18.375437018916855,27.344415132017613,39.49276389561252,30.273602547972015,-9.95150855978771,-45.510955535548554,-47.138045416537054,-32.34467226578242,-22.709672963916386,-20.08943105087928,-24.380676903554676,-26.866896538872744,-16.760861927512536,-4.129473517097731,-0.0018409482003569622,-0.49114659028664853,-4.484961979561097,-9.851476303219684,-6.795407406540724,3.0900979388001106,6.81731186006753,0.6683492378981972,-6.269339614373022,-4.929175455586375,3.257670578349007,11.149546475854791,15.088918174569034,13.488718685514662,8.687511403021961,6.891095787225783,8.78270027109015,14.886025661813646,24.735689788473714,23.641395041607666,10.506054439451002,9.436574277376742,12.052310318910639,-14.527542784298287,-51.03897659901688,-57.60970029184419,-43.66258722115238,-27.883260994517105,-7.066013748998408,8.219887313880704,7.309002134515691,1.978003242758696,-3.6469025222749565,-13.270224360840999,-24.451273588437655,-39.520273299286515,-51.73563553781708,-57.90962305732579,-75.48351937048832,-87.03319384936628,-77.0213492184957,-94.86509786083664,-131.68467403113112,-101.31144021177118,79.34751538457701,507.1395277693026,923.6470060993709,632.9437946327112,-291.6785886415481,-727.9151408717055,-350.0099806732768,-36.518516513287864,-90.2819032288118,-67.17749973016475,29.699315489448992,-4.282168044593526,-29.290412179500155,12.40135990273182,16.288910998780565,10.821460455139846,24.646094063943572,17.17514044719055,7.843366066256772,15.648231022966627,19.510022016704614,13.902403646369734,-8.550572109502353,-41.02434219632438,-47.47341966823515,-31.300299082215467,-24.101042136851248,-22.03207604293696,-15.435229319942666,-11.041357109467981,-1.688877139397551,17.87201229451719,34.68564256882924,47.574112291023724,63.06711311915794,73.20486313975846,78.39549120468772,92.4312390332644,109.24373903260019,110.14751496189248,91.51965053718062,57.8493838244715,17.052390684963775,-21.21857116524847,-61.48745135435598,-102.27159798461446,-117.82555196833559,-103.17457364850718,-83.59061111291706,-65.64263157804317,-45.20316798786674,-32.38898236538202,-25.759330049078088,-15.130708475753107,-4.806408885133283,2.978891776465627,9.996260070814255,10.351049721513977,7.048850701620577,7.644000430222787,7.321484570584424,5.247018109333087,6.686804509501439,6.729908146663199,1.4300395554869176,-3.487740766603154,-3.3678931793709,0.3392715698020625,-0.025630905147103533,-6.602286424569005,-7.727112628825205,-1.7027502354518145,-1.0277648486543898,-2.5642468048192715,2.20488929226852,2.4597366186800746,-7.629427971335613,-13.838591615648816,-8.962162821520131,-2.6544580714841004,-2.9205592542393757,-6.110711984675724,-5.5578826285178415,-0.7919658855592375,5.6629299131500925,9.831932224987774,8.623614087271564,9.149652514534427,16.21067809813117,22.63210092218797,28.768756019774766,29.360715147873037,3.598307647381418,-29.89730224643051,-26.84466975100529,-3.9598446327165853,-3.5200939331155965,-14.078676914352377,-14.543771943202731,-15.333308297204,-20.88253200265617,-21.474796389703606,-14.634630747330444,-7.386372459551815,-6.155163530032336,-4.014005080804921,3.0866433889884313,0.5922849358739306,-10.506408632968416,-12.162906885809505,-10.348915792937092,-14.795986137746958,-13.04448713650312,-2.656714397839668,2.12197825933956,-4.175673402799259,-15.530406564684146,-27.81822863814329,-42.325468437986004,-50.44679008271122,-51.54972057042633,-67.89898184060229,-83.39474717258301,-75.58362554056234,-92.09187075471212,-127.86510566786501,-94.79098864929165,75.43083768143771,465.92037615261086,861.9556379089635,609.1200243102861,-262.2193025783537,-683.5338181787693,-318.40166020988914,-19.524220095046946,-85.43868934505511,-70.93550729792454,24.00021561466224,-3.7377036630297695,-21.392944234573132,14.205933558418042,3.9008692371064715,-2.2892722611872847,20.477566369133644,11.599706419888921,-5.460360439601239,-0.5495114758676349,-0.0682352905879986,-2.2868195818026056,0.42776228519038795,-8.633729779096356,-21.584183595184857,-18.382401806569447,-6.58472490286347,-0.41837484963117255,1.3333039997987601,3.554059803714715,8.774031112755775,20.495285272398608,38.31223534077384,58.44879447072694,74.79851049112467,72.39017279641584,49.55540791102335,38.73602610785984,59.09030817332861,80.73451210156892,74.11207727775482,44.889652508186714,9.254530953445848,-20.50176398274994,-40.411592364752224,-59.16629066589111,-74.67733096767137,-72.6786721172961,-63.55018613369695,-65.5478351547936,-62.373973067769256,-42.06963595599871,-31.150628970017188,-36.25112908998604,-28.560869247784588,-6.685948547041519,7.5727901939166795,11.916229077351238,8.26142582229999,-2.43564872571071,-7.174775645004335,-3.552359423725049,0.795327474664667,6.302620499514194,5.920413441849037,-3.4749657780913363,-5.021331226410316,0.8952606696716696,-0.302562919520625,-1.2611023657967237,0.4976537063861599,-6.363596261236504,-12.074986167026372,-6.045970091766917,1.42032771915415,4.8392383738340214,2.372157055398528,-9.380513619767441,-18.54063227079004,-14.931110009741964,-6.341417834639377,-1.5891413450611527,-4.425730764342512,-8.914544553895174,-2.064574472669395,9.64872346117202,12.723767370023683,13.601950988930362,13.069627112544214,2.9448952946741054,-4.547771397418544,1.5506820077738148,10.78595616364009,13.019741054232245,4.284481239136385,-10.00574752459244,-15.428010851756152,-14.388520526233389,-15.635446437060411,-13.793519517150454,-15.367610857551114,-26.829866189162146,-25.591906067576712,-5.692290234034703,8.392135441161095,15.801245706965046,29.225343688741045,36.66510592362266,27.345219326577713,15.95057748927859,13.393541967148703,-5.100954163797901,-56.36913166096688,-91.28346861387575,-84.53310801150377,-97.6599595187116,-128.82458037702827,-117.83012965242595,-117.2744486280227,-158.40500694277657,-140.19747873594628,11.016547206538917,380.8139751284706,868.8178974681589,826.6478943824765,-18.531077654162743,-697.9368053894923,-491.95247495852414,-86.24725672050035,-72.3594852836206,-101.66723970721299,-10.477867053138766,-12.675727402134697,-35.04753811917411,17.66177267498092,24.83945558280342,-4.517278070640487,11.027504299806512,24.32403691973791,12.477267726044104,8.454063905940735,-0.7981532472536124,-17.051507217767558,-14.355125612747308,-4.920688706662098,-8.971660587418324,-15.19057299999679,-14.38715410844051,-14.568568009239923,-17.517087024626555,-12.729559356420177,3.328109434596641,18.312986720415118,25.26707356058668,34.41576526405712,50.162838146403516,65.30658060588034,81.47831663541567,99.97067319000459,107.00375026510144,96.97474854822843,80.26272326812052,56.40005711718663,16.99651151994147,-27.679521850113694,-59.97125504818851,-79.74289067688373,-89.66121861462275,-81.96442940488171,-62.24944989482363,-46.48804967251088,-32.92216914487958,-21.35171320359909,-21.77227997010722,-18.849614967591485,0.6896547362643908,12.580200054226728,12.882669594373775,23.862018878547698,29.041989396576966,11.39216681151144,-4.170466174766979,-14.294022614341745,-34.44568513863311,-42.704870357550234,-26.494701653840643,-14.383309026390268,-16.247795991367116,-15.323045776920873,-9.550238427034252,-6.544791149925764,-6.887225843034354,-7.375141645826936,-4.396850935723574,0.3750173789228626,0.6633998546834423,-2.4192321567103043,-1.1793408998293522,3.807448099111995,3.0902509508769525,-3.703204743248551,-5.425522561780735,1.2986850344968102,8.328417346307472,6.831560761308699,-6.155876809074332,-18.551142890016685,-15.7810263101297,-7.824133765667766,-8.024365975524015,-7.35004845468143,-3.356347604772248,-4.833769991788907,-3.1469798173102523,7.467141280463514,14.070711540478259,15.718540367809993,19.04226043256407,20.037860185428855,22.221084520322677,26.21873691351461,16.084663232156156,-8.708343360923358,-37.52442274390923,-64.76223531209342,-74.96227572427921,-76.397345064541,-90.98194271201038,-94.93567759661993,-93.80679780116452,-124.89819475879814,-131.82441903162166,-36.38316513933192,237.87108337301888,713.1762575456119,911.6448282618005,271.17104315528553,-603.3899355856372,-652.7066778287451,-171.91450060602278,-36.387800429881594,-115.13006026161213,-29.762382591709546,27.06350663645479,-14.647183570064218,4.240267165424794,15.607835052469163,-25.830616914570818,-17.31209422503654,12.098558400278383,1.1260318968450438,-4.3436824052562475,3.2516468756636216,-2.293418583346612,-0.8140923773543751,9.967192304081411,10.631617524575637,3.7593452523166655,-14.629708840430684,-41.147133308434256,-43.09262151876935,-20.596933320346096,-8.070207843350895,-2.638532567757565,14.976552629963347,34.040985123116535,50.469748698405475,74.51783449949465,90.63825477022507,83.69108337302069,74.65389373830452,78.74567339465801,77.14256946538515,53.76177302470591,14.553238149185498,-29.16285181532683,-65.2792658815992,-82.56294010723937,-81.92718572219734,-73.29694895912047,-63.898174345991976,-56.12196955047385,-48.036537531552426,-35.68994172406332,-19.28383001304443,-5.096949496435933,-0.1951033773004056,-2.911782032628871,-3.252833102304436,2.7044744686366666,10.144806716684135,14.540303696964225,11.996767037316895,3.6971582433731243,-0.47218638970989435,3.2642075691860315,9.038337559403562,12.960964410996649,11.522101223795735,4.417842121727508,-0.9597869300400053,-5.079388633778753,-12.053146556994601,-12.428859805016584,-6.120086618472932,-9.722936910245917,-17.10199862911415,-8.606423095646704,5.424051184331047,8.897662964821265,10.889646494255185,10.826998909531342,-6.831738173687379,-26.295741576846062,-18.974725215515345,-1.0718881194723968,-4.088050972434711,-16.161659356280826,-13.321780507966658,-3.8087926210438847,2.1687449329358914,9.457121677054872,11.178430159579172,3.482366189169032,4.209714584369109,17.546975701124307,28.635544741348415,31.930855125639642,18.614679996855426,-16.24177306204178,-39.073059185390214,-24.3581409324693,-4.4595306959786996,-5.588688702549838,-5.604912930427465,4.810835029034228,6.9271567434913575,3.6458719139491143,8.71867127389639,12.22462421982003,-2.600214975568969,-34.05100602734181,-55.85680405018532,-54.22099259356017,-62.79289102260694,-87.7974409705128,-92.0855486143415,-104.75368954765923,-144.816003026348,-129.10257816871768,4.379413386858005,327.44554676242865,776.8466193690194,775.1358959622869,-2.024691465905562,-677.5735794929791,-480.6008519619886,-52.98795262911846,-51.93878961140094,-115.39646695055575,-7.494784804396943,18.26533323358415,-17.729876613154456,18.136236874855904,27.691109919774583,-7.707776759231059,-7.617635261002267,3.8161985797579128,2.808071918439647,4.872645795273635,-2.6631183111951007,-12.532101631449144,-7.679671094575482,-2.103519045817338,0.25233900061864833,2.8445947112564554,-1.5465440727029183,-6.382220502679003,-9.737501375330488,-20.10340680367206,-21.355219783842706,-3.867107130044568,10.433193367299411,19.51671839765995,39.14577528144481,59.77089026536976,71.4488628148578,80.68065741264988,84.88433930099299,81.77408850999025,75.83896552635636,58.25798659447058,23.62820030218806,-14.190359847438838,-44.91879727524836,-63.976420067198646,-65.94379963299434,-60.61472651563582,-59.70487134226813,-53.68821966191184,-37.42468144820474,-22.89077400807401,-8.869853797156297,9.157703526808021,9.907042234951483,-14.933630893728306,-31.454517464067894,-21.562826276379937,-10.17559837306004,-9.578097231170894,-7.0708285881766635,-4.73423058121444,-9.7873138032727,-11.127501814868207,-2.9227346928940428,2.9406370650056495,0.3111297674247293,-4.214023252901272,-6.083453600087266,-6.688742284832281,-5.44894509964417,0.5092150120908929,7.198973546413184,5.706381348507302,-2.681427011996049,-6.151048449959303,1.1477074838698154,12.329775987325263,14.176535565178384,-0.45809840684918157,-19.78462164317832,-24.073698849312713,-14.073442549914938,-6.819234077511087,-6.364896391605374,-4.993099998687763,-2.794434241401725,-2.174924896404975,1.984641659314455,9.30966032057217,10.41230505049482,7.729597141484024,13.026660688291873,17.88749901914509,3.357741052501397,-20.752917403061332,-27.955559667991963,-18.55591391763459,-12.656015552359202,-14.966131014661878,-16.03574199564541,-11.829741121159039,-5.25134138434937,-0.41976288522773597,1.29673035054876,2.2146534193927696,1.934311677184402,2.5350946282898645,14.457780826810325,33.03432505943403,38.20897181660544,29.846066157654043,17.061768813049397,-2.2133314110990394,-22.644604111129297,-39.3876063830093,-50.36102038054428,-47.406069093702826,-51.891478998145445,-74.24562001163775,-77.90622674872967,-88.39460101545319,-137.93577622646225,-137.2190679522339,-11.205084159332245,297.10518153214576,755.4246263752997,827.5146495642373,92.3374022355539,-666.3522185415293,-563.6195576315258,-121.7382435340459,-67.67842287737858,-120.36764132677341,-19.44257810619748,4.198953094541636,-37.548999032146924,-5.303901130825409,13.974262311278732,-0.46844852784122537,14.035301567903453,20.94676621181947,9.87626548148791,5.808520402292899,-9.632313890997736,-19.736249275007008,-4.211658685690834,-2.1716183481690177,-19.46351743857278,-21.92380777499022,-15.534361296023834,-15.511818059510322,-12.453948542045998,-5.784295983326688,-0.31021162968592897,10.629351302169898,28.12948239050616,46.1799343452162,62.86530095039007,72.71225771778406,69.75395444221928,64.79244670829846,73.59991500598011,88.76264221126674,85.63349474529204,54.08832138181288,9.127858780065768,-28.686123206897648,-51.95494708328554,-64.69533816449135,-72.57968950016017,-77.10117000130785,-73.04326151086076,-55.95845903604268,-33.95743537076821,-22.2276994583773,-25.895744170435872,-33.6476726849579,-29.84288851555027,-14.590601831065854,-1.71537609078932,3.117536567978025,2.956958488995884,0.07916501073435889,-0.08548225677860977,4.188001955173451,8.453917666857484,13.322790131205654,12.45038504363994,-0.13707626303773246,-2.025745045388747,14.985832125126423,21.46922103516802,18.895326502372583,23.396729391371224,4.004561164938552,-38.97444908056294,-46.4447306609482,-20.400043554190496,-12.767068018120163,-19.819635724025076,-18.580629474481405,-15.914339863551408,-9.990733231480997,3.538128729766585,10.112229298242559,5.643663446648353,-1.2725852550988854,-8.353676854367482,-11.180075251062553,-5.326461874621868,0.9566618639359614,-2.0973446651219874,-10.2233418555509,-11.69511949629255,-5.125835635742485,1.5642936506292058,4.634170907034477,2.450306423304327,-1.1952712667010217,6.908626607341547,23.051612364179846,29.841222319895582,31.100252957820626,30.18011968334097,10.982139371987213,-26.13016222339153,-60.015872852924105,-68.99728813720299,-56.861376999039194,-66.08357893937884,-92.51231439339466,-84.11687389946849,-75.95994341748096,-105.41755966762062,-96.19642813768175,35.10136226745388,390.7224244593658,866.6354321430733,811.324894498872,-44.07920343041684,-724.0771855122833,-512.8042424195198,-110.19455335700732,-99.99012785775969,-115.10652716194812,-3.5384340879845126,-2.7328197003433985,-41.24539294265355,-3.2943631871199894,11.509007843545756,0.14756401572752154,16.488382282247045,18.36215722758037,-0.20245283580571005,-5.461248999146214,-6.010289466969379,-6.520242602660719,-1.5401721344441297,-4.327162584974438,-17.478023497032222,-25.155873642843535,-19.948294146651353,-9.498921812887538,-3.3977973352984314,-1.7222346271207325,1.627489119126647,10.098712464862352,24.70439735297791,47.24430987265436,73.91626088396657,89.39849093602263,87.44747918846443,86.9135428815588,100.66954715404175,112.83214424465606,98.72684506771468,44.79024718026374,-30.949436728656494,-82.64287976846332,-95.68085469682167,-96.8093518961038,-95.28947338041365,-84.13209951725686,-71.58361233982808,-60.02410735817536,-41.19108102377312,-19.43590713672436,-4.259139645533921,3.1682515298472964,8.314597362737377,12.973904273386754,6.317828596491436,-10.602219022189406,-14.116547708461269,-3.4785616939710824,-2.908497392012448,-9.00189623788446,-2.537176812983599,8.461661925195404,8.45443394333347,3.1926300320930325,2.329338277831809,0.39489788691646055,-8.93540037199372,-16.374089581277637,-14.463064758505537,-13.170450856571716,-16.20604267547226,-12.596346529787056,-4.305404399139114,-2.824337723520891,-4.5981502252736455,-3.7507290239854285,-5.0203553753534464,-6.902113645801275,-3.3363573636733816,0.607132960515032,-0.16937119632507436,-2.351163780844823,-5.070527955952105,-5.991378875157271,0.3548850470239229,6.410716571532111,2.6953334733282586,-2.255825478591949,-1.6963710986570537,-1.1932504507211696,0.08190215946156387,3.1026044928953818,1.6345346131678058,-0.9527849273177438,0.42788286924327823,0.7396056373061961,1.0198335978316952,3.160694870765441,-1.2249310364883637,-9.837144507464803,-11.261153238421896,-6.551824602553222,2.0135678266633863,16.76582040216754,30.884176583968625,38.51450526810048,42.026223680136354,39.35079100499449,27.76246452710121,3.4709864337971563,-38.63200002867241,-71.50341329187431,-66.54318834251636,-63.41619793295689,-86.18462204664714,-89.09456176176101,-92.88999026799614,-136.01396166669372,-135.34667369563715,-25.389137185523666,246.19769880956838,694.7749451221691,835.1142278353644,163.3454966087715,-636.2572968343475,-582.1628938904107,-102.20795400820546,-26.13502320672673,-116.91622215141003,-22.14185421271406,13.57480802940465,-49.794420965825935,-21.655430160957103,14.310716523309395,-11.054242564339908,-3.7064941949589087,16.321204219163363,1.8044326550184415,-2.7046939738146722,2.1785245474679655,-7.9905289312371774,-9.29258840857062,-2.0884577099350454,-7.677928808054876,-15.365472202808201,-16.316557165156844,-15.951828787876854,-11.020849457891247,-3.0297389285790395,1.227214822494071,5.950464170848139,16.131629556398735,31.390980485388297,50.59520127865677,67.17884556683555,75.61628123320604,80.54862279174456,86.22497385774103,89.85947630124991,86.06485727291007,66.46017307580053,25.517750577009508,-25.383525166111063,-62.6007126495781,-75.93116203032224,-76.41044243621116,-73.57089766834534,-66.33860689348616,-56.30017253791168,-44.80263569621764,-28.742852978452596,-12.719340836167849,-3.552889086591307,1.1912564057694812,5.335223221828966,11.270563384164763,19.51477245979047,26.761165541465857,32.84927730026495,28.555609529930926,-1.170418154051264,-32.009974242062306,-26.334660633079224,-4.086020173517191,-0.6163905904668958,-7.946016046414375,-16.066109725010257,-25.865529394830432,-22.186869418442352,-5.266635640709886,0.7451525842623656,-5.216818618509116,-5.965333485210017,-2.721236371984892,-5.585578451549448,-12.096064059930734,-15.004414946379153,-15.601217960383579,-17.10753350881381,-14.340344636420005,-4.312459841644813,3.8762332566309112,2.548582932768042,-3.892032839521752,-7.106379259298574,-4.343735839806833,0.8683293417496358,4.035701148825797,2.663447710891491,-3.622200891543729,-9.193812108455534,-6.067856128865943,3.1454693890642202,7.386187061271004,1.9925131531376925,-7.314535435271555,-11.059898729907335,-4.5491563026359945,6.970172209185651,12.73689164613104,8.043198540512766,1.7751230154903654,5.233182949176557,15.546560621477354,24.108586808349372,24.17501582150162,6.2493251810881105,-15.960700564435884,-8.297244295891517,18.246968432510776,22.839471199460363,10.115649684355528,-0.9455704061221901,-21.451458069395485,-51.51036256270253,-69.15972880369279,-67.3306830360954,-69.14929286700735,-90.90748873499899,-102.55128397573749,-99.82189824822754,-123.64074809595624,-136.7633667400611,-62.645806292504346,169.26085227252767,620.2172856846629,921.1509680007987,442.85441901621755,-443.4733901516491,-637.668020407459,-191.85724886978093,-14.741928969980986,-125.67911765327824,-71.12193864120411,23.29641201462914,-7.47924833213537,-21.875845944866924,-12.168151009067223,-34.239290212530456,-31.611850377760653,-10.173035809914706,-11.468344992935371,-17.534505692080607,-19.59870090156464,-19.92695380110519,-14.256399741005938,-9.845519136014037,-6.965782306828634,-8.47490679880817,-18.070753434953804,-16.915315161896906,-5.723249015511661,-5.325543973738787,-4.034228646864151,7.731450936063336,13.504093958178773,19.848774780041147,41.0596674837869,62.645440296926374,73.12019463831172,78.72183310326263,84.82745977151687,92.35237626460781,92.67930268372018,74.93975127771168,42.47565134303686,1.5167905380304498,-39.82890786538647,-61.8006560509298,-63.7352069408647,-71.07494146513089,-84.17292583677124,-79.51354081244503,-61.25556429114095,-46.43933236479472,-29.721235575427087,-12.928363977957751,-12.374913037997487,-16.747383041822864,-6.654830424484221,4.431112973251064,4.855484814948287,5.726650352122152,7.55415916635018,4.708531429943113,1.954241083641504,-0.8110015691654588,-2.1591119538778614,4.668202829116715,9.528520306472913,2.9062119111641427,-1.3222729855520798,4.466602401345918,11.11097173651918,16.56712655354794,18.542116561347406,6.10144031353194,-14.285338999980823,-19.965544322804114,-9.514683569887028,-0.06555250943199908,3.8784546417985464,0.9969889780938317,-12.198284714706304,-14.0241385305551,8.138995929481133,11.496296044345545,-26.303919031866776,-51.68030481509364,-34.25511827759445,-14.854145855637325,-14.41861833594621,-11.186317344835446,-5.085465934703063,-10.3217724350127,-14.606405027169574,-5.438400414142492,2.097160091703552,-3.93742065197182,-9.46648718921849,0.2658128654087406,17.500383356733074,25.011818261734433,21.941877783198812,20.721133992291055,18.77208832324238,5.976438754160475,-9.87965794139964,-22.32843531002475,-33.65520651065362,-42.28401940709022,-57.30841583751312,-70.0272846751844,-59.38562160764917,-71.41237913472071,-127.2931127966913,-134.32690170644798,-8.905814725949853,333.86220173662934,809.2023264963076,806.7808470722756,1.5956394806668186,-707.1269360932637,-534.9143400726452,-109.8085196528076,-78.83677365234882,-109.6706126477522,-3.5903158460230884,4.245660074033594,-33.552928524238126,7.384202906527621,20.750673241056006,-0.6106686745597738,12.61939947734399,18.81608936692412,7.100472621748229,10.374658522023045,11.602553958823172,4.507385964057269,2.8886802890382133,3.488118666477444,3.2071335955697395,-8.351765578461684,-29.98022437539347,-30.89246995164353,-14.158086161872806,-11.850296162506176,-15.095028547671795,-2.668720600333897,18.603048333206615,39.66126107126004,57.07393059529717,72.17440685718978,91.53216239699614,109.26568216533713,117.58442996859876,110.56363090676619,69.49087578998665,5.576753051411012,-36.08600345634673,-55.576657040073485,-81.21964819236703,-100.36787869303684,-97.83314248844513,-86.90333386425581,-72.23937952256793,-53.711183720162964,-39.65920364669412,-29.849583564893493,-20.792988057480464,-11.92578479516833,-0.8766088481871037,7.281213465445131,8.136346445499793,9.14979879794674,12.636886247879053,15.097794378877143,17.885062697779183,15.10150325755929,0.15134611561741274,-13.837087629337528,-13.602085299312366,-7.340466164392937,-4.9381745253971125,-4.292254602403025,-5.146015295066466,-9.440672122553483,-10.994656313286171,-6.195924636722748,-2.3048679709993287,-3.0407696710484267,-5.186276552212357,-8.0715533929022,-8.691710055034452,-2.904835819023683,2.80478093578219,1.994575615875016,-0.9003407623503303,