ECG,219.96689238792135,443.3163470388487,708.2269981785888,916.4328109038463,928.840528358503,844.5480525952668,833.744366940534,819.0296252039016,742.8874309927464,711.0253464521325,674.7059267527641,558.8923597895824,514.6730242729589,588.2391764503454,598.7760566223533,513.1987768420471,463.39738492262086,464.6891102921991,456.77456114241454,460.4035433913127,499.01216408323876,517.3087134409752,491.4356635369288,482.7303957940087,515.4716155744534,551.3752830741867,580.2435523389756,593.2640942836822,569.2047635715874,549.2485449626931,570.3613495899006,591.6895698209645,583.8945132449314,549.6456493666151,492.87553762985056,449.0287229912391,435.4560654168439,437.82821178474705,464.69396447417535,478.13966596590944,436.54705622098345,415.1451427031293,443.34502492570005,464.7358344604788,521.7843963789909,597.3476404340827,545.8025860565018,430.660474953826,431.65341126058,493.7912721665947,503.95847428646664,487.1659119738449,463.1103809500572,431.9633849189479,434.5621559564421,475.9734866150636,498.6825936030119,468.149148480397,435.17074041361457,440.1137282150555,436.66593917353543,429.91811558880886,460.04336580009476,458.1575809104952,418.7275707364686,437.3882014284154,461.57330126570344,429.2180640904812,425.0906815336929,442.1153507310331,417.0425954016865,404.98111633188523,432.8778101241236,466.562594930205,475.8693523931803,420.24311632567503,367.42817662701736,393.4239529540058,389.48323964542,329.6632004863882,331.3143576035816,343.97989821980843,296.27773255538636,270.71694810796794,303.45162978104725,392.4288142100754,485.0490625597296,405.9806209868335,263.8245649881346,472.57069438003475,927.4625865145476,929.9160035939981,296.6200085304698,-242.0362302221181,-146.27299020394173,191.25459864280617,294.68843300896276,302.8164724023335,365.6946620813043,350.85282223632896,297.1282791322602,314.02517944936005,324.6907370051796,320.3617806274267,347.1845594970421,329.36066786401966,280.20142507158005,294.89019989770634,322.53761473428426,323.03269205096626,351.16195599547257,348.32559705062056,251.42725507345324,185.1729150516544,234.87966754549257,291.85919474568766,277.48218058808186,251.74616948947607,262.8030083037652,285.9847212489459,300.01682947002234,307.4606639702631,304.3741228018737,292.69028839309453,292.7587971720143,308.2938909973796,313.7035802357817,294.70108198001503,261.76458561505217,221.0597353989948,181.16673204302498,169.5663542569397,186.65978319355372,193.58601255936503,182.55483165999362,178.60907621759742,184.0353721959201,193.64594889928935,205.26580671805766,209.41941187953955,220.1358430878222,238.49605103239566,220.19238303613707,179.26314136153354,181.40182054502912,205.56381303979197,195.1684672213451,172.1547407819362,176.27236383869058,197.6718483682762,203.89959275965543,193.1270952114317,196.11292783760325,195.0841291471162,167.85049765360003,192.69613947070746,266.60362399068975,231.47300397435453,107.82479406783841,83.79349195221107,136.22719068551766,135.57269298389622,121.40384086853749,143.50772525421223,150.76974223292348,137.80674551582769,143.32526341648799,160.64437482326105,172.39865350349288,184.3470870695706,186.8349650805527,163.51880209885257,147.39486562593942,154.96381951448365,128.5331720155833,83.0040271510045,91.37105915807376,92.96866408407271,43.84949930858801,34.74107030439512,47.93757727421411,20.90001951361279,40.050734664429115,172.82470253134005,444.70887430344726,748.1536097298059,613.0495501831936,-66.68961768051017,-499.2432325407578,-255.49745294928098,61.96958099462228,84.07609968815251,92.30633413603408,149.83129468102055,122.13706068553654,100.97841007223082,135.9016015218878,132.56842252113134,105.17745418451403,114.99655986890389,132.97180902251247,126.28518608379454,108.50583370882367,93.9633235773693,89.5424839532111,96.55888547007817,97.80442923928973,84.781536029503,77.47464199207195,78.90737139192913,72.50677780011674,72.32956748324096,92.98521191502186,112.36506205749498,117.47476983985285,118.27300840431838,122.22565585447748,134.6422650309127,147.93717098981676,151.2154789655415,154.98805188920446,155.66980349929136,132.49806746827988,100.61793798406757,86.67756868678015,85.13845976521628,73.89193043454524,28.7189112920438,-34.30827531659436,-46.18951598751593,1.0585162893223696,32.99576445277836,33.19501647600552,44.10157506031362,58.13907233642996,56.07563937489789,63.96970840226639,85.46176139424455,85.21637197339365,66.3068166900834,64.38801544414346,73.07201054310542,61.898304328811406,37.84543318848654,22.10331404113292,20.109203505355254,39.203222656781975,67.94525954571911,70.81473282457812,49.8119265843622,36.82570121149915,34.49488276660425,36.49517027231505,44.61972432557316,44.25585898023803,37.52133715941926,51.74794844909563,72.95105640508334,69.99598600621825,64.17623180233731,71.22586614363499,61.609816337526865,37.197879330612636,27.81784159440606,30.1761165739277,36.41727300663669,43.968519001774695,35.30788561896064,11.00882687283324,-17.734350637193366,-45.59993054573464,-48.98375343811115,16.658200294131234,251.96463611093873,632.1580450643078,696.5360375530682,116.69338352052779,-502.813125923996,-474.34089402595646,-138.04685864032498,-32.872010700765465,-18.151102253428846,64.36618502282242,71.79410360036759,34.137891060928936,50.163875523874324,51.01303262904898,27.542481531249067,38.59732696986367,55.107218044635204,53.94814762186814,50.18467010068598,33.97821458192443,22.501483880060547,43.55602103493409,58.88715989368439,35.3558257689904,16.484601000239664,32.57178925757533,38.0550005161181,21.904662177913437,53.492496230295345,113.79989196942869,88.39975151074546,13.376591778229795,23.396142356306058,80.8807116089039,86.5603595138589,75.41992643528582,78.0761330083685,62.94057997451977,46.72833916180655,36.58737061091851,-3.478081695455863,-50.944739815090074,-59.073269863753374,-36.079968709647936,-5.081748363775873,16.695378033046623,14.247313488394305,2.04431846065696,2.156473894525824,12.805589661408021,29.145201163226318,43.99247232997348,37.53088890950657,16.587253617618245,21.32866169113629,48.88421791685059,46.40461905296767,18.970966997459335,24.900944432496082,48.30071085307325,31.125264040997365,-2.4201059818052073,-1.4379940807009746,15.315410911417938,11.407417074461847,-7.4410467962291875,-14.929363564127556,-4.412792595315381,2.4180318271375327,1.0702921374695507,11.399393855820897,19.393395337847867,7.23873986048968,5.460783221627892,23.214816006051386,33.001841786676565,43.052541177771516,60.97352526816353,59.482609384342396,37.96524832298273,13.149709537138989,-7.175984483937668,-3.405071248903724,11.08191558638584,3.079769630817694,-8.573151631403807,-22.151871128338485,-53.9246864324781,-44.96119023703416,51.993361018631504,267.2421431113073,592.0187945683385,660.8640784154189,128.2756736367042,-484.74926064873694,-481.16886332440043,-162.37296164718717,-74.00563201362581,-64.75686976896458,37.091884736892354,54.771007789867774,4.20530785637423,23.110669898337406,53.252830080912275,42.427917305135715,25.047529145586577,-3.7140882238188073,-35.60484887857459,-41.20200779715027,-33.86853138989673,-24.47917313967628,-10.550285736913814,-10.699442324225375,-21.268868359275185,-10.156247669409483,15.58689533711398,23.884442652574492,22.240706328069457,34.26413167600647,52.21698829635285,57.437431433289724,49.90048333721512,48.998090174513315,70.83996584770485,89.75552550452974,68.6508155468494,35.53309204167893,39.402476873107105,54.93087029130719,32.371021701374204,-13.654016765140906,-42.9573951283746,-53.49835591461214,-59.474687039777635,-54.21589582327988,-31.077569523229364,-10.854504331255223,-7.184168106915101,-2.256573558226825,6.208921338196356,3.505823783919057,6.697655734020962,25.235908582361155,28.273517587027158,16.963191483754663,22.62834948685721,26.40342016501123,0.18721969977779196,-20.50632781201434,0.7990626254493307,34.439488895246505,38.38375119257092,18.33079454952116,3.8319430173533746,10.420236139444498,29.376223433904883,29.950944519949072,4.222715322172153,-6.932720747564813,6.794053036716317,3.585665651272894,-7.127607581399996,13.794391624412746,32.66588826232429,21.308736949638444,27.39462869042041,59.35208529268725,64.55617497597488,42.28701072404809,25.364734642884343,3.5879273203633044,-31.25900302692325,-50.19643540387392,-50.09380421841654,-62.90894854688318,-82.71327508365212,-71.07962077563826,-29.98153645256501,-2.655084652628304,-22.01350149475853,-64.49961815891173,-66.26536689478654,-8.990779193643235,142.71733068772215,451.7373790879786,638.8042126874989,252.3048785125921,-401.4367735959584,-529.699394099086,-185.09713119284623,-8.130626287825393,-37.89434918290248,0.012137515965770618,34.138112716213385,4.239926148320876,21.85235866707965,56.67510488998168,35.52220361271796,6.2940433497017985,0.5291979884982076,1.5500283586629742,11.176149109331483,25.370717163905574,29.585243545343925,23.511629863604877,14.161866856309022,8.017285876348218,8.88576381257338,9.49323229116552,-4.291815226736869,-20.59291250909815,-5.801549376764484,26.358398191689858,33.2240213733228,35.25446205384779,63.40629845798097,79.81262659908249,65.46821510271076,59.41988677692317,68.88010024103336,69.81694664431515,52.72271319261432,8.547758605402151,-39.70353378073825,-37.65148928091923,-9.864298814442286,-29.401112657536853,-63.529462679827894,-44.37598587799195,-13.692692227517517,-10.316598249470193,7.169488954435596,22.973803954165426,-8.39100050689115,-36.762743472124825,-27.859467545489707,-23.170030103623823,-13.091775810496351,23.000149351305737,34.762635734154415,11.970171999408798,4.6317437313893395,16.948486103986507,30.254036034331897,48.137010126991086,54.861103429459604,22.258270491905883,-35.848621797300396,-63.82854151132789,-33.89733133327593,2.3382641191183664,-7.268237066260519,-26.814724399612814,-15.553490549085172,-4.673584697110192,-7.995299898577146,7.588521403638433,26.702360204256557,9.126264912673633,-15.389190386828513,-6.218066364382953,10.63729837965764,9.415405387443473,3.0245588242437424,-6.132104804147055,-12.56092127927553,7.377932566135712,35.91961864386917,34.65638549255067,20.438201500544956,18.600252642200804,12.980025516621787,1.4772349322704112,-7.095218458321874,-25.726397349881523,-40.313741447515895,-34.30440093065338,-38.75489466587358,-49.70027464224179,-33.29155300961419,-18.099197857513225,-26.6409375400383,-8.768047455678797,141.95564499915068,473.18266934691104,653.384945869159,233.0165629302178,-441.8813910005953,-571.2572558719879,-229.86397706139397,-51.952506003928335,-58.196666923584644,5.088250176422147,38.7602302770072,-10.713731265773259,-10.470417006619389,32.99144688534589,51.69528406876896,46.52678746403205,16.031748822643824,-10.730936604338906,-2.0956285321292567,3.2631728007304073,-9.384304180383847,-12.466943384375885,-15.988224325820964,-23.108827730052322,-14.758372592053794,-2.845738243192528,5.351471987610871,12.74427489898067,4.595840752605675,5.828570502235721,45.405124673409546,72.04174546469139,64.0732187724435,75.38972671541185,89.64676922438123,64.6527350799995,59.72874233650088,100.83835183660022,101.11832532385826,29.75608421842108,-46.20330987622951,-84.75581296039898,-91.67552266194006,-81.73627438096939,-71.76202540445213,-68.46709673371394,-62.70448380855488,-46.78655541697374,-30.98483623569182,-27.16834442496829,-19.82933337535178,-0.8214695988020821,3.2116658375848175,-5.526095674631442,5.0776527091423125,24.526608081015105,28.3245543740192,17.951784615613185,-3.6698267595880383,-14.20195591006284,7.861166398627441,31.340998981819403,34.66596611317339,26.292415905138686,0.12325289115132865,-5.996472149509348,36.37986850702474,30.41141101234605,-52.197231186814484,-70.19398810791074,-8.193328571848951,1.4809943627100255,-27.43905791369578,-9.25541315124297,12.219283809365646,-2.2483030446009047,-1.474359218572169,21.07544883601854,25.300995711896412,21.91210005379936,35.894817366229546,44.19887985180221,17.4457375875375,-21.860157763766082,-28.977804196023698,-15.740081783560246,-23.579264246419637,-32.65467946077975,-25.670566881739774,-47.40234572069332,-75.32316091869895,-49.17269570412647,-34.585018759362576,-86.84843800990791,-107.16331868961782,51.83530771060441,455.9552152655497,791.669657146686,472.5236162104916,-329.1828816665838,-659.3917169082715,-336.37227336207707,-71.2666012453598,-52.43405575481781,12.58342647897714,73.01274407382941,40.65529612914737,36.9338088680022,51.45280839176121,27.706148243113546,3.0624274494197063,-42.28958117719987,-95.64951262712765,-63.702003735013584,10.587547074019433,9.182097491139142,-29.44018356042675,-15.579696156865749,5.295148064586099,-23.912993237406855,-41.27411435972223,-12.10552204510957,5.323862311930158,8.125212878318886,30.932327262842815,45.16116858724439,48.639643642865934,78.29920414592627,100.28919236326936,80.93427044720079,65.67387606299481,71.66971740837431,60.15328118344736,32.80183172757226,15.75241727995688,-6.9089332992546595,-46.350851718235205,-71.55190548095256,-75.87693165190032,-78.87492977298596,-59.19454410531581,-11.551276866300334,3.979371998476049,-21.14140085954783,-20.215757701067204,15.215946535373394,28.259795859876505,-2.7689735089000234,-33.94646170666934,-7.662120742786183,44.96207339202996,31.62997816321613,-21.828003185006214,-17.580361856106435,14.00557971188142,2.3765433583126323,-16.562869741953758,-7.425272279795404,8.531706032106488,24.0074374410583,25.579705338746,-1.3816279445498685,-17.073277373435133,0.31808869378396665,4.105011775869989,-15.332328760037857,-12.734503240828165,1.090273629301389,-12.174392097036511,-20.3843716791623,3.4368019166481822,17.571244811226336,12.336489823666419,16.46774594977672,17.019009615117728,10.488732846505775,20.948221627315426,35.103575671057456,48.189956025277766,70.77857613462963,56.13073617205402,-7.7614579763836264,-42.0451669795551,-29.74337084862316,-33.39715766703721,-62.513197205826756,-81.13874959139348,-76.09103378758176,-60.19530496128692,-52.75172970529404,-59.17676230417353,-76.15352038651844,-87.79314472492621,-68.84785935029332,2.3465194683318913,220.34217902233,579.3580696264756,630.0577022753985,51.67473177490368,-546.3536220422686,-493.0986718281233,-141.78887053767266,-29.977263872836794,-30.01889778494904,17.88467925530464,10.868343022043632,-3.4053050362174417,46.91231677333949,64.6347281952115,25.11285445694929,-6.1007501909832484,-17.182752246794614,2.2718868622012725,41.13807859165278,26.916965773390057,-32.17729311138968,-43.80642400981682,-11.739035309082771,-6.633003978076841,-20.066972843640308,-18.072557243582352,-12.367570118802096,-2.1089191810636194,18.742895084899057,32.55369502145054,48.5612718826236,72.10590655940234,66.95546077830875,43.22769978916595,47.004877166962636,64.14928262320203,72.4998128450109,82.19772847538447,70.18488088366716,16.90072177316634,-36.109305666133764,-54.06330685724032,-50.407938401627774,-49.55931020571832,-57.96776702831179,-57.5894045306316,-38.17201510239778,-17.448107504644845,-4.5155854808848055,0.4371278847396063,-7.298365009555322,-5.599588640261384,25.32558625339799,58.84822100579399,68.11142642264952,45.36252889636994,-7.454863792448034,-47.23670752031303,-40.41949795849838,-23.796471567001657,-17.856065645013317,3.2198291075938026,16.79737675263953,-13.145426404335954,-41.15214560173315,-18.91654829667407,12.218375410515195,3.572642618119385,-18.977806536311167,-18.439575320536225,-3.237229984544796,12.040305964981167,22.251267250734355,15.191778071549866,0.824388888761622,9.459896196971174,29.453390722833763,21.881278401769237,0.10133544286961138,3.268015909888238,11.663523813834262,-5.258201531990169,-13.343790072437377,3.695091335752307,-0.08843940639792436,-24.438089849397016,-33.04644428757656,-42.45339198154346,-45.082293237748196,1.4238942566979427,37.73284164485061,-5.014613569620634,-40.41917433267505,5.318902101529662,47.14986354374973,30.289734546904832,14.439789798888901,13.57611846719079,-6.633858685177767,-30.751183145481683,-46.22107599937543,-56.52396352554898,-42.08374776162661,-30.510314300546483,-54.310110281689376,-58.208267904922224,-37.333330997616706,-56.42603546486373,-74.3634926570108,8.912178775904977,263.17415720634517,599.2087426014314,566.6098189215991,-48.34666525758473,-558.5777102378138,-398.52851617724065,-67.50897787215555,-38.0564560998473,-43.181751217903006,41.468748441069465,25.436380709874236,-19.001294734600428,20.82573690050289,42.680922912652754,26.910255515634418,36.15065026473016,36.92772015087706,10.43632995883005,-5.515170918888481,-9.260902227200948,-10.858668110903373,-5.846676252481697,-6.2786164194411835,-18.222771875533034,-19.895987563810422,2.7705476167493828,30.650523777235666,33.48511975361095,10.992040161007482,-2.891312021187886,13.28150802585506,47.16619053734043,78.02948690733713,83.19869996777368,53.81395157760876,31.613524638770055,52.23797782167853,70.2491766828796,43.90309021244395,10.99633609092521,-8.203254193581666,-44.91855088635879,-83.20587798070387,-80.12926369844357,-56.200298478581864,-48.41228766791177,-43.98369617479304,-23.293518051776353,-1.6295442939573697,-1.402856136758226,-12.622926375083587,-11.299894747002538,-8.026424267222316,-12.953574387148443,6.5893468172344605,40.598710810674476,24.220854984399445,-16.497670871110437,2.273985758621444,41.79999194779154,19.931219521479232,-14.899496698631484,3.3392758546582884,21.31618665245924,-8.692534147103856,-38.76333396258967,-32.67090612557267,-13.081686990205373,-0.9778661645847677,-3.0929121351644273,-15.268132417482109,-14.87126038300222,-0.8493733317892911,-0.9173313047881209,-11.961809303824415,-7.447145027886359,3.400497888582426,-1.451630316277754,-9.784089379666776,-5.022042814263198,4.886767257180905,8.572181665079652,-1.9819249884186245,-22.089886553911043,-20.476575613117145,4.90755613967722,8.043827058680506,-11.337704336639238,-11.949840136874002,-4.187899910214612,-5.044754774009532,7.323183417687349,22.527543210909876,19.40394597609805,21.898343267669915,38.0139433365129,45.22804096806847,30.94237719592168,-14.597240589140052,-61.12761121712477,-49.48936296759121,-10.768391324508768,-17.48145241178328,-41.83888829259953,-30.035444686640126,0.6718414575819533,20.848481965028796,17.926273655050206,-5.178541774337859,-15.199765127059653,-2.4965707618371655,7.835313434106865,12.068393609319118,1.2680544994444038,-40.28083781090473,-76.43405578719138,-74.7285633897933,-63.41520035199036,-70.22934147027703,-86.53784331021863,-93.67418517588982,-63.66143899174008,107.51233601381614,491.37833489884423,740.5311488927143,349.91290618931606,-362.95207819619657,-549.1970437399298,-224.15233783319167,-41.86576618821892,-62.690793206732,-17.349038812543796,18.3590532426984,-14.097410458037045,-0.39296425897065745,30.775356556893115,27.176419005417845,35.1822545781141,32.22130400217171,-10.113394158303166,-28.058766829939717,-1.7870554500640026,19.101942341582316,17.680552231198448,5.622752965746434,-6.541663046537106,-5.768960307481357,-1.3293449826886992,-18.421445464001238,-40.626228079874934,-25.487051246780183,13.538035971010746,32.19594379688352,42.53066814761589,63.549673283365806,66.89138075554658,62.81726372348985,85.32649560155124,94.3338365584131,72.85096970518435,77.80565681440717,87.43441946574764,41.61769899850883,-12.778758778791705,-31.713831195508167,-39.92030078900742,-29.19060712454458,-9.483470920652199,-39.63798973389532,-96.1566276762257,-112.33851187873586,-93.84288571224721,-60.757164849170536,-30.601281259710973,-41.75589253428561,-63.23639366515725,-30.157777740606946,15.0955145277807,6.332045586309796,-19.774401249120956,-17.906443788899207,-7.501323954384194,-3.494557837195174,-0.6965979925710677,-3.7447495578755756,-6.09889355738582,1.8765473338168093,2.818088247369909,-7.81894068498406,-2.5100091258675343,16.535162550410647,17.2031747762613,1.7911512191180456,-11.625087251530948,-24.6060001204679,-22.21362144536907,6.890453133726066,20.185083934514726,-4.900899922445301,-21.694945829219474,-8.381225261156006,6.942242059031601,14.133003034605554,9.075332413315017,-13.780427499900776,-21.166997548447036,5.830600384391408,26.36245413113877,18.947899768031892,9.685872016622143,5.539408842034286,-8.783647766653193,-21.814965275053922,-9.727096926072525,5.546280568444215,-12.73868825473671,-24.253994224750905,15.447297464425606,34.817721764274026,-7.998191756973171,-18.16112817583722,23.55221519334328,22.964684713860457,-3.7512676080680425,11.792741027009564,28.037104414140387,9.385274904414096,-14.911940259509326,-35.66958259871716,-40.88285810718771,-28.491677996398742,-32.191460222814925,-40.724965617487925,-50.46562238283528,-92.60898452292392,-97.81390044016786,-5.532493743316223,168.29482543147327,478.49647485006807,711.5477291490441,358.91564886172506,-354.08900331344717,-544.3546497939047,-182.57701324779586,3.6586551163224623,-91.45000823838441,-111.2203798528183,-51.627028255050604,-26.935301589207736,-4.336754899401434,6.631644533741493,-4.517294252060324,2.641301642807255,12.030933088068746,10.132242551477155,26.026823385816506,34.55108041458829,0.11952259753571948,-30.704051562559076,-16.336810204480486,-1.09575740613057,-19.231391000424217,-32.53237095495128,-25.20152573938626,-29.0395419057715,-31.53085777853067,1.7412945404698128,44.65185551743089,58.10822311981076,50.002888266677004,43.91785179413429,51.98567901030327,71.63047249506815,86.71623020975323,84.08250213671455,57.76436068038865,17.90508349388109,-1.2516835234631127,2.9483507467822734,-20.076113301231953,-77.1758246509437,-101.77773263138454,-70.56303516345176,-40.865834978496366,-42.609856320397924,-42.209292096919086,-24.67586046911528,-8.741732820662328,3.051381776714294,5.334091147331289,-14.838072153318977,-24.212257613377396,7.589001462758155,35.51131012366568,22.1731853206389,0.9265525055237109,3.921785965841453,23.811294160850053,33.91635557234501,19.141425757639222,8.601062640124873,14.407287490302242,-5.770835215094805,-35.0871438658324,-15.802831592361946,11.602495109800259,1.7838748167054979,-3.7295579434343633,-2.6792439104017625,-12.5667238246183,8.217500897639814,35.22362426343345,13.513122032532825,6.068873444926629,33.61900748354873,3.9024256952619254,-57.606914698323,-54.26089118638613,-27.433149189882407,-32.87277122445151,-26.964130612186757,-0.5753818131136565,2.1564978682952294,-15.682389197018464,-18.74310379929261,-2.307499738306742,6.502498568774205,-0.1310350484308831,2.9000717954426762,12.228299750645595,6.4475879492167625,4.060930757461305,7.938266019276771,-6.358585024682673,-9.646514003341391,18.48986771499125,27.729081819869606,7.3184493868181555,-4.135643321238716,-8.93404706228881,-11.903066301042552,-4.316567899163253,-9.125178931503356,-22.471683936561856,-7.876850049010942,15.310522608597157,16.441874013897944,19.944455897304476,38.06020256059926,46.78519973729952,37.93461763226115,18.080912701131886,-8.885806802272247,-33.24760386688972,-40.92681411601829,-33.417162804576904,-33.17092488532769,-43.27443740175081,-49.16004773094572,-70.02689070263233,-103.90109337348214,-94.0725408563878,-0.2608985392942884,246.63390050684833,603.6965255579875,623.9657200938359,35.4276882178369,-534.2404552056247,-453.9834092614459,-105.30719617022298,-24.103220523588444,-64.43531791991659,-26.293475654910353,-11.147065690758204,-22.947251070845887,7.464428402183532,25.470153834677358,7.848471648055545,6.037225724072549,23.054385926372724,35.389496051202634,37.008983222997614,26.696130846342044,23.190760057889914,30.219532516936482,-0.7741050730455203,-64.90749258700342,-71.99631809462011,-26.317450089787258,-27.170751512894753,-53.41932239306991,-26.364843369798372,6.038379056478317,2.028531524322771,20.178136468053957,60.44545490064805,71.3229918763872,63.391576555592756,54.20452509567141,52.159291086231335,79.64744865319255,98.04026335759886,57.78929989327757,1.507353978098522,-30.71323659666027,-56.60990341209363,-70.46774292033378,-59.787704131241405,-45.04862884691017,-39.64011375130016,-40.78291624034905,-36.30226948976702,-15.896734991614203,-1.5892853166392271,-6.285878430085544,-3.078071852313909,7.797860518514354,2.6790309583719782,-1.9603920485475355,9.732734583235075,16.152457619436895,9.170630230566125,0.2179426522743655,-7.080771934002258,-0.45899349853774174,20.864626815700422,19.108056242744954,-7.609123694689992,-6.421881234346255,17.09332160606118,16.668154668863785,17.82270499070989,38.538978753041185,22.931550046881682,-21.71767610616686,-26.071963704427535,-8.699482220156794,-21.311474867149204,-39.75585463082545,-32.1387575539906,-9.38956409294622,8.599068155220102,7.425337906396557,-4.612105921393219,-9.588245219966433,-10.330711604554818,1.3088232229044285,27.84906479836656,31.46571595510586,17.235172030151382,22.75810169503565,18.52860536445151,-1.5465408254001258,11.416762960899655,24.539575008417764,3.4157640216428646,-9.809440097912354,-37.519838742318925,-77.5731590825673,-21.64258627183151,65.51795789171189,19.914081144022845,-55.50208213744167,-19.275649617226456,26.17952854439079,19.609882152581157,19.293971191412446,-4.209615803026448,-50.650517962324194,-43.537963071227274,-16.800311575264082,-21.728466935280714,-21.79506724988738,-18.815007928517858,-17.695681365939567,12.662573758284122,26.998969097416005,-3.4850438846839804,-9.383236270344314,12.252816692753552,-6.36065822070519,-56.48223055244547,-74.97754140374676,-47.28355303197013,-32.075017533497565,-67.55953214532886,-102.98777715178868,-100.0835279194937,-83.25500939113309,-52.08675464448661,96.75026278392164,474.2441808534763,777.8040250144853,421.88572855745156,-349.73654360703273,-568.898181207631,-189.25152911835863,4.571312278876237,-72.81849646073613,-49.01796167217104,1.4202566131000793,-27.50103012333414,-22.970289721698222,-11.494288933698972,-21.45691343011447,19.48114792750799,56.38446242379052,23.9456695460985,-9.273593629702493,-8.825956342213797,-11.80050861462683,-17.59212166091389,-1.5668114605835193,23.347768716000473,21.38068620362898,-5.15211989603264,-22.959743066411384,-24.22690191471262,-11.672870964959966,13.221980139999122,24.713343325883017,15.7609610809888,13.372158677153227,25.691877657303678,57.582264731318226,109.76051516571818,131.1225202076082,101.07460975332927,85.17235155603822,87.0741347388774,25.122539391045024,-66.93551658868432,-65.28552882342328,-3.0007195234902895,-9.98042398972033,-52.54977688888866,-28.373464795901125,-2.513934276057647,-64.47520726831587,-124.32121162223268,-83.82791263974588,-12.7211783253606,-2.3287447414501123,-27.536613486443997,-31.593334820351956,-16.288972363940612,-12.70694852520836,-18.98800123031475,-4.652751815857931,18.13656608233238,9.716935516890675,-1.813125921123106,20.619412357435948,27.72527254163305,-1.8731156065185353,-9.031058831293855,6.306139232731318,4.187077852746199,10.284641388793759,30.838028065820662,22.03624238595502,-1.862973759148824,-5.867480123645381,-5.03379811737579,0.6102950846462218,13.861097078663754,-9.768092272523054,-56.95801196708717,-49.768505547923525,-13.044700512907294,-22.354904033989136,-32.08081971980902,9.833861992138067,36.73952642257392,14.385862294621779,-2.8115014303314174,-1.4875193619443072,-1.505873410797903,3.0484228628190513,-0.4876266201227346,-18.10040348522124,-5.894990008630608,33.881349259399904,38.253468184537745,19.069028093223857,30.409576096297464,36.89678964778563,7.25199318691671,1.0858235447513476,25.646441140195172,12.612409480293952,-33.99906860850608,-53.57595550232167,-36.51206660468379,-29.31059772418705,-65.08112431316405,-101.20600469276636,-100.69096515441672,-107.68219312719769,-113.69027558509126,-27.67400937806225,212.77199870912727,575.759428810879,721.7514412251201,247.5271792596114,-442.10335507032426,-521.913455087273,-149.2697778411197,-42.30368187554228,-139.92341489528837,-75.33772907078442,9.219369819371167,-23.906629303832645,-35.58131497377515,-11.637359165144346,-18.261264284866485,-13.488315490544677,15.779949804579758,18.314607654084053,-4.192786446026,0.33289422613591046,34.28388656499766,38.164058216568556,2.284815053330015,-23.187276824681003,-24.3315954075329,-6.886690461608213,18.409334461572183,12.452219376883129,-2.084939061808086,27.800814837085433,42.954801899122884,4.068630079627088,2.4435771064523486,52.355944558543726,66.9791434487706,60.786579273184586,89.23144948159674,115.40803797958041,96.55009024812365,41.25047016623782,-24.64245500095703,-60.769921033725375,-60.67511914933074,-70.28413656823963,-88.49096981936289,-67.4716510112195,-26.315303258587324,-23.28584567941629,-48.84992391044877,-49.67003918313368,-13.84130361566522,17.083608052209538,11.048029902040433,-0.7018893083802169,15.789955669480351,25.416816584655404,8.03372453709093,7.037643030492121,15.203396439613007,-11.46271602206049,-31.590191565209725,-6.290482138745505,11.879321450887325,7.1596896576542,13.873872360076817,8.264957676321904,-15.392300062642954,-5.390311592263975,21.14750612845129,16.664256717805745,5.315164158194923,4.808062724438924,1.8044413674144755,4.6892366229647084,7.99754455204363,15.12559215202194,50.67811356316601,59.07105088226368,-9.747899437494292,-64.7884027446865,-45.862446834158185,-27.580341247006764,-44.92811872696622,-53.11731026161269,-33.70994292843157,-4.80423360305262,10.388038859722258,16.488990199653994,35.094792792543814,39.16661563292011,7.0186866384862245,-12.475804477208362,-1.2484009950920556,8.270857011829854,20.74116215084048,27.63335080201039,-3.750813472938443,-30.42752891156089,-9.548434828688098,8.519217967905927,-2.2044613530040866,-10.384051684239633,-20.04777291029318,-27.3205786659625,-0.37667269300564943,26.06258215519306,5.259180209830481,-20.44406575647443,-9.772898975570442,7.095995111468131,5.6457697609716435,-9.247797764168293,-36.099899381925134,-54.68654662813857,-45.4727155756876,-39.69355822956207,-52.89561431969956,-51.87826199823688,-52.1209353650494,-80.1118218499929,-81.78034770625868,4.782233350569314,250.88541479546655,614.2796477836548,637.9774716459463,22.48212741887737,-565.2014302984288,-442.662694555839,-65.84248509848521,-29.00312411360816,-104.17322149477164,-54.81374375607794,-27.57873011637126,-14.831587974295307,43.735725290186295,41.751870704209644,-0.27397781641696417,15.818733316585572,32.98616371245794,13.614212479434883,14.919870604650981,25.511555267758542,8.888218438621166,-5.559159749801944,1.3128138379503778,7.316285189154222,-1.6924677350132562,-11.851564020107643,2.654382773719039,25.940861530426062,19.27984789681885,18.93890284583056,62.75552604028209,75.2578196852533,19.29949319212827,-12.680023824671585,14.923531581960404,45.63221106442994,67.16917211354702,81.69914378993563,64.61309077344444,28.01259989677128,-3.033499821432483,-31.044734948002368,-51.73894261149684,-60.9001613553753,-71.27158842038374,-82.15869284283247,-74.00221294487174,-39.031231682779705,-5.459995893546374,-5.261432460704775,-16.365134320829007,-7.678906451239984,-1.232812531063896,-10.207802318676665,-10.115084264554312,2.7036106174935863,14.494405440283549,11.922313495832448,-12.316234365918245,-20.529461818222185,11.127514272673135,25.464647825179185,3.2679374378726305,2.1236582914549738,12.298229274117514,-14.388000824258892,-42.76870069243019,-37.143783070710654,-24.96716652375646,-11.063691890279012,11.987628712920383,11.620261335312778,-14.5658524800312,-23.703073206015013,-16.051872145433784,-17.42213562408472,-11.723833411134745,8.730471779230829,12.236669736490011,0.26358154848783055,2.109432635824568,7.108611132006242,1.136529962087523,2.8366664588411323,10.23248318085037,3.906642009002586,-5.739758131316018,-4.766905570956624,0.805625260607167,5.7104716239561935,5.513908201576437,0.6673784767143873,3.8217133183675163,13.413568237367922,15.509015694376089,17.26238711963865,30.924404212721562,43.44433905411581,42.76018352668064,46.5660975103142,64.82358734779027,63.458757199877276,17.498954751407,-33.37501138735297,-40.94252049644097,-25.919082911666052,-40.629949859034156,-77.03741727447692,-90.84398693657423,-93.79229086289448,-103.20222695355585,-87.71580918358933,-76.7366491131936,-117.49888997676794,-129.72781701661734,-24.109631589698466,236.95479486467406,612.0888584578324,692.9932095904685,125.53649173189446,-520.2752301357121,-500.83616598283174,-143.54373972673574,-49.20912125541028,-72.45317726738554,-3.88494156943856,15.35730369586004,-4.49894822317226,20.00919737259789,11.014946526213139,-15.866958066472527,9.999098260417975,18.75355725817003,-13.250703088533694,-10.322033319595512,10.981733141301323,-4.399465948998154,-26.00506772539743,-23.054302379821152,-16.91415866643952,-15.590024734234515,-9.274816505767483,-4.475147719865624,-4.940827823971633,0.06599355074584423,12.844623852972457,28.791445242433824,48.27133108240983,63.574471088785984,65.13663914032759,66.43088369769418,81.83747496165249,95.10075910713753,88.14112239121837,67.18098339087933,40.221904954868776,8.775031712401775,-24.469222764255306,-58.55788138686739,-78.34509275837209,-64.64268897316455,-44.1354040128062,-53.01218364337541,-62.46982739964889,-38.52384258569896,-15.24883349159155,-22.353400010284982,-29.25903177946857,-11.99750600007167,9.625143452224744,19.144071997816333,24.174178140311167,26.567809402615055,17.52937004162429,5.876783440968492,10.403965837043579,22.159570448796316,17.18062683439319,0.11640171255689147,-8.545088892442237,-8.097383267140877,0.4902432972003883,24.232874773072247,34.48514665800663,-7.04211895995379,-59.74352293481405,-54.49403191143884,-15.59983180356689,-9.925673888578537,-29.942655228480803,-25.100644737745476,8.865571950933337,24.78581753703085,-3.3990244860266117,-29.209310874889518,-10.030937670721071,9.945745898265882,-10.81886181931013,-28.480247733792496,-9.250720656860132,8.850796262815537,-1.0154582857400705,-15.701691790257703,-16.59524006479858,-6.21735407202223,14.267692638927336,30.981285541895655,22.080669967409918,6.4917318337346295,12.974752952856814,17.08563504018658,-2.0502186494300565,-21.27237538763596,-32.60846666800431,-40.79359098928391,-46.1547947428788,-61.36843013744758,-70.25034245921586,-63.62217483357181,-83.16014567934077,-97.68943467709933,-24.52641002187947,169.02551090090063,503.7213534984521,725.3934869028913,345.32444197140387,-389.5427876201056,-579.7379495868671,-201.19960238646962,-9.856748514261925,-78.08607481590484,-30.844673005476317,41.416779014736505,9.208940804924724,19.33594928874698,52.515443110019255,6.097157424470275,-25.716233797372794,3.438898730844918,-2.0465040283786493,-41.61113049598383,-42.4982011324854,-27.112808521913735,-36.450817828089434,-35.58625478788369,-9.38439364629567,3.7401864004567447,-0.5128622385071859,-3.2513513601837305,-4.835576429953547,7.089514315551128,39.06110842219703,66.80902073401889,77.72208992587758,67.80825430592863,38.58389302235052,27.46106741598287,45.938728825860856,53.132772009088555,47.23465859901322,44.756697934220895,15.592753281146514,-34.148413102313334,-53.00921119170631,-54.94350630137741,-75.31627170011149,-84.61291978198446,-66.88550589381877,-54.500837482455985,-45.4005018712118,-21.595951212023603,-9.18677183093763,-18.96611718940356,-20.32034296825509,-11.701710165590832,-8.112253282705602,3.919917458871139,17.050086093360818,7.035294314198763,-1.901642953969131,9.341706839181825,9.495248461874686,-1.3811952317468323,4.603680075784455,8.057168563936369,-4.589647329901844,-1.8173019394973986,15.462947584640704,13.92854774470551,-3.186063754577885,-12.041994797423767,-8.463327928634484,-2.804451509615875,-4.059209318783209,-4.893300114955393,5.977969895463508,14.669006745325254,4.944947757727404,-7.968740526279125,-5.8952223667217005,3.354723947906333,10.344726818918621,16.818419571787814,13.245431542036574,-8.099117053993044,-21.594793204721505,-8.26432166808951,1.1484412220062103,-14.89547948529929,-24.516575257809837,-9.59130325404358,0.4233076268507867,-5.668203746293916,-5.059023856183073,0.961998655597311,-2.624082136920449,1.7083696456657949,22.32417265175144,32.50629118572131,33.74639321122956,43.81544920940209,41.409183202252535,28.923018903721786,37.5800686577892,25.127581588432456,-43.28251552714292,-87.08274843874078,-67.03310575846064,-54.081758119428955,-64.99804036264898,-63.50643254605066,-58.502993680224144,-61.58465241515827,-73.24528638622643,-88.15320274109496,-69.00481513675928,27.583350262353008,279.29971590344286,626.5840800182589,603.03866911892,-24.85435248055505,-559.0827219422171,-405.09906688877686,-55.170036131128434,-23.462925334173654,-58.54762987941909,17.48654400576664,23.931162478296386,-23.207596959077982,-6.92602475677494,13.917304427001797,-0.3298395932413367,-5.02087014072252,4.561022147714597,10.417172690564609,0.4539202705460852,-25.694449700712394,-34.141117368078305,-13.423109237736877,-2.7161428396874903,-10.462210655328777,-7.891338867721991,-1.3894944939656528,-4.407761134963487,1.6099607027986718,9.574865101227802,2.647364125899429,18.276329843750155,63.982233592427036,72.5378871121755,38.52745360160237,33.438236703311944,62.45350701889643,71.98580912857166,56.571144068954,42.7876230079178,28.488599755098576,-0.7092380574405299,-34.413564894236195,-51.63946154311035,-54.990053196219655,-56.774502032564115,-49.99762945597216,-33.322494542507535,-29.041315715399712,-38.9834919523244,-34.107229641193896,-12.891208564813365,-1.9703231803148107,7.083315297983394,29.779827315561462,33.585271790069505,18.34538686564581,33.96334975964748,41.458106144080865,-22.835758564018455,-72.96811490521631,-37.96992238906476,-15.722437568142439,-45.388482757474584,-39.74906519154611,-6.491302389363348,-9.393161912335334,-15.354516252544581,4.046504541633603,11.576042300550599,1.2225537085698388,-5.781592745180106,-6.486141023893448,2.1686694263832287,10.81782438277634,0.028133680808981154,-13.986480239833124,-6.8673102672839255,9.566849143055816,21.11515004608971,23.15143595919314,2.133902554961404,-26.69952415240959,-24.212084615480908,-4.14126968771869,-6.426415058687496,-14.461503235161365,-0.07327388406749069,13.925760820651705,4.901429291513839,-10.307139329378172,-11.19994710448268,2.213021903209132,16.383456836124573,15.834146559899676,0.4618572632625608,-5.024477038721074,16.757924089368572,31.6099824742804,2.2722627172119925,-29.803269675324472,-17.31304199318886,2.8780457844116154,5.4249049257385735,16.575452725414877,13.949045039960552,-23.1018549201072,-40.85107593912034,-27.107575386563965,-28.3842226804992,-43.96051340576687,-52.76782313354218,-53.720537724101106,-54.05484502889172,-76.16466664649937,-104.74296148723597,-77.30311798825804,87.8116028621578,455.38402807848246,750.6154617112725,434.11094998023714,-305.7390726206559,-563.5441537878517,-220.1001011081071,-6.716249803145039,-66.80541891868975,-16.5256255004331,92.02289726666174,51.67550460656168,-25.89689188062757,-37.27757424638152,-35.00464893568156,-36.68192968254956,-32.104754438610634,-34.21450156461467,-40.28817291147324,-32.48002776238271,-13.219679046733596,-10.50359646295605,-23.473371879088653,-15.504777029786284,3.379010706573464,-2.3328074750362875,-11.362283443916873,-4.353558931930214,-7.493117511530926,-15.688816317573878,-2.506301286865547,14.152612810496642,22.234916963779938,48.18067081050142,82.8205342473604,83.19100667028152,61.39778250483202,63.61776462736785,78.87741643534372,64.60445136638928,22.646391857687227,-18.877707116950482,-45.68366518792959,-53.85077793605802,-53.230658711360775,-55.07430180239959,-49.41891263050121,-40.29877076482881,-51.29130918971971,-61.08335058242484,-32.75128062027335,3.12780703344022,3.44186236697605,-12.471376923349267,-16.40818734121072,-8.568644766516151,9.490463836729928,23.473141930465495,16.353769833330162,6.8874719543089356,5.534461684480642,-7.532324032518647,-16.40068593839602,2.1577853367622706,12.996440214452157,-2.3126405049265735,-10.866784016157633,-10.784441099202233,-13.372171174682945,-0.43975698320085543,13.740374867656607,-0.8911667677710469,-21.1970232383333,-20.00821161111729,-1.512104594424501,20.591450661108343,12.793243522877647,-21.340683212246454,-14.541791872748377,25.186179491164687,21.509772362143018,-0.9945063360155877,12.54046776721073,20.571660905937815,5.297903530573356,17.786546462507438,53.88709833755706,61.0553963065298,20.508937165680116,-39.112947256399714,-61.10294123658468,-36.46979783568011,-26.059731120422665,-44.02430072021129,-40.27576782453686,-12.150900750409939,3.1088290063990147,3.6760464793120207,4.335500908584818,3.311717047021684,-3.2375942863103866,-16.238630663873778,-32.29263704921141,-31.385258088470614,-14.607309675437959,-26.110079264580953,-60.578991954272134,-63.59335958835256,-57.571319548906075,-70.84272996554876,-46.16053870609268,65.97363016399224,328.26100920320386,652.8717186932365,546.6726747256287,-143.42419382210005,-618.436414189134,-382.04644849391525,-51.00175903024815,-47.77842332979956,-44.52499251961462,50.418094480351535,43.15587573394021,9.724511093888621,26.476220162680008,12.401463984982978,-2.228072030150936,22.155887227706316,24.56073732303144,4.314385637676079,-5.989037271394301,-16.747242455297478,-17.352040905093464,-11.305514247463814,-29.786535020695506,-39.437577612754126,-15.457122759765156,-17.543757961606335,-42.66870449035157,-16.83435938483838,28.138136771664055,24.097687651552217,14.279215081627015,35.93418871109803,48.328066034494654,50.16031321312476,69.59499795613644,85.57772401009612,82.16766995274104,74.21698253741306,58.043612493272036,28.396374628348905,2.002326949442044,-12.994629076529275,-22.484820747253796,-26.08410399483479,-20.661337110071322,-19.04279640585986,-42.68322126945607,-81.36952154123016,-97.99563808848544,-84.66144213582281,-60.430689196189704,-34.66868415334503,-14.569152883934812,-5.87179779477075,-5.694551225060053,-12.90848425539576,-12.343335392892703,10.776335470250089,26.51730590593675,13.754330724175059,3.6859954123079444,1.8081459776115771,-13.067396035164823,-11.711006727860365,25.172527722360865,42.16718755587422,10.256703514243705,-17.615116810849038,-9.350749026141361,0.07575153894659081,-9.39045283299475,-14.481513579193237,-9.230074198372874,-6.188572848019448,3.1542199175543493,15.888605128157177,4.248710331613918,-20.14022461459805,-17.76904532306282,0.6081116832888549,0.32738051699007276,-10.75423563772258,-10.927270677493528,-2.926496854222812,6.1729501455684375,12.918318659211456,9.955394528104227,-0.8781969177808562,-8.677085464479735,-9.554061222980252,-3.558023397211136,7.971603805617502,13.051086713298904,2.0211211194614136,-10.96225868931947,-6.5187923094994975,7.407475503063331,11.712654025082996,9.061809144901149,7.228296630571062,-0.19821469116471313,-7.803260037617643,0.7658597033445869,14.24676964733889,8.376675194948167,-7.560039400598919,-5.326440841864494,10.422512158838202,8.441680392962052,-7.984590838846831,-5.016959752041652,11.89407087084401,15.0355916299784,15.47773068370408,25.14315816118146,25.689222371269334,10.776773883875272,-6.3532652049186975,-7.936054430781702,2.4943886486020426,-12.58966750766314,-38.571079351100515,-30.54359074627775,-47.80979298643681,-119.13875144530121,-130.35405727648407,-14.97233056417987,253.46549594271158,598.2247080840159,553.569516401037,-89.24000691753463,-582.0128957286948,-375.8876545979914,-49.89637944238081,-64.61959430219022,-90.00385752685266,-2.323377984769621,-10.430939516523324,-30.389015318932426,35.843042524267766,46.6108997054902,-8.4801637544514,-18.600730550701577,-1.1173153827468125,2.964912340175503,9.63701317601571,10.042316353477924,-6.856744055429838,-18.142133601603952,-12.180587349424577,-4.953921253441427,-6.9318901652362435,-10.242465736976303,-12.221802009756614,-12.672325482015548,1.7398932025124871,22.615827944161605,26.33964713448261,28.49000057056962,41.450705601631036,45.74462958285042,58.78583909349791,91.79044911815342,88.18798219949866,44.53225219031553,31.080400830115078,41.59214398317689,25.495466311656642,-2.157852499397113,-24.44312146054003,-50.235895596910105,-59.626157850384764,-48.39661400091757,-44.27386291105421,-43.44922519895125,-36.26151473995161,-37.15776059790611,-34.77983764838493,-11.150146067594722,7.534835019599711,1.261581395930751,-4.390294034227328,4.592187182177707,6.1713268602795015,0.14347135314040238,11.37733867328433,22.50103346084995,3.1588491095993545,-15.33076439037996,-5.122874619980279,4.175136791010501,7.379534986412578,19.41037462283691,13.837592335598114,-6.000620788258555,1.2439780339541766,17.60102745369969,13.733542105754779,5.47350662846273,-14.220987327356786,-41.99054493518172,-26.420426594254945,14.992986983456017,17.77228961840708,9.1390512858522,26.80997421695576,26.544499975147083,3.1525995846896597,13.73265551923186,42.92196109427323,25.064031691468067,-28.20724275568589,-55.91330530595837,-49.41213950830226,-38.718303546426974,-31.717658361129082,-21.46105022781463,-13.893226855109775,-18.462805339676024,-24.052709694352068,-8.512040506909154,15.546450906835602,15.653224353327271,4.660107323020027,3.987514774717181,-4.7025266491220306,-13.024892004107349,3.7987992417660195,15.364701774635737,11.07296691868695,24.527171677704782,31.892153048615903,6.550104851092742,-6.383847610220398,6.171707903106725,10.036405905358226,6.440164036958787,1.2177943608897346,-9.095249713002477,-8.309997110691182,-2.711638915844917,-4.337116361046388,17.006087506020393,55.80806847084129,38.09725905943878,-55.0859873084637,-137.11844037050935,-139.3280175629551,-92.23237638656468,-50.42713252608901,-44.47621730118826,-84.1990729687406,-111.04543512403683,-57.56272407085761,104.18138557935603,432.2865975957387,722.6585746589946,443.6145023280478,-291.5218403313986,-579.6515515009733,-243.21331077051133,-21.793417742656935,-89.71179054140623,-53.50008636433077,43.1307041192638,6.020677740372335,-33.86351826484979,0.8410962904016106,19.93919593204548,13.692772509929467,16.401274684192725,23.620946115561512,26.98520217449053,23.849975550677165,14.607121065136077,-13.900272509284328,-62.831968143507936,-83.96711697497123,-62.95632080921957,-44.82088824610275,-29.137000905808797,3.005269261594431,14.86318357581181,-4.891171672214084,-12.05347024635467,5.930251611412089,27.94491652841546,42.41153678417822,43.99346536008751,46.26968540869896,68.39425985912004,87.04535604950748,77.67579916967836,63.55078780214927,51.22507547902524,14.237842149252787,-31.86608646900081,-52.74519775286487,-55.61665036444015,-51.38428725202978,-41.59101057863525,-43.185673814789254,-51.14567075199783,-43.61698504729227,-34.48882870552774,-35.81881119058791,-28.206535254742082,-14.046252554291119,-12.400931926476154,-11.601962395241097,5.771604462258027,24.295073336656525,20.053401837899038,6.287298252998183,10.574061128035478,12.443539750675972,-8.934697015025991,-10.665573333246938,12.751956377581294,-1.1922149183724393,-32.52652655621315,-12.602533830547138,18.204450244781327,5.5750345163767285,-6.624242367149964,8.746793944394142,19.024789684126887,15.810490962756536,12.462445026844817,12.669180521735473,11.626544399561563,-2.6006901785562784,-19.38555457020468,-16.825153416258182,-8.477306144526183,-3.8679615024759832,14.164226354276368,35.04826111475022,34.26218110516003,6.557898710522741,-43.53123302229221,-75.6121061830847,-52.63661418457245,-22.936269178620392,-30.886179302877363,-33.18654121137987,-4.101448637547675,25.801118789041794,40.85065581064232,34.49473018543475,9.664908840323498,2.2730448490134423,13.977930563005707,-2.627030281616367,-38.84568006934344,-40.022590948105965,-32.24239917203266,-69.12485511065825,-91.79069342853163,-58.41196784015046,-62.29574513432185,-112.21508103904931,-90.83290490520214,52.99492180151259,365.7673195832695,714.1457578211359,560.9981469796887,-174.0619729429286,-625.9524701818214,-372.2912612129169,-68.31696241263653,-79.36362830483259,-75.0186899617131,13.736312297857879,10.762995283123743,-9.027997807031204,21.058091675773117,21.844378575153343,12.327929481587045,32.517423251113094,22.20419519150072,-18.31579050839262,-13.043752311248728,16.748407892339127,0.5363319525017909,-26.238423334608726,-11.260182692540956,3.629322493624582,-9.102250693204896,-16.467146465894842,-6.845065709592625,15.517986575043857,36.1546189977228,24.469671699361335,15.025869136679379,59.87086296852438,99.17511539236108,73.13038237007223,40.52274758497861,46.26039864004579,59.671515906129486,70.28369615337138,75.4078247486075,42.587198541033935,-16.518542793334,-44.645895713976685,-36.93840573721572,-32.06321661190296,-33.773979443837355,-36.850529039851196,-63.46929899828253,-97.20386319006039,-84.13008798382822,-41.11322063752529,-31.9385392391456,-45.068724224840466,-33.00601195765589,-13.635962459520321,-13.50570662938473,-3.2125550336555904,26.858363182385695,32.95901161766594,7.937261741530299,-1.1097649181217824,16.33983876441665,23.1150302799376,10.336070629865949,2.1794119545078106,5.171032801021751,9.600380445520356,8.769036185247483,-3.1910500214060242,-17.338294318338356,-15.342128423914925,-7.122895386456898,-10.16508921434787,-11.888819099908304,-8.371539031544689,-13.706663407556013,-10.254078823370396,14.368323952352174,22.018106718223176,2.004212640724968,-5.807055975365843,2.082177818535088,3.5826403558819524,3.8937392073776937,-0.8586447076446306,-12.742925595087964,-4.152428478940284,10.179451426357982,-7.155111971829713,-20.86633076567075,2.0770618776742644,23.140748477572885,20.96418535252472,10.534098412649273,3.032566565587196,14.745667495263852,31.062373788386225,20.699821412442482,13.528829174033618,27.53313785097874,16.044683126333286,-10.808707893290304,-0.41605127756599725,19.396996216902483,7.346278359601891,-20.31700516987565,-57.38144860933616,-88.39075309705865,-68.96154578232188,-38.579145384011824,-62.820136401960454,-84.07460798943421,-72.25668776091695,-97.51564268876281,-109.69427524699137,-19.25832957475197,163.54118517497471,485.01306555650683,742.337317658858,389.83262123465886,-367.94926511444163,-556.4747298107004,-146.8433982435978,6.134408222317571,-143.94301062720228,-105.23725400256325,12.425305747888757,-13.868669998926855,-25.061606722080526,26.429413237187184,26.523017062976535,-3.387143609883884,-20.71290241551059,-38.572600266852554,-42.76152663924228,-28.78987484119498,-10.306250963439707,11.654626727865438,21.577829673140748,8.013347260763613,-9.75844812787541,-14.31306873014282,-4.448053633247012,6.992545590122984,-0.9196362591349931,-16.56527678321121,-1.3310303959545209,36.85979622941062,53.63070378979684,54.97539598124621,72.28344757126423,83.99323838123732,68.10151463814535,56.589234839897436,62.82095553244775,55.1754214362433,23.114013314157418,-8.833825670208189,-21.78592418801101,-29.651925252782227,-48.5213296038403,-51.066260673165445,-29.671412222107683,-32.64542747613095,-49.07005483127978,-29.821204347959632,-20.87011570279816,-54.544374971270614,-54.4897859112811,-9.009884372056632,1.7373970710511202,-19.857592027080145,-12.998934428305553,13.915326066604393,15.877872110889774,-4.2510106138631345,-5.437549681397238,16.51531253288575,21.186510302889246,5.146108145198692,-2.9058889282729,-7.404178161458649,-12.338362988876897,-8.044218815452652,-7.1192858927885565,-1.5112785255187937,22.78392470565804,28.341803362610644,12.855286031723711,18.374195653962904,17.9380319713827,-9.429210525115158,-9.998375481175557,18.167638711953032,31.16034156874517,31.112871470749386,23.109865420968035,17.933660034224214,32.86934041567352,15.40794386112011,-51.99968474134124,-71.87336702675721,-30.792005675097094,-24.915054073465488,-43.91082057227888,-21.51107086670742,-3.2339896430432233,-32.54884936873511,-36.33631620553359,21.166520557973193,45.15897774992406,-7.217761641934832,-36.46294522855628,-3.69736626226275,3.1056115129587525,-26.33442593775061,-16.204773748162296,21.4136423803273,31.74792215491292,23.914947524479608,19.287285634681922,23.26176501755975,31.068203324196656,16.426421101589284,-9.841230192020657,-9.67518602735892,-7.6760880358392045,-30.70590980102119,-44.73872429813997,-41.388371269063754,-50.415844940442355,-72.52510778053436,-86.26141968413773,-71.15268548935222,30.518948480507134,311.43580705723605,623.4884306069573,475.80243625662274,-187.34496354288137,-592.8072557650225,-344.60080186514847,-37.339008518685176,-40.279320202704405,-51.48806367849676,16.731560494666418,4.616265150822926,-21.383103825711416,7.145214367006789,25.243058275694015,25.17861617872427,14.033194984338296,-9.169077222370582,-9.04944484319849,-1.0203324165478298,-5.991575911675312,18.85553616223757,52.2230207015224,26.62714868161854,-20.921427882169795,-34.90352593230945,-40.39203614939076,-35.62560142344073,4.259287138847569,33.08607591213677,30.63551554231575,43.025399991888605,59.71482334817385,61.59516057207596,78.66163627429982,74.82848663639122,26.31286560839344,20.787699813706606,49.133913722577574,14.60685857204261,-23.83159951226787,-2.432545811845599,-13.294108145077967,-67.55291034552643,-73.45133837740504,-52.48238136910937,-56.61750867965795,-53.88791716862663,-36.04392603319685,-24.937449712873338,-6.869803893032014,12.086782642080356,6.189428136904793,-0.8382909236381799,10.39496073933304,5.135975967077467,-16.18555958817915,-11.169664473655576,2.112295256569118,-3.127641586150021,7.455278344340103,24.190546316781337,8.339004507733582,1.6552716157913632,14.761766226731272,-7.566095720421609,-32.413795616672815,-16.751572559897266,-4.860929659530825,5.249313887034127,25.31321552337325,-0.35808757653156675,-37.51916429529564,-10.454337917303944,21.948948527223727,9.409311708995764,2.3100226049597863,12.460432890821586,15.735589403739686,4.720548248864579,-25.185004918949492,-31.36526742366081,16.265766240168706,47.663505081190095,24.568688453954607,1.9527309888366444,0.2535304838470327,-0.11191676017948682,-4.550095380420622,-20.52886327782796,-25.430532612811007,10.031661742845632,36.41422117238055,11.962663128992656,-13.534726075947674,-17.28088017987775,-27.92201389993057,-17.317914779976753,30.034426207732704,38.86180155052216,-4.353209102679437,-11.83197843242103,17.057819347468083,12.27319514232357,4.555482566105658,33.06294830429677,25.933068800126755,-31.74784237435378,-43.274682819035284,-4.843589827989394,5.411232043853522,-10.478921316091428,-42.1858723913196,-103.25664252202755,-121.15037582330748,-37.50323038319668,145.71423768963155,436.9547788890709,580.7535603413534,194.41947698853937,-398.776826837643,-483.2997302331295,-171.4308290341582,-35.057367221443606,-45.472035416124655,11.973075949680712,21.759261071829357,-19.017066083442913,14.354421093101438,42.201315374496986,3.5583855434947544,-18.701903364006657,-15.686228062430459,-25.69769253366472,-32.503002511842446,-21.5390519688222,0.1560774971054606,7.589759140079025,-13.196049169232642,-19.95080084285331,-3.0981778986594533,-15.285028222100296,-36.052308679114134,-13.390728149765406,9.216463478994388,5.707485856470585,23.964533805053325,43.771287183475614,22.685109854105626,19.243590005064945,64.49678066883936,86.24183601345177,59.12926043067454,30.037513591293703,17.373301164146035,21.877584928532517,33.46391565481882,9.084722189706495,-42.24176305538276,-54.902004926523944,-38.028138899327246,-41.443905906066924,-43.44491682251054,-24.772600828171505,-20.22632463653786,-33.379901407267376,-35.59026119682488,-18.740710652239066,5.676515219228978,8.549176400011712,-12.619234153003074,-12.414530064774537,13.360555263508887,30.02497144344757,37.443097746245144,26.77517916666623,-1.2775703664460507,9.065000068629255,41.840166288694526,33.147460993488735,30.795987090921727,53.0532342560394,12.12757646543377,-52.440243016220904,-40.47080532469543,-16.813054251428042,-41.75118460253402,-57.14087892146008,-50.914429344858604,-34.76191123250418,8.082556196967019,25.39467021321324,-11.323407156455335,-22.76637452317321,7.80066482174882,21.766553640382252,20.607133380708245,10.22429085500451,-21.585816088467908,-31.10912277276796,-7.156372732488528,-5.939995142412105,-19.179396521151844,-9.047202800172581,-5.0707201516480875,-11.711025633739833,5.168821998895172,11.904375787187726,-13.511029867713075,-7.9557106981063574,27.6817214758044,19.75838908984243,-6.634199166211253,7.847718711268734,22.63972865406291,12.319584019732979,9.440330911572755,-7.5742512182968005,-45.31564544471959,-45.404551623735614,-24.420604347503335,-37.73724439599671,-61.92764969954228,-75.73458610439775,-77.01438980961761,-36.78579409115016,69.2671647887145,303.33944430618214,575.8538214028466,452.1375411556958,-147.21208009287503,-521.2508876959436,-316.1466337276073,-67.03685359261624,-66.04166439956661,-39.49887933258716,36.98855338366606,5.1488722056927685,-33.46739289641799,-1.8893168296179175,7.47323306897966,-8.575303854109244,8.1446268828001,29.282885633605293,15.63203695264165,-1.5765864346769471,12.380823576349297,28.239080780181794,15.555971851905559,0.9339897238547099,10.44833971765506,31.051956997548196,22.331874920561432,-42.58239737407209,-96.80235860838918,-59.7128628612671,2.2568804285395014,0.04599514759109802,-15.403780847632852,10.342870353246756,43.9350334040549,63.367429041133484,66.10258348431177,41.7854860174143,16.606398557754112,21.557708019205375,30.443334835621343,3.3133008817970833,-48.40009322669747,-74.54496294768622,-57.36468697773513,-37.92793931885072,-38.79641173191692,-32.15198901657399,-19.17653956628267,-24.063524176050656,-24.013052938466092,-8.018509825705403,-10.160130777487044,-15.423929423750693,9.4181206129532,23.21101769012672,4.581717779951543,0.8171783859740991,7.053369915972549,-10.054910812383811,-12.806721721245589,14.554538844874907,14.815837520892943,-15.407224156017662,-18.79383079724343,4.261514546328679,8.648720251095604,-9.166828889698555,-19.74355755122462,-10.002833158820279,10.366781975288,21.331300219709192,9.751486906092927,-10.366498711253147,-18.52612679178882,-19.094567847681045,-14.005501127733313,4.625941733486368,13.145025993986936,-3.363406620632677,-7.567421404129433,6.378463816111424,0.19388367486896518,-11.552916802213721,-3.1768041396735973,-2.9742091062488596,-6.082630243156116,23.267211330932387,49.901595234251324,31.091277349129676,3.770083384110812,6.909985580623553,19.55489605949539,9.497629968128926,-10.448607894746562,1.909878495283916,22.502832653688152,-31.193587270114897,-121.25791640687513,-115.5395878105223,-53.69291117435333,-78.4398816986699,-141.44646651831417,-117.29803933571537,33.28082966736001,368.2426892090415,691.8528086614424,468.88146089164087,-234.3212261759727,-580.9046112621485,-336.1159872297827,-90.47948899220901,-48.840951033233054,1.800754190529183,28.181798132960672,2.923399342361119,35.087727128542014,54.167200889346645,9.257999905121629,9.861371120980094,38.6083446956493,17.631726289035935,-5.325468332210481,-7.528009898078597,-17.306493760260658,-14.414402009683492,-7.974360361394188,-29.256596532335323,-38.78334536806133,-15.555153743835742,-8.947560320028716,-23.224738055938026,-14.963528556340849,8.938493342719296,19.618190580985505,27.895931162847354,43.81431376066383,50.764280415809225,47.8697292037835,48.60818390032188,48.356637301894665,49.215048254152066,60.82287581999313,51.96168406476064,3.7749071334981688,-29.562889091943426,-28.065075314249306,-43.86685102973957,-68.52332340984474,-52.6983465943086,-25.931591779132958,-31.16978374077356,-47.70915940218899,-44.9300459924432,-16.87995005504694,6.562860849591088,-10.895657458790684,-30.431332533243584,-4.415890943879506,19.246810236381155,6.221740999365876,1.0403664583673504,13.433438859010367,14.638130696293121,6.445904752684927,1.9338895954181288,15.92949989906126,36.281950061648644,7.174240740594346,-48.00825295524255,-32.757218400051265,25.787391456768223,28.292326649315534,-1.786100289837191,-2.2221150104199374,9.343452845478804,23.30914745853516,48.51506546297952,37.41324223961037,-25.94138233214442,-58.91646893882048,-29.366639390002955,-15.588467009674087,-40.881773490737615,-42.91798624524141,-21.57589470079061,-21.91219396790781,-29.431785691674932,-21.353192765916702,-9.447998068337267,8.49971126893116,27.704135864871702,20.088018241821484,-0.8951094216795843,4.650643980331203,25.65523172304649,19.157331035692696,-20.11885996155405,-51.345019600434355,-51.09625386968009,-50.62623819412369,-59.50155842518393,-46.49371581197714,-41.13140617212298,-73.15824026034349,-70.51701715593276,25.76210076207954,246.59452136132668,554.2980676888006,572.020830583252,19.341725800528877,-532.6390497606352,-439.6876598635693,-77.61671394827941,-7.106857034060885,-44.81970274893407,26.630295438129902,38.84632213342404,-24.013276788910314,-21.38083764185382,18.088341814285503,23.766415489843254,7.578270167320898,-2.6770871251129247,7.263622942042171,13.659943194201746,-2.5525655674336587,-5.922001079334868,9.478471085378633,9.57769313660199,6.636071426796164,19.52949887462382,21.46995319247879,-2.7602597748141715,-26.167283989578262,-15.443427149989773,19.731192861283613,31.49999575587217,22.18378770663676,40.42363234333554,69.21183409215621,66.4485398575952,62.055513317397725,76.75257830292821,76.96637285552231,60.766064464568174,43.89024632899817,15.806291817930266,-21.88295530241067,-67.74414593502931,-119.636604782849,-132.74010226608362,-100.05921209979275,-77.68572217580524,-61.47563379659501,-30.620974276522972,-32.462061068756384,-53.52457428912025,-29.169489998005066,-3.4048510607681806,-18.91237936592993,-10.95747306555712,23.605419764793105,20.377980064814064,5.306839514477941,15.520188834008295,14.317223265351476,-0.21641206335576513,-3.5065425366127627,-16.5119418158572,-25.189547287179135,8.680589817981591,35.23589424484358,8.40387709652036,-16.34935814044442,-6.171550761905978,4.67045110811766,9.068036818079639,8.654861687545042,-10.722152710556108,-23.206631581989207,-7.092869947899523,4.312612699270593,-2.177547515392747,-7.333031701308633,-14.429546199868055,-14.88167588076375,5.930676012107421,7.6617433636755505,-22.317991059987513,-19.372739116671976,15.47991653924403,16.65489326580269,5.50591435042058,17.15001813358274,8.470985753449309,-11.023697910351274,7.574530983770535,17.93971905348221,-9.956792425177742,-13.10292937237442,13.378289600243324,16.13789601505681,-0.8390355503728506,-10.159623160995011,-6.5514664743614865,-7.693806841557404,-36.94984461171164,-53.672937042950416,-22.412210894602566,-10.647665579730663,-40.17650395201045,-51.665457127750685,-55.701345768857166,-57.61560371356988,-3.1652902239228666,150.71477861555888,450.05915532018616,663.0415329245907,297.6101101144254,-427.9961153435964,-624.7345093585066,-243.71796199912274,-28.856387437576984,-81.99111415271805,-44.515169644128676,23.58142285895886,3.3931933760567894,11.496472374358941,42.38439710649705,27.61150369232557,10.822285210369236,1.5357345874267843,-9.64726781722486,5.480716935733756,17.39739051360006,3.3666287279422304,4.7646277315797745,7.63033512690826,-16.244013194396345,-11.214905838155895,29.047212156802445,25.19759108838734,-12.05661710422839,-15.07420558034755,-8.8102755810616,-11.280433217361923,28.132662606735064,76.08180358065772,65.77484226275777,54.99983591306864,82.39271535553797,76.59021331086186,44.60241570457829,51.57556032212703,49.65100456347963,-5.611938312878469,-42.39462423328681,-27.786058928304836,-25.568954990055452,-57.97608338214409,-72.90064743146209,-48.210558163436374,-25.41724703417264,-31.178164491452083,-42.971849563872794,-43.47633335170407,-37.90073929692277,-29.926619201593876,-21.127105071747245,-6.181863700852748,14.427760975855225,15.805155734157793,-2.982969183421133,-7.041153605368942,5.309569295114431,9.725422258250532,3.705812712911282,-11.01461556820787,-22.73206359702934,-6.4831730006513615,13.619057887482542,-6.790741425166187,-34.565993351532065,-17.683283032656313,9.890732792169153,5.22605859524942,2.35874216767143,17.793279222365648,7.766831327526682,-12.088652434135842,10.380706658583474,32.5292523691884,20.066273078192015,33.739278901226015,47.592242576402086,-23.774428408161093,-93.62242707255724,-58.2228432006476,-9.3578020633052,-15.286207664091595,-14.353197118401136,-8.755254977792433,-27.083429294170784,-14.886635136388042,25.3438428272843,18.306255254546997,-17.89609711768164,-16.89365900778915,-0.28955966535730404,-10.137728149832265,-18.83647921008234,-4.918605040553062,-2.112143292225296,-11.464883606794332,3.1524649705984595,21.05762089313481,15.711041654628207,19.277729180676822,23.16257838717333,-8.690431114025536,-29.07238084610679,-8.625497304043131,-4.197324879658844,-27.818654294252624,-48.56037518356953,-59.14178637394163,-42.97421544778319,-29.06985630405137,-68.31486857661424,-97.2616267594383,-34.88889336359247,170.41507314134583,534.7079918378871,681.5122298916533,168.9487167340256,-499.5569883296958,-495.05967637028266,-107.76449089064863,-28.541098248318846,-99.86437222394693,-23.76296920993027,22.587385540719787,-6.534291232572933,11.137152660410244,16.298198045226762,-4.380580716857459,15.029513452294474,19.94734006311051,-4.516860652810102,1.450221688424839,3.2368792153338246,-22.65919945772007,-15.810610665565006,18.08022961580321,18.193023115674272,-8.219411840746371,-13.257359832011456,6.855031629459603,19.768402301441817,27.25465743641476,48.43521658227069,53.32827519606994,45.32229830870192,87.21739665940683,121.7822179351684,50.435930491188344,-17.949197706475527,24.645204273974905,55.454718798543595,5.76697870427666,-23.703838892298524,-20.121241823945482,-36.510215895539325,-52.71895479073458,-64.49055197820752,-86.63882255233455,-89.52292582705215,-62.924133735568404,-29.78702223409391,-19.022137138639593,-46.93111282110266,-56.82678191953508,-6.309749146181062,23.67610660032913,-11.151562160364573,-29.161660083822902,4.9236491647836615,26.28274857235886,-4.1083271508365335,-29.92266197288958,13.560825185620917,59.819444274218434,21.566392313802485,-16.33631019547268,15.60576134165576,11.125093741535377,-49.20630390884725,-42.5456694047452,15.133125549110883,13.621725946967487,-20.30995576163446,-7.420841473912352,23.26234402246886,0.7738706709263852,-54.80733933629135,-54.7836942459883,-1.218159930341308,7.6098330602311055,-23.64460173999403,-2.7473139143232475,35.36096874968508,3.820933808487954,-40.68590946478263,-22.068957247696567,11.444723760954453,10.590037165059275,-1.8499047366631096,-10.426794849691312,-13.752810176620873,3.3927837336239337,30.9540051792741,34.8985087318599,15.575086548574902,0.5820364548099897,-1.9853044442168368,2.5939990507902744,1.2109375602341856,-24.30280538963053,-50.25326745278349,-46.85973857620523,-45.1586612619128,-53.592870099934004,-45.809414456954144,-56.900990576803466,-85.643894197093,-44.03909932180724,118.86088847990374,422.22389325395085,694.0585060140056,481.00310762356963,-206.7878501902567,-604.2718492840262,-380.22826225662993,-96.90513278396574,-77.91808869952825,-68.72966137918613,3.2570137078024928,-0.3483153854980685,-22.08378604723093,10.735322532565437,22.625956069386078,7.669536979357378,26.236946560479492,30.699783851806377,-11.584346285954535,-8.321129048138467,46.43247514140689,37.262031018222864,-18.9003475379747,-15.725604552291273,14.761443719414917,3.2753737717918643,-11.697631543998138,-1.5640154349640003,1.735454143272925,2.423418699296949,28.40639569004201,62.07226319693363,64.61892831296085,35.28376934538236,18.72073952418438,45.18206282997837,81.38431533921089,81.9332022444582,51.08792779837491,11.014775850900055,-30.66661369460649,-61.72355317788508,-71.36767580988311,-66.57248831242657,-54.13509059244123,-37.95939521904086,-35.543481812589256,-55.32208630406456,-63.93507195781555,-29.50668241096045,8.723678542648978,-4.331222426185768,-35.657881478646274,-27.960754618873487,-4.100008272165211,7.2653676517846515,28.163335256138122,38.475624938218544,-2.590591982675914,-37.6933962248886,-3.73600995904013,33.99103541444609,15.824901124130536,-0.5198332123902145,11.297987880736384,3.2936137772606044,-7.494728115696894,10.306976390426936,5.798377032441023,-25.341653515975192,-22.027980202222906,-8.961443634756197,-22.92719424884105,-10.178978989830004,27.387837604390207,20.25050938853486,-4.606524138188579,11.929208079543084,45.752520764681364,67.26210512739087,59.57521744495738,-5.478943895543459,-80.82455351155967,-82.27196887623207,-28.335701660486098,4.551703977745927,-7.498977921544368,-28.54890588109667,-11.591110912209533,23.152318137206954,19.0045766971478,-1.056907912817728,-4.937960710253858,-26.70991560248967,-44.10934338417454,-12.51233406762247,4.5211795449056655,-25.406345597213132,-28.39241337987488,1.9143044107141334,10.199559971029174,12.069684686443406,34.71884569453525,45.00568039729449,16.26111333111535,-24.26508498072823,-41.74810774869352,-41.81640144939655,-40.25115436725294,-33.573973555366514,-28.578485594035303,-39.08210449905647,-63.06376071891616,-80.66993927474014,-61.467674547481266,-3.733737607798119,135.00137977644445,433.515208637599,624.7504842571009,254.11980403644947,-383.4681082949656,-507.46274945865434,-173.04088451328454,-4.51484646501741,-40.824936455773624,-20.657822155599483,16.15573201792356,22.179291161907692,38.369110017439,25.978796032441416,3.903199724625935,18.16950348399094,20.95511884214519,8.472077495584061,16.153858876528737,12.560984660322383,-10.20737003611324,-16.952687274896764,-9.700220878603456,-5.785891544571671,-13.18219743069126,-29.060047113951594,-34.8500331248847,-27.305543301722107,-9.32540765930054,19.4756500229663,32.2940336361723,28.40521821977734,51.64828856810553,92.75393702129661,109.22202429680378,99.01323618387919,58.78684391923257,3.0532973461059036,-6.801620151338076,18.05977852279605,0.9499048149604388,-41.365123463849635,-54.12506468937025,-72.3461786599448,-111.33799791395099,-101.64487488362502,-46.08697148951132,-31.123988407609005,-52.746777205505225,-41.18918112600463,-8.953852350003345,-3.6612288234842048,-11.483906746311602,-4.1557357740935785,9.88130255178455,8.338440361999643,-8.57571539040798,-12.658189840610024,1.6770106737876347,3.3661043059460294,-7.198033869958062,0.6346941379813291,18.8632943584798,20.076153950208514,11.69652989562444,8.775056753043007,-3.1483179636579717,-24.32173794327013,-14.682926005648167,18.42385582387343,8.939875232700885,-26.324639864515497,-12.883796696212045,17.24242597871607,4.197696836621677,-8.672127055680251,7.018094564133704,6.992028202826746,-8.090079165146934,-6.484792588019244,-3.91788687259292,-11.724319521195302,-10.644050007207452,-0.8568695045584516,10.306293310775988,21.544261920164715,9.658327607364678,-23.241453888887314,-24.312598328711132,6.174382217933929,8.807266041105796,-10.075459178214967,-6.442097268061323,0.6792645209844528,-11.85639737195196,-17.96664927589426,-5.111779516047407,8.612904360572422,12.815703892282936,17.00133632752879,33.72945776995537,42.036317760992446,17.059569431108578,-3.6013433185519315,6.131852601869209,-0.8099284375121414,-26.61385592911873,-27.610205195349476,-31.03563758024855,-48.0595059617592,-38.84208561467889,-54.35045296010879,-133.1592798969283,-156.70127397536018,9.114462266800786,381.74111128587106,694.6812304370683,454.56678681589943,-249.43861711827887,-590.3201725725504,-311.41896374222415,-46.666078336493754,-59.58431351437093,-53.5682574882453,14.508232613487486,28.363685846881275,36.549813139820074,38.750101140446894,3.0089775609076845,-7.516041856219128,10.781538906467608,5.691797371125965,-4.081965371074336,3.3606854909230606,-0.4326488719073911,-26.115121224399783,-39.37776699151494,-17.526421170341997,3.732070780759062,-8.3553910688669,-22.608824361355804,-15.92735505449917,-12.720536312803189,-13.812604694739006,2.0400943667967244,21.74202107329617,27.058042691851938,30.737250898983234,45.729326213739185,67.26062901138526,87.25268226759559,93.32815905164225,69.31615615160031,22.807886930516247,-8.086173964303129,-9.442255950014676,-21.52751948549428,-60.35598723019472,-76.58893258228132,-61.12486330250373,-65.14508025978058,-71.11245085344734,-31.2771671214839,1.1416118682631762,-15.786251198933702,-16.993641971524326,11.235025051672386,10.879792285898725,2.291506517800822,22.86975176100449,35.81972807168251,28.06226190713383,23.85904652830793,22.355028301079205,31.752645187793338,41.47821142415745,0.9735787509792679,-60.26728311133657,-66.54774042155555,-44.77471580757107,-40.886329429216275,-31.897331250642488,-21.278269466077358,-27.040291177002988,-19.883075367058872,1.1332001461999965,1.3898210420005945,-11.717903852429387,-11.091143328589293,2.2455649429185316,7.24441352083708,-3.2749339951960916,-2.638967619682174,15.838610180759929,15.024507282058586,-6.98086308947544,-14.271545478147724,-1.8449341423203398,14.18345680295572,15.670931514269558,-3.8929130551242763,-8.6169401555429,16.45889139397171,21.20945703877302,-6.460566366940263,-19.307975298570764,-14.578231888634207,-16.742317082361176,-8.982965951404886,9.401599415111036,2.5008686882021887,-12.4733783917837,8.46917218976423,35.253693542746305,27.702219163545923,10.94469417546643,0.45049676783860493,-16.266950602694696,-30.624212290856317,-37.21576287345839,-37.071056188581096,-31.157858655288834,-39.29678496560177,-53.356251740309595,-57.05137141804744,-81.16142433465886,-103.91762668187407,-37.83788703193281,178.37678069641987,524.7224034815656,673.2932071808784,217.9869467534163,-451.0115002627118,-512.0737226730646,-111.54931706891321,29.19081546517513,-48.72156370901674,5.62905810980504,49.95227335683026,-20.997291167364885,-34.86736440323569,0.9028487358564936,-9.118748065992005,-11.633098629769778,15.287823683478175,25.082217740468167,17.16998300424083,3.31210631276946,-9.137373145506672,-11.325293217782768,-10.987243708668062,-2.76065274294786,5.561799035343773,-18.288905890991565,-39.2295521156786,-14.87618367408556,-1.794077715089582,-20.16539411465035,-9.531560006206925,11.42901252774664,0.3145611276368512,6.259938360349171,44.56588792258782,63.40757212379841,65.64222815353146,72.84001421069979,65.52672026420079,42.63316151412231,16.988280848517803,-19.36921246796336,-60.37988562873585,-85.06217651582358,-84.8960431511396,-64.77638852793633,-47.30830903457357,-45.54599481271709,-39.44942383916801,-23.819141522799825,-14.311998033747653,-3.851322845005514,8.822115791084466,7.859166069084283,4.282669092536407,5.0723078383950195,-7.821761462445144,-18.368488336893577,-0.8787876067662248,18.097724029429283,12.103116807898083,-3.539854899733628,-11.465853786476831,-5.3620965013422754,10.916628496140161,15.845978313513834,0.07730793377662337,-15.895698469266165,-8.452158392697385,21.376328818156516,38.37124281122116,15.052480119666981,-17.08865638653959,-16.510013323899088,4.912637564234611,18.524440382176362,13.203446122477555,-12.485189484647197,-36.07248151690388,-31.726224122580096,-16.21084894807924,-14.511658239157217,-15.371206967254334,-5.9259115614296265,1.6501947008623112,0.35355097135605185,4.265140305637763,17.55890592922254,20.04980078393987,9.919103470229993,11.373321591410047,20.74236318952239,25.36607527393748,40.510392262200114,41.357187919955265,-14.833693277178508,-67.9400289681118,-52.00385816905569,-28.43213826661986,-41.05350831514396,-37.806997748196565,-12.757102424184751,1.0018013373886436,17.081348505587943,35.639282245382695,32.710979968889404,11.472376064920528,-14.418002114545406,-15.294845425778583,15.749453258571968,-4.611118119533028,-101.3127678105743,-138.70831352749286,-70.09544236558554,-36.861723342012226,-72.10243421485913,-58.39685179357083,8.690111472724396,143.88195084087795,470.8633281550704,706.7635408904978,313.6531640590672,-398.52774159346524,-559.052025792629,-212.0339453860401,-37.41275907488292,-75.67247931698314,-32.89575011675322,18.240373144395456,-6.00200585047353,-10.76490640648677,3.9570213079721688,7.359504813269556,19.444854329618593,16.744064537137447,-0.38771503162122034,4.094571192816829,1.7596859506300824,-25.5755472587476,-27.87971651713619,3.583708953740927,22.156277460650454,13.812570259589632,-8.049907195091944,-39.99238030105471,-65.4981948305126,-54.26941459177848,-12.57724022017542,19.09917476983659,30.998819215949432,42.525301221737436,45.94306451839999,35.818416489866294,46.91629792500936,78.62476178289005,79.43326252296991,54.36619331327108,46.07536682488551,27.555050911647754,-25.92430792281783,-51.636572506534286,-27.840469681445974,-27.100788766067026,-56.77945102373988,-50.11319650079132,-16.959075240728183,-5.034580703211141,0.38377169978321213,10.765279051795936,10.834797065253465,9.158765466603406,-6.172355440966879,-53.24379332845672,-74.74929483241394,-36.5414271483656,-12.993969689404299,-35.4524052212881,-36.338431497180395,-5.1296177133312675,2.9075736336134277,-7.379521711148255,-2.7309937458905296,0.5608647510865659,-8.200235344459173,-6.431729218032341,0.8358737266622089,-4.744020405017556,-6.37481119728219,1.0095742654644706,-6.836353412657331,-10.423941179260625,20.041527090859113,30.15107054043075,-15.405516145051427,-27.614156282609436,25.035049154845147,27.33639299300603,-30.925603149428223,-21.199096878910996,32.2657256411905,4.778716350838618,-48.21015024102178,-23.889196533983124,17.43094585034517,14.291526618706055,9.266264694499496,27.474771376368484,48.413694244705724,38.934383117077836,-12.734948493747977,-44.35862154595756,-23.632572814073782,-22.844239622535238,-51.84092057968843,-43.82663713003969,-25.870175295664453,-44.14189090877491,-58.82404792054328,-65.56653756732916,-95.39469454977791,-111.86454257744926,-75.95400673537175,70.46996954241132,417.4433841969046,729.7966401512128,493.86715817249467,-200.66157676350713,-574.2295029053695,-358.6125852233368,-87.86066005508292,-50.83104511711062,-31.095805512051083,38.91156620377834,42.802351145072286,11.846858666012547,12.222417805977534,22.593608652829623,37.617420185866685,47.88240969297303,14.986866558463202,-28.750516718260563,-26.616110228155254,-9.015186930489433,-12.864070245108215,-9.304076906747467,18.05386331960326,34.72924541537079,0.3057425915777223,-67.35179057936875,-85.67402529858984,-38.31377927053124,-6.799062018494061,-5.062748799688583,12.895556267495756,31.19758086208352,47.281171199517544,80.63413586463889,80.3513931668874,45.24646082321317,54.349894396401325,76.62552514100665,38.98773567257525,-5.297177649384053,-5.890925157656881,-9.418624693296291,-47.71658746385369,-94.31441292016247,-103.46105042963575,-65.7940921316352,-32.699731659123515,-25.532816528375584,-12.255789390887884,4.701612906490283,12.44145843056171,14.11690993595911,-12.033924771460804,-46.460998735557794,-34.011131434926966,-6.312986141568635,-2.8382304682759845,15.829868042264112,35.15085625605207,1.4597080860250564,-32.68461548869109,-11.772732367750143,7.793995405842699,-10.056604653011622,-19.275536226377138,-0.11889219932883455,20.946993035549035,22.170097197305118,-1.2871978708540173,-13.316023708930853,19.79131100505514,39.082183583656324,-4.343606656883265,-34.387579176109305,-10.073344589025089,-3.492605199365351,-19.936708210787224,-5.639411856646142,4.009725036433532,-18.09934016191184,-12.131016521820733,18.604330652445416,7.230188448731568,-22.734871285155855,-13.443350105728008,10.783948587474201,17.039060612460453,16.43070111362349,11.865457509474748,7.39257300495376,12.241299934280459,12.983960091253843,24.90480133648665,67.61762521832705,70.41005993921902,-6.868916073837145,-61.62767519083474,-38.55200466218627,-25.451376534814095,-59.36605073185828,-69.15619555478784,-43.72410829275018,-49.98990656654443,-71.05375550051438,-43.96343761899606,-31.590115821803245,-84.71704998756462,-89.53094337962965,32.87535577786801,286.12505752336676,601.8952151975628,574.4850856566075,-41.80531055479028,-582.5979197286741,-427.9471722081453,-57.83465424038687,-6.424372978114933,-32.260479800860615,30.5710948641439,8.883633814411596,-40.93013825153006,2.0374164662265457,46.88348715325884,45.99961043189788,34.03449429560993,2.9335630352423596,-12.750716710965374,24.347161268713457,38.4958601831708,-16.834068144395918,-46.84595865927669,0.04320012012864982,26.75838293081075,-15.349422278660146,-39.20754057711549,-11.524979994078668,3.824238259519375,1.3462493002985845,12.76902385697046,10.016657035831578,-8.492081264909185,12.461707051292294,57.178113383830954,66.34253595758707,60.73203049798062,70.3764387686641,60.749681298209886,29.682269442129062,14.554185414785959,1.1178054092321617,-30.19246528091042,-48.38128982416717,-44.348841956024536,-51.29269972479336,-72.62137916118887,-70.69396957287705,-29.234996656108866,10.00049606903025,0.13858441837826163,-33.10555201173783,-30.917730204509997,0.1778394688148044,15.851828889661343,14.662435600529605,9.359251112880528,-4.227824074320554,-4.828400501130834,19.354653624028245,19.477485216679085,-14.427365639401497,-16.359781616744293,18.053753039898137,30.66352618308864,25.494687582085763,30.195136747554066,27.17509193222223,7.591484053065375,-14.523330752426299,-32.478197841877936,-41.49938325471649,-43.16203685801541,-35.59790411239146,-13.165594384731339,-1.5849308202261216,-11.184583323583666,-7.52794863251464,-3.651421207876062,-26.96048720759004,-23.26059796873986,19.076667132696056,17.64315252601766,-20.8262869020531,-17.74834859308645,4.301258876367839,-3.5144315079391397,-8.058831473264101,10.158544377299446,20.043412006581484,13.669260244435993,4.216962622387404,-0.06058428574752894,8.038633650372448,17.445876092742857,8.811883140121408,-13.50620305683842,-33.96712204379104,-36.66741065386739,-9.423587380312341,23.824851904304175,27.138969198583503,14.37015165758694,10.701539068651249,1.7850262144371163,-15.085082242224882,-17.863935329575597,-12.59875471287244,-18.036638483808336,-35.68542277919333,-57.125163905219125,-61.888201440585064,-50.46226357195319,-52.80393179945909,-60.655734242410965,-5.759027586836538,214.63187090606385,547.059954722728,560.7839859311507,1.2422031382761247,-528.8124397605302,-423.2447868910423,-76.45614686694896,-4.335439175842849,-21.893135315716112,36.9462546760864,33.119857545105475,13.55116565375985,49.27813227126605,38.5874637559181,18.04528329112013,66.29564324664317,69.37602923528935,-8.70910030209187,-39.30662101787982,-16.37236713148834,-24.31305862094354,-39.70144639594459,-26.899626106170153,-23.988673922667388,-39.49128096118571,-45.43829899069525,-38.57127486549262,-22.69749721029419,-9.471002995563671,-12.014870188168251,-9.620361415008597,7.228051388906438,22.42536089852014,44.3898545657046,61.97386022177059,45.74761763697566,40.1817303219956,77.88549894913386,83.48933699084593,29.821262391287867,-0.811226702113995,1.880747873647561,-32.64629999247863,-83.52191586263622,-79.47892220856662,-48.782097580955565,-47.114209492669964,-49.74503743096747,-34.57529649985205,-23.96159520184265,-15.086271773376922,-2.763899746252001,-4.132016016348562,-7.484585829253529,-2.7865170359480675,-5.063199324544569,1.7745471278695515,22.768712507565763,16.79605723218395,-10.19970064938751,-13.142390951580337,4.222192541332671,16.703449802556666,12.495564481533783,-7.504924790459888,-15.781247791763864,-5.856369550122161,-3.655257095752206,0.5237881104120645,11.55194795055944,-4.021862979087141,-23.024747246351698,0.10181591410917878,25.602740033097213,13.087562215377645,-7.118947854950612,-22.331074378418883,-43.5992554191164,-36.58390201427343,13.247019636089833,30.89600587241509,-12.487832457380739,-9.833236769464856,64.49165168507581,67.94111672407888,-4.314746027879266,4.089931816779885,53.10810060477441,1.0866602333478035,-66.63976018378747,-47.33166950331303,-35.41843481383468,-65.05171568613275,-47.26046506735442,0.12228943340501175,0.7097162838840951,-18.54570179308932,-7.771243372227033,9.902513445116414,3.6598910522148387,-8.633743510053705,-9.841822230697153,-17.356535294913268,-37.974101753931706,-52.10093791700457,-50.1887649688015,-53.01103792404555,-88.78305584430123,-123.48739986521522,-87.26890099335722,37.521635920640605,297.70900438279773,639.7693129145406,616.3494107116985,-6.730083009994416,-560.9162807166629,-453.0358291618913,-114.02652832473467,-45.036123117799505,-69.34915205543959,-9.50500730590192,25.757829005491264,13.982433124064507,7.004857622883476,12.336906080388149,28.57971180143025,25.445059123570225,3.9356219260968626,8.651154107954163,16.850914920169462,4.381501080755658,10.819911349815676,26.61114321856617,14.413655695216324,-0.07188024151841077,1.3905429341310107,1.4321016034613478,7.735112143435693,22.202385122843395,14.553699642764302,-13.5501039173282,-21.313668204072894,-0.23848452573340673,18.02760392061196,23.917719387047008,38.775650307808455,62.856341219660756,71.55575784445247,60.77663291287809,41.67630138573313,9.22553985821106,-26.250286948306073,-32.7180796820188,-29.06402682542285,-50.5703867910137,-56.92805689652985,-29.92369084704749,-30.071908646792757,-43.52120613978292,-15.881988070450088,3.250800023036998,-4.7146854995798435,18.94936679030731,28.1044401152755,-29.31232268712799,-62.20314393948414,-31.08056842122255,-11.588764979442168,-18.416025617212405,-21.240635358004617,-18.218839480535735,-2.2270484757261144,7.880375432577882,-17.567850246543095,-36.00232224962631,-10.183534321563133,12.000618932465494,-2.8357376378640033,-19.471259365769484,-11.371789813302126,2.44394133453404,2.9556080283036064,0.3970504699671231,0.05244584967123522,-8.21873708344338,-9.888514202228624,5.1239329274915715,5.702349410752442,-8.532073770292559,0.9927109219642667,19.369070965974235,6.006317245507618,-21.88511413295262,-25.13022299348386,-0.9406550849861999,22.66466977687807,21.019672211685382,2.4947080137978457,-11.780104441628513,-15.599361692871561,-0.6722077134266744,28.36686082735495,33.4012932444173,0.24261881775303173,-34.97393694923254,-43.34987230831031,-29.835703755378717,-8.974761847803574,13.804134293798977,32.66190942986994,26.392996182254926,-2.5846527001857096,-8.874255615171135,15.744814923647326,25.964120773168638,5.994898332742489,-25.285509033706255,-42.298780540749476,-27.93671167015862,-20.607935931849457,-40.50512308930912,-31.5119236377691,-24.898074585484807,-90.9722425966949,-121.36323786819543,-9.096848121533526,225.7633523129504,543.4578947350782,627.45954215621,118.18346034349933,-496.49121718890603,-451.21755510887795,-41.01241169421377,52.40417653959759,-52.18077470936993,-46.6212409058025,-30.9345876625474,-45.79868049882069,-18.372300141317368,-2.902619100853469,-11.020375844258261,-3.838003813638357,-7.394888713377934,-7.824773643648147,14.878548517564488,12.48136930945784,-15.184522630903235,-27.52447639866597,-24.50087858056027,-9.267076515561648,-2.0918506089610727,-27.720789790890382,-37.05386623812578,-3.0645780590266227,11.275947215687374,-2.184214333846506,10.289878506770538,35.039819763686374,39.54090208917644,45.6769673034521,66.7378877119528,81.7603350462962,74.66292922546634,49.4794695618354,29.800272705099108,29.623912711483833,23.87427178401179,-13.39744549329033,-63.479306723279464,-86.4301891198861,-71.47990661342156,-45.03765874347026,-28.848012019396847,-19.905239669314753,-21.512938474574973,-37.17196875465119,-38.79039171548421,-11.743653946018995,12.031404206756275,14.720007585166249,9.906085895365173,0.9227929199416955,-7.791862666004277,-0.1956673597500922,23.105119825064776,40.57421854054175,28.881025358479537,-0.1681979397649198,-5.432232417828098,2.666551656945061,-11.16255766026696,-16.859563291237933,-3.0317975561744266,-17.651220562215276,-38.4512288760485,-16.201305831774775,11.928619546590655,20.179829555579502,23.814664046623292,0.38756692912825486,-33.2217107140714,-13.24278287980181,26.441405871310153,14.653669993626227,-9.712172002912297,8.800461890603568,33.54289699399058,35.318047583883256,44.814282244648076,43.43736471847217,-18.31431164066796,-81.65614031817888,-67.04612434302445,-25.712730936881552,-15.201911955847919,-10.150319401244627,-16.448132414910987,-35.503470645765475,-11.57906634181641,23.895866452366032,2.1423228179432403,-16.538848749729155,5.7938649835413,-2.7383389775136795,-20.717240593369894,19.945807460486765,50.04703286495613,22.314453920041124,16.202681606825276,36.95684164913163,10.925886760521369,-38.768981110425266,-51.768431633553874,-44.341853487670484,-49.6489602891793,-60.18686290399041,-53.0020989749004,-40.13042233396463,-57.984146928768894,-78.9025496644683,-41.31146356306161,94.14873111504474,382.695103973026,642.9166766257856,400.8080357002117,-267.7735464812491,-567.9169643146124,-281.43475019033144,-23.190949322291225,-16.04759612756891,12.540619048559837,64.78715956427831,37.57927086775659,9.440416260235768,-4.065176423117518,-31.287762778859744,-35.67518591130915,-26.363017751284534,-16.66534600697147,7.182179339872387,8.591223783792396,-13.593841040155006,-8.25508384478872,3.440654847658985,-13.864717434054848,-26.867519372082416,-17.161642395951223,-9.057916863804131,-11.69907120248465,-12.639614322111925,-0.8517792111263809,18.883761968576252,34.729429159883026,46.81199713711232,56.14014436681366,62.78742685323636,75.45154222248613,87.17695813510271,82.12023845650101,68.30803889293281,46.20960630709304,-2.4077664465562716,-58.362411059854324,-81.25085421352762,-74.79765667728455,-67.30849983981776,-66.88704763018934,-65.330425815627,-51.3579625912939,-28.887340198263367,-19.132991512684896,-19.855559772236987,-9.604915501613108,2.405630988156517,1.8009181014945543,3.7596785236618473,7.161534351638971,-1.8698222320340587,-3.1856316221831467,9.433502339670989,5.994685594951296,-8.956551992839366,-9.255885855608845,-2.903212716345111,-2.546574561912271,-8.75262814436844,-17.790107986727957,-9.889294514804806,11.788832596699635,14.046703914641757,1.5309962724240558,-2.126893792667864,0.5343380110192715,12.464222114830054,24.59112475819838,7.065509520658068,-17.43938674789311,-6.895783155602198,15.633556161093235,14.14386323526068,-6.783670321845197,-28.48981421960682,-31.82445849921345,-13.738210502426625,8.046871200990797,21.24337610233768,12.422594421317852,-19.203809779643855,-33.06605664518004,-12.73561376448722,2.936633530825394,1.3735660241181815,-1.0497037447615938,-8.515366299782139,-12.129173351384845,1.606589654294941,7.204963896239402,-2.355590625723991,-2.944949533016838,-6.484122650733692,-14.966787135791892,8.64222589522136,39.49124942713746,22.972589634254113,-6.307163615418657,3.442014165214827,25.951815901404846,15.169514072645036,-27.580727247239533,-54.70149509144109,-49.4050731444532,-60.04724092560083,-76.39611685682732,-48.86612329795068,-37.94641875072187,-71.26216653656638,-42.288620367036884,109.36433821628628,399.4494435906945,690.850671819893,524.8452878313127,-161.92754154390727,-605.1011793804174,-401.2987875118683,-99.74562869831291,-63.06116724289163,-65.0736303284771,-20.78043149062988,-18.02435329390771,-11.216559066329921,9.906095828705636,0.07305130779299063,-8.043497251746086,0.6371675678608808,0.8443184036725793,-4.531143515400018,-14.830025284955882,-20.656481579656816,-3.1129173080509656,4.897581133894185,-18.148547642382034,-21.606944509677056,12.050074916686883,30.39057402337589,10.549537609648029,-17.347077280740066,-21.739054459466463,2.8981631337629565,27.991307577366424,28.356640320137927,25.68288375613315,38.07384798176327,38.861483656656105,29.843987801273492,52.54322215489378,82.95494998556921,61.02579558580531,13.44728175313292,-14.264130802766584,-44.627606995357844,-68.89174490175512,-51.25166248823736,-36.71694837733703,-55.75525105757778,-56.82106834319055,-36.22409437189468,-30.18016412315334,-22.151594546270534,-6.495558627495729,-7.245987047375916,-14.93426926800337,-13.353223768611453,2.9166825958655256,35.045897011539296,46.491564110689524,15.17055415080119,-9.097015354630239,11.33110274403349,52.89978406123053,77.53925405347793,51.47337740020288,-16.539011501669265,-58.028087364223424,-48.72286441950929,-40.55894465729645,-48.609306623155405,-40.68647127149076,-25.82837613957652,-29.179204464683934,-29.37083498343322,-5.96000004746924,11.765871291210626,-1.3422856110187027,-17.253954634367354,-6.789855300991526,8.515594424402199,6.687860859997549,4.238695291334247,2.201282310273122,-15.497173030815867,-22.457091570501664,1.6924222098402595,16.726594019937433,5.666813040069472,2.2112553030743394,8.596312071307601,6.971948312306774,0.6454180858194913,-13.179423336578768,-19.365199761825465,11.710159775012688,40.95320291799713,25.73309662384003,16.212399121103044,36.14026243038047,29.52414079424484,-14.621986529133817,-61.70531844195599,-83.4940429802304,-56.98817720352247,-34.397157837736756,-69.29273314589287,-77.4850037830951,-33.59918217541506,-48.45907057229707,-86.46619207273582,-0.459098297190323,258.3197601980187,599.8472686338255,636.7507663165311,73.42761855349778,-522.4361795194143,-459.0180199889542,-103.03729421678435,-34.683008057628996,-61.43533304906835,15.141030643136585,22.425007689866902,-4.628315598589223,31.540241603308644,18.67269430639382,-25.12649892323001,4.70728521559243,32.216342381770616,9.7962844878135,1.8373266444646656,-4.508809638161045,-30.625618017448065,-31.680814671255774,-19.841402696783526,-30.925943080090917,-31.156356681651005,-7.550693548913172,0.35539591596426146,-0.38354441448773713,20.1455211198176,33.86639712175716,21.510344448018675,27.993153023843664,64.3843814093354,83.24934191028181,88.21282852651747,106.8402615161175,88.59064054605643,7.306009956186854,-46.08000726616104,-27.15443557635772,-18.44138909744356,-53.07297948881652,-67.22147213562155,-50.80505525343215,-48.255921714728444,-51.483214868929636,-38.53810993868241,-27.326085396530168,-18.063579912685803,2.8964227811620287,8.373473114695074,-14.983630751482771,-28.172505852908735,-19.871306115369148,-18.231873073842483,-16.450906176131866,1.7878224729516905,9.837955985337292,-0.8192734695025976,1.9493310663863017,8.861520057223176,-11.752946897658127,-27.524704307897718,-5.520021359188921,15.039440831060649,7.965735437543932,-2.458915857238697,-8.320705586501653,-11.1468732809551,-2.24388147948048,8.54927943397801,14.028599545352339,15.318242992499252,0.3492760424969772,-11.785324008116099,2.74488967340652,3.1037592994818493,-16.994572940515095,1.9452077940191828,29.794938201022006,2.767256762060173,-17.411000020651784,17.43257798412657,35.180699351951624,11.330071493793927,-2.6468341207583292,-6.530064535719548,-12.42828290319531,-0.5203583363185995,6.759475541839904,-20.338553284263917,-39.43559589231929,-12.281795741522378,22.98262564161532,21.752325539277827,-2.9215234980864357,-13.865067191643842,-3.234728628538514,5.807394783345247,-1.7352992391859048,-9.636326092529428,5.737593850668047,33.33791575090446,36.520070141396396,16.759012245398978,13.892807200077725,30.126678865488273,25.621327090245405,-7.072418095765604,-22.384493266273285,1.755576967876919,5.833003298664231,-46.2461124762233,-80.99341626265075,-67.36816295951621,-76.38205685868283,-99.82454131951023,-19.29077582369321,253.54557892999958,579.4867233091248,508.6113860690382,-102.00765742214726,-574.6637290813283,-396.39944959257446,-53.07035392774141,-15.523247610419872,-47.54984556031835,6.662822105887571,-0.15388703631957412,-24.468809727119826,13.20533818345761,24.246025047692427,3.601319722615667,10.320149039606953,6.822186671304869,-22.718411068971626,-27.214165046091843,-3.9920127614938323,2.613620296290037,-14.232724555719642,-12.280939761798454,13.309429499610692,2.9636983590508663,-34.2091843249337,-12.157712740714393,42.28973685110686,30.919483045387764,-7.714592861248333,5.790278490562837,28.881317246472797,24.57344871361817,32.251790484055405,46.540021765824115,38.15704045209345,34.55659465569195,52.33346545999388,66.93170702324478,59.06444598610801,9.434587765771676,-65.76035046842053,-88.77601019966738,-45.45551281000535,-18.99893275992397,-34.52366200556396,-45.12642837858613,-42.92344383407127,-33.419025237841986,-6.573517681475932,13.505680344008043,8.218884739393772,3.225706872583068,10.175083849848232,18.360204567787907,28.941554209178413,47.32501367468784,63.98667183105897,41.20476688884723,-29.281234983131753,-65.2954655974765,-22.416465402270575,15.169853918032521,-2.9164320455952044,-30.701437027620162,-47.53004958848638,-49.347934196354615,-20.73255059806838,-0.9514618926368765,-18.752939211397972,-21.7526212214835,6.611099420050615,13.999374046769061,-2.8420661818984723,-7.042664471283954,-3.334054745345081,-7.035365100011081,-9.665708099311784,-6.366422616919044,2.696603044988812,13.456293566600419,11.019824402900042,0.4597210435254109,-0.2113275135937947,0.6109502457872327,2.842764777156545,22.229581056594387,29.937021586411987,2.4463305015348378,-15.031833136543474,-3.7226573617709806,-2.7197138647783583,-8.54675081369805,2.5014897707910784,5.340537812280701,-11.302177179827805,-17.430868005690105,-4.613583592223625,9.243575708171413,10.823665400330519,2.7387980954941242,-0.9157619814451625,-4.5237180730676565,-12.953688855580818,0.10056244640292178,29.077908429726254,35.004891234836705,27.7102035404674,15.945348937007726,-20.294905987826432,-43.46963234394319,-30.7262993852978,-33.31038611148064,-43.09889224193899,-24.984407828131644,-16.569785339570515,-26.73535754042872,-39.63822266274553,-65.1581708444264,-57.585409164036605,18.883632153798303,192.25192197219218,504.75991967725776,632.6591271231182,152.61936278707446,-483.0994964191709,-501.5124785294662,-140.66100900902967,-14.348216156142492,-35.3144056635392,5.486924856473628,1.396756221776137,-13.918001007956876,42.175941386694966,46.30529732015701,-34.79882330511002,-79.03292391563335,-58.91255963376982,-30.4970429966974,-19.665602283156787,-22.67810285111233,-26.782811298031476,-25.090116713799787,-13.572409389604573,6.181497057260621,11.819975597333087,-6.640334044651311,-27.768963864448686,-30.37723735695267,-8.545950240938371,16.157483592626306,17.028358996466217,18.400499115893112,42.8518265679169,52.939004022623884,39.34045965765711,48.023878911094656,83.6337967396042,94.94944050024935,49.065785897776536,-10.06121748987952,-13.570290268662507,2.187326507889903,-37.13638499356685,-79.18198498893605,-58.61455923647745,-34.40643914356937,-53.994226969798596,-70.38734580049619,-42.463777083351076,1.4979555102691258,1.4375241709030426,-31.18138953229166,-19.709640388695167,20.505914422444643,16.78135457315656,-1.1090559500299655,6.8915881244358985,0.682927657280457,-17.379607439563244,-8.885182272666082,5.832513413852936,6.798797674509215,-2.5970753540637777,-23.406480744729418,-13.220223132306286,43.7703385383443,57.77118475485661,5.254290196532775,-13.325333179724328,13.042309819458215,9.796692937404185,-6.827218661914087,-4.038483083277759,-21.84196428347652,-49.3349165714523,-26.14938392696469,14.79522193516619,7.437305447149704,-14.774662130319841,-1.6546322685716222,15.487660592791425,13.722379317617113,26.945781775709957,42.7035731237965,2.566237847775824,-67.33416524503649,-77.76630893628824,-29.088213557023053,-5.024048295351882,-27.792124446123932,-40.19033108503239,-20.59613152672444,-6.504509666891593,-9.660222068923943,-11.212213921835929,-15.806512377918654,-16.830317217786774,13.5684591851943,45.12990701089652,34.234979073265364,15.139809217053,11.252923333460046,-7.335871522261283,-27.4351399989595,-28.850860107839907,-37.79930594203661,-53.42579724730729,-60.34397968217658,-61.084507918466315,-47.186067250372055,-46.95947960623199,-82.87080064296198,-77.325088464897,56.885419300521505,356.7769987988808,674.0071427621383,547.1298440886694,-120.33745874025362,-579.9530950765646,-380.715384888552,-78.86181021793149,-67.8374337718909,-65.835659724253,11.865212492619953,-6.518574065604476,-37.75882091443619,7.9411123959056695,25.869325207209375,1.5931476227627783,6.952262469551608,21.95916069709121,12.458918408590735,0.12781708965294936,0.7996384730253037,4.690963383440099,-5.167821638184211,-27.529054039273355,-24.159683169245895,10.943871746644952,12.166059527200023,-27.73469085222927,-29.3241196901934,-1.8828360709993612,-14.407694664266582,-21.973104460430033,23.982584363125483,59.22177080690204,60.33899010017673,70.2807137857998,79.8262353122719,81.29562092710049,100.05187293405002,108.77508539446032,61.015128674671395,-29.259205408584705,-100.86562818872372,-106.54722765049895,-80.50007367872807,-84.45916679973772,-92.78048967777177,-66.32108598260201,-39.56420907443901,-30.46136517895879,-20.534704512652084,-12.231177672158953,-0.5100999300301297,12.255925282475474,-1.5181007257516157,-16.15370917587477,7.211492915272618,22.969697662338966,-3.2258996417813535,-18.967170350640437,2.0372010345798763,16.919865872474876,7.042367506054626,-1.7017385208526816,-3.6167432043998637,-12.28887713378282,-11.623210249619481,10.469661029912423,19.179800222604058,0.1884567159001147,-13.456262520270448,-14.38433089454521,-12.002423516758757,4.664866753991993,18.34820123325776,2.606608386537248,-14.940109032017174,-12.363321200448798,-11.019641774181707,-5.3552288670172725,22.014741315975257,34.652306259789064,7.274878175351965,-10.322226869915223,13.983343929917597,30.498441386083762,6.555885389006867,-17.435331555795806,-13.85943680918361,-0.5285239680485962,11.81066298444799,13.991374856428767,-8.46144298682971,-29.2743958837549,-16.74020290817512,-3.899848748242314,-20.617522445812696,-27.7194972913669,-10.092478338782666,-7.677932398549089,-10.287545369507132,11.970382700318094,21.335667051597568,12.115841078158125,32.47485880177128,42.3915673020463,-0.4761725782130597,-18.42282639432978,1.7383529591271163,-15.831823226104476,-34.38239870426149,-22.431391405298886,-48.214198777064325,-66.02769468720844,-21.014709904525684,-25.713178052039726,-81.05881742423325,-37.80607084357849,153.4232075719932,468.00922251358776,648.6302642054637,271.4763129746427,-388.836904798577,-536.7695432200408,-220.39981415948552,-83.11079332358196,-120.3079410261191,-44.72583799853811,17.363820353548064,-24.692368996336697,-39.6120189943408,-15.567984792638931,4.579869342952275,30.40385303289281,33.36931589120917,7.884460548678399,-7.5034140285018065,-11.663065775713868,-11.368862804933583,-1.4492178041447246,4.943975190306432,-1.580211137517732,-12.778153956687506,-12.004864721028351,8.228801767260428,20.596400178949448,4.6805048174394575,-8.780672533175382,6.483241721658111,32.154265423800965,43.476542745671495,40.90838056701358,47.169249494184484,69.55191416846681,78.62937432717509,64.8002207671165,56.24445218337689,47.150556195485585,7.876178681665936,-38.0388411301896,-53.669631592917604,-57.33855845438842,-68.00114603691986,-63.99659085291623,-46.14557508081262,-44.385895383209615,-49.6419680790154,-32.02328825744762,-1.3895318244513213,15.546555758432934,10.844941033589997,-8.866144724465236,-19.096919135512348,-0.8294077699076601,21.826439304347808,20.35486064685956,5.305421461960482,-7.7629650541608894,-11.700408848608653,6.140357912390492,26.798096652702853,13.36713601335341,-10.601737240546697,-3.897420803837639,8.661958759782829,3.1917613904617537,3.1626825675766277,3.810140672310757,-14.334467438672373,-24.191580873494882,-10.53758223964861,1.9085900000655585,6.554627248139733,8.133198690607479,7.4571428601587355,21.40487725524976,43.724167903568315,41.51524388709268,22.916859466464842,10.396471595409343,-10.961033926649375,-42.77810803132194,-56.53679457746726,-44.190252605983055,-23.616924058926536,-16.90429174494708,-23.27472906821118,-12.000050312446348,12.429997581158208,6.723787981938432,-13.363336319710475,-1.2545961080968029,17.662391283278836,7.090942769836552,-6.641949548484748,-7.133859109764042,-13.41537413503468,-18.748925122630624,-8.436559851215103,-1.2731637365899209,-3.9779423384619315,12.53360781045665,42.1758464640281,35.91989392622261,5.72766458598122,6.309745916581683,12.730740912490676,-13.22727577822044,-28.282884721229607,-20.03123139201731,-26.290784841289835,-34.23820257717515,-41.169845789452836,-71.68842965204786,-93.88224894743348,-88.5257218935813,-82.490324839242,-58.08385129842585,71.17555109900786,384.93186979777363,661.4728094481861,404.21492655203485,-284.02657277919724,-582.2557930278763,-282.8867921751083,-26.723828829995135,-44.83563114196518,-44.152807531068646,4.405637810437845,-3.8721633416622367,-6.503055709083912,6.754310084048652,0.38875994254553525,5.857389563748834,11.732922347873352,1.5888864225222727,17.314930566251327,36.57483018825074,10.355935169162738,-7.539181487179733,21.845803799225568,34.65333845356661,15.02645869045545,14.483662212714066,6.918525498674479,-50.091903996134626,-89.13315601886929,-50.83622172050272,6.789990291124987,23.888930604312186,21.095063929812973,25.33171744903656,30.56033374401223,40.97919284182728,66.39653159474175,84.62945845167741,75.47115326039149,50.74821800660126,12.314719899951392,-34.71922792259435,-48.6918091715017,-32.91669327830662,-42.25260644971732,-57.744146921198315,-32.9622633611519,-7.965419452750233,-10.168423002798033,-8.579698044147754,-19.70877554238603,-52.61954563416651,-50.226710533389635,-18.435622917676085,-14.917174024338241,-20.93535889562716,-4.32523213228111,11.682308692624918,13.879361576888746,7.390936072395492,-5.810609801435997,-8.167138576324291,4.730560357001676,7.216705538996477,-2.4626269234179663,3.5631391211803285,17.822019311507336,3.5842077252408977,-19.861289140415312,-2.614395250628091,26.643636986780848,15.41820723144995,-8.3760567120039,-12.730898162682415,-14.153320624335546,-10.58701821433422,-1.3074689058973377,-11.153885532639897,-22.894640398053962,-5.955329386131181,11.297138795189694,-0.8326258353600462,-20.34551529009004,-17.70197133790927,5.584342064927801,17.465854465590333,-0.7349214534028139,-12.694360476458879,4.979468134846248,10.569505878975427,-4.197785170277112,3.5871018064949656,17.953523306907226,17.72456756150423,45.77910633782818,73.17167875852373,26.38669921684215,-30.52384253034676,-25.810261337289756,-22.529823836455236,-43.7795173352291,-45.38484546340918,-47.79009141362498,-61.94096370747895,-61.42449631135047,-59.421411066661236,-55.416173293328136,-49.51361665936348,-77.26328507808299,-97.21948615976191,-16.52856133494977,224.4917690556668,584.2712698047275,690.4818081835191,189.53040780308015,-455.49075169014355,-514.0950033627689,-181.85504205858624,-60.729074234962496,-109.80492724662011,-66.29975248318752,-8.698826284333876,-12.468009638453815,-0.5563860108350651,20.623385428284923,6.747073383765089,-6.284089643183461,5.028951737584502,7.689765158397068,2.8551536444584293,17.32361998289997,12.565015972395834,-33.378015961765946,-40.807034500165486,7.878429632971579,19.20781946965223,-13.61772175246228,-20.494758260697854,-6.169399631065815,2.836069183920502,15.078836524157492,21.24916155068361,16.574563365521,22.80010143559352,41.219571393971165,53.689631292225585,55.84109339336854,64.87203162675691,87.22629386747782,79.39833939867854,20.24999103461802,-25.67352594709094,-27.739743401402386,-35.162790911715334,-53.58519924941119,-58.04738910930933,-64.65461380303717,-64.36695837801102,-32.08335347329523,-3.748812149586538,-9.695778111247748,-24.275572737880033,-27.464648580212472,-13.418546480452841,21.991090004975014,53.97183638704145,52.44149166519413,25.178720074117866,3.717989316675557,8.921444758156618,31.502008263551545,38.79322162961864,11.599050353138862,-30.528426121995608,-55.109475742831144,-54.38588677721669,-32.61605764348474,3.5434190691940124,16.737833738066172,-12.358069695101381,-27.213487057159817,-2.9937604463860357,-3.0901083061500287,-33.32974353233627,-28.620797034680667,-4.074160407199312,-13.4798370551048,-25.079155291286863,0.955044430991669,22.11467136660938,-3.0225857941133203,-35.12972150988546,-18.992778022514127,22.180923995544426,26.598949596486086,2.580855274952778,-1.2122890215326336,7.419071324070105,6.756053013818231,13.092148293921712,15.725720850816385,-10.323432019188372,-28.696275049973938,-12.1423807879913,-3.9626555349119883,-20.758025055886378,-20.821376376101615,7.116723037022702,26.71734128583954,12.526996217909348,-9.64973630148485,4.753262347999055,30.835301183559665,12.21004469256808,-17.656163403649934,-13.138618370061375,-16.803979940170997,-39.52663832487281,-39.52004619705102,-36.222214714677065,-41.98141275697972,-33.160606176982164,-45.28471312278968,-75.40535909482475,-41.905632936422364,98.14583588605275,384.05750235874785,659.1934823380348,440.84040418280483,-253.3103866802017,-597.3250498863466,-299.11095397689104,-22.65558665796157,-55.93992277085938,-63.505152846688915,4.18600570450905,-0.49111386183149364,-2.147035561992197,32.75333241400004,32.64987440628548,26.30517679473535,42.61675906458759,41.61070148054169,10.306158470237996,-33.69180887737491,-57.46735548771329,-39.39673255932969,-20.023269790301956,-34.906935991162115,-52.632799720672395,-46.65607206221105,-28.778836196105154,-9.058855440119547,1.5104193558640513,-4.900442391691454,-2.5673140050451444,27.697257831475213,52.90315351843798,46.5871311009543,36.62670207943097,49.57879252179217,72.20500207797693,83.02600954434038,72.54605332331589,42.27525950887265,8.047660573037419,-12.467113072306644,-23.404723068127293,-43.9297968750406,-67.97006312048813,-66.41308676632332,-48.1973069750391,-49.4130143097895,-55.65923187577143,-34.62070142233826,-10.214248466210446,-7.8765630409718685,-7.158582285569054,0.5474765133185313,5.5889549188705745,16.700704791587206,29.12465895453405,18.38514503057192,-5.957376368946416,-12.581613480252765,-3.723928399876999,-1.5280702372143204,-1.7982686018577985,11.615572291453073,20.192878638207397,0.10362598772066933,-15.255739286322143,6.501604756277344,23.862713148281273,12.47530955934176,14.762842141738577,23.327173838317016,-9.270686227661068,-43.72365093877379,-25.564847241887307,-0.35736993310999754,-13.334603911250083,-24.89611287702558,-6.295723483569553,8.192209171805933,1.070663210823644,-0.7748663047349276,6.719685779298172,4.9693203666009245,6.539999696875942,19.066760530027448,20.646380370380147,19.593969155705487,28.737669587663042,16.835593609364317,-12.466533231281456,-6.875202952817888,28.467522556693606,33.818515664359296,-9.15776618421809,-53.324025701313104,-53.09932933685786,-29.548791812739143,-21.55689872122936,-20.236906838032347,-16.843940002207646,-14.756317332285134,3.296770878202464,17.81002987647351,-5.7262412608692514,-21.56303639601284,3.657644362150376,5.921613038340983,-36.05611663235554,-50.772019959408816,-28.097858098475726,-34.36864936781676,-62.30272579770484,-60.79071630589311,-61.94190080542842,-82.48258164318482,-47.92383745339993,99.68029512914984,389.10776462931045,659.6942449107108,456.78898228975487,-215.95189430793388,-569.5446072122721,-303.3836485571602,-60.06728907568686,-101.28733603468558,-71.21235916891433,26.782780325239926,-3.075459229180531,-26.763687827790186,28.03420844058636,29.42313537069218,-10.047060505119385,-0.1539813942074666,27.512608475552554,16.457334252536757,-18.759317558249066,-33.84408616461309,-20.839074449654824,-6.33799848522767,-2.7643569229198013,-16.570936213336957,-40.895730422875225,-29.79242366406595,13.609871772022577,21.680807348095858,0.2774526074214707,6.213391872459347,30.016001781567137,49.07494191419471,63.7048322997119,55.20583227623384,42.80678556394261,69.10770054561412,88.09931313603738,49.4968996805337,7.929530633272385,1.755126170481466,-8.298502150747801,-35.97702046567576,-61.288619753411425,-71.3285664120232,-50.537411076542654,-17.904649456283238,-15.301433088436209,-22.707787736301988,-7.508720256311779,8.813916173209622,21.63229610391259,33.00405060059551,0.41765852754024735,-62.37538346451923,-81.7578480287759,-58.96484915519039,-33.34628654015384,-9.486982913600475,-7.041124337317715,-27.271348446103445,-25.219060598404482,-2.5721440507227467,10.853370130756785,20.41724807187701,13.313344008599195,-15.500319559537981,-12.944304480121685,21.140486019152945,14.490188652930676,-27.92616226839084,-31.545985087730664,1.8945526492536224,9.088321512226269,-6.9461351565060045,3.64484534807604,22.309602391930277,6.353877143773848,-10.522944479242247,1.1877348896041255,4.899079794063681,-6.420831787783008,-10.082134705329068,-16.946087495947147,-19.800339153817053,-0.7167840853255862,10.573292075424312,5.760801298949584,9.208190779056151,0.7901618317306847,-21.674776452168985,-12.53895496046387,11.754593040295704,12.731997838664629,20.589869965992992,34.692146741243796,8.559092143633666,-24.53424888698899,-16.36006565910306,-10.839722201430977,-39.79390967915456,-58.767460094441496,-45.91504927501786,-46.88645670394648,-91.88028546501738,-123.51856030260272,-88.02680372230853,12.72499588490777,272.9516958879011,662.1507017266701,658.9880769588742,-3.65556743620607,-578.3512019373989,-438.3876332113116,-83.85079788364716,-33.42383510907627,-57.71450062077552,6.718156287021614,21.06980798821628,11.679450959359137,36.40249718693379,51.23047636648339,77.20742797554988,81.59516045480686,-7.8180400863895905,-84.71571687860626,-60.21647631007052,-32.786936303245454,-48.302243811785985,-52.56373470418802,-48.486612340971874,-45.25171902677736,-24.398500842147065,-13.448340976863273,-26.484202943162288,-19.062700841822096,14.39874566478777,27.8546376275495,21.47550944847456,37.65177286106362,67.02278442352139,65.66403767847837,52.032454143786985,64.07269109503413,72.12191243031927,55.99630111269623,45.18493775389303,21.880368971028762,-36.79565459662282,-70.30759758004508,-51.701303566810466,-39.197863550784696,-44.29868164819283,-40.628292278859035,-46.62947281630852,-59.663325577382906,-49.6101189669502,-36.38802024059334,-29.415189933937224,-1.49170223213126,15.132247256379612,-10.162714096013744,-16.984040415971034,19.155534846732124,42.639187468450274,38.8732240639725,20.967717644267843,-6.228225210736326,-4.291676689227087,17.01586848069488,-9.686445512638311,-46.030599950251016,-19.670966373508627,10.511536264760617,-4.10236910557555,-13.533223418729786,-14.216296497018956,-26.191310075918388,-10.651132665846589,22.720842180559895,13.703174771947147,-18.207827595162566,-19.20312075079734,-2.910628498428105,-1.9107614842513296,-6.649226343072863,1.317242739738501,11.98420818489782,14.175503638921683,16.78541888622645,15.53670031923129,10.015573357915839,30.534764977218906,48.873115357846885,-5.485562115184905,-75.89088329777375,-61.59425871939823,-19.070576840152505,-27.911684787660516,-38.60537042879957,-13.636348321697456,9.754305064506225,15.527145861538566,10.375189002321111,3.0788764750614304,8.147683122836963,4.673680736504357,-32.050989945991915,-56.9311598706777,-31.78064894536309,-15.278604696614934,-43.33625582857289,-49.84657477590816,-38.790403027478256,-86.46915208324273,-123.1257947328954,-46.174462103725446,147.38562967402743,489.2743574659693,728.2694186799223,325.5298109172369,-446.07770976635294,-605.2139289390059,-168.72977637938226,20.65376012441854,-77.07308818373554,-35.7638317259326,36.83191108399683,6.34475138251848,23.943546968785007,60.68828491648562,29.312370239212395,16.763975050485136,37.52703511034255,21.98033814615203,-13.065571151756195,-28.734086549167593,-21.862787706098302,-8.680524690420926,-14.095440300546096,-20.885155058537887,-7.892777001041454,-13.652801382949185,-43.79662445637037,-45.86091138746599,-26.627897843722096,-21.61598153604367,-4.165035586577643,35.704086787784306,55.85110465862073,60.60537245523405,78.21204448530926,83.93573483165447,70.91361449749633,73.64497069283733,72.41166129265376,32.2586969300454,-10.156939129062549,-25.78485721120974,-38.05532414274257,-44.330105833004026,-27.864541147272835,-10.589482526921785,-14.030559400734056,-37.34885843801095,-69.55923337547314,-81.72158931851537,-62.23983481627613,-41.83587700447266,-37.03868457056839,-31.081091781933907,-15.892187438558146,3.709223774583812,18.29448847909448,13.994567655098193,-2.8768710321748685,-11.857236913856987,-12.413314707267261,-9.858662866300262,-2.1902506986190353,1.780636177148617,1.3798956430754679,9.534255767338369,10.85605851996794,-9.128164570682738,-13.511788887798787,14.293463583523977,22.53071924960971,-7.2380404949575965,-21.94201874106438,-5.634044967912973,1.9114949108394135,-0.66370446254136,8.112350723268413,8.822724471659235,-2.2031286067068696,6.369368635193709,20.523635770928767,13.31417299135234,6.4192047973610675,1.1464282397551275,-18.398040552669755,-18.10522126080783,6.83678959440118,7.277635795888897,-6.937587409968584,-3.472356364761903,-8.033367811117202,-22.425852930054504,-11.806428696986151,8.668485601261043,12.165130891140432,13.501575466282379,17.73370165473027,9.96154689807035,-1.1924407916860993,-4.219065496067533,-17.907379176471693,-44.11931235580142,-49.60707790591255,-40.96453797251975,-47.609752263725035,-50.68840214110071,-50.95058860925859,-71.2573807483864,-64.29367930445119,28.865910925255662,260.1667306521005,580.9853293852179,574.9765545056225,-23.085872243832995,-570.6061828066834,-429.5967042870385,-53.696106700477486,-0.42575119176425424,-38.97213078296242,34.59146941670867,53.83235767763952,32.51559039893506,61.03213707114373,50.028805056551704,-15.412668278998495,-42.086574083146246,-23.23821876318962,-5.118369650646127,-10.750480585721053,-32.024174998503064,-33.32240610108313,-9.73528572023891,2.63649509178223,-7.702202306569674,-19.094630459050045,-16.530667715021195,-11.249132238528457,-18.767425654563237,-16.641193224574423,16.207383817301938,37.480501838455574,22.857058808116477,24.201089528757514,49.69735547031703,46.50132219355814,38.077449292896276,75.69500639393523,104.22297135682857,63.68585527193681,2.824757250068219,-29.143953650589847,-48.20215950384869,-55.3474207593831,-42.29839061973324,-44.1512886777953,-71.88305329349889,-79.14216635633733,-52.77292758121743,-27.559293828137534,-21.846225884509657,-33.611181379058294,-38.71881161089489,-6.101355632783225,30.673160109493658,23.20545661298147,4.261463177607411,3.414174595905372,-3.310701704467931,-5.3396058876225725,8.450210358176314,1.9938507322460453,-15.770262183938701,-8.566153026853442,1.4994250495945174,-2.1198072849690064,-0.6071870218082491,-2.001810525411212,-14.352143453916419,-17.15415558551977,-5.1365634066138455,9.214181580529361,15.755311396153502,9.512475523394517,1.7190295515967127,4.284889047175422,6.971927918183133,-3.1253895780074563,-17.00589858677921,-14.419098306017837,-3.60979716997449,-13.741115667157686,-25.32954169469531,-0.4214387557110162,25.756625384633818,12.079332940807952,-4.694696231697147,10.832457026638906,44.2113958177328,64.4235754681901,31.81926425115528,-43.16095795961289,-80.38630505038658,-61.14991218122039,-41.46544101570506,-22.492187097027752,9.282828064988001,9.327726971395201,-18.430016838623374,-10.989828079411474,22.320583718687537,26.436486548456543,3.604086764903654,-13.500096100333495,-20.13969555424352,-39.336069416689845,-70.68548562597613,-72.7507144657195,-60.064979471148554,-86.22311583861622,-104.47107947973468,-50.38749269963384,112.21731587005898,448.92654762198345,690.8283090174519,316.8168666168516,-402.2727584442448,-580.9289317659019,-227.40144097689588,-37.11001332734174,-58.962989295127116,-7.17322502517284,29.845331211873187,4.777767396216209,21.39868533300742,21.654888960596793,-6.312031468970413,15.331753625934635,21.589445623271043,-14.873188080134392,-5.134055843432679,21.07978831831889,2.6182434134039054,-4.570183423606274,18.045646600557774,23.4023826012594,15.45436054146002,8.507515372861869,-6.864654789495989,-16.27687818929772,-0.9160625923994701,30.813994457208302,48.279436911360804,26.875269073361338,1.7560619692169492,19.091101733946832,39.626460913460996,24.248066114308013,20.330143041155708,46.903710814919066,55.81813254100256,37.236071605909125,10.885418027898893,-22.74730587299453,-44.86532161117947,-38.87453635133899,-33.730753335366934,-41.71224952350083,-30.39980028467179,-1.3727671641547516,-5.351688744483781,-52.37962146846639,-83.30319392883571,-62.94636726714599,-29.177714183432684,-11.777134404033411,1.5380878800881952,2.681767929011759,-13.00813135682916,-6.089831643295842,17.65762067013256,2.200688327089594,-31.09774713088426,-23.799962318985816,-3.288387325500576,-9.999327811212606,-16.07362782038946,-5.029994325595407,-5.020853399905381,-21.17378768129483,-25.923148984559592,-10.157334725899533,3.16150546788878,-1.7004390558211764,-10.371296951956635,-8.111950905356622,0.9872188213279323,7.158626963820714,2.042810248824713,-8.812248696619744,-8.920899669509282,-1.6014072809718698,4.468051700667208,12.801927074395085,7.272245469734504,-17.837487052030053,-23.466094400232905,-6.492808693066374,-3.4209689316034897,4.404992317157562,32.78625965854415,31.72289766851127,4.373851184554496,12.872404372463137,31.797602402430524,-0.720843457050512,-46.12377417907453,-56.99842351030644,-69.44972898723469,-83.63853690868739,-56.451786846579765,-39.9399973338159,-82.40436338237468,-101.03919105006065,-2.750116395735404,277.4112928230713,647.4498172577642,622.1400501946875,-33.524010186508775,-598.1352121949266,-446.7160798751777,-75.51492632744882,-26.923869928481736,-55.46734011114015,