ECG,24.891115938975588,845.3851913887326,1480.0533669564238,1509.1251490283926,1265.8913126163422,1267.0396144557924,1213.644858796561,959.9770400559494,839.5103118945967,774.4034863098527,609.1355050781459,539.801055671028,545.8303956723475,470.54595298251684,435.57748777402435,486.42259772243756,473.9635364093182,423.72192567900083,441.17550986599326,472.88887353492214,470.51992837539296,473.57090197618913,476.8653109441991,470.6059449536899,502.0619825729161,543.237684655682,486.2033830391143,362.3796249769414,332.7932967177543,396.43699037199076,407.5308820984949,382.002973548776,414.47120319454575,440.76309924570455,424.1973705664892,443.7923885667158,469.9907189177875,452.19337231880377,453.18350759474833,468.0701939736273,456.23755877570943,461.6889625275294,470.2885958600184,448.62128103842383,447.26775339143535,456.8273256772952,452.95684448731527,478.7599982548361,485.2078732314351,430.9024382967266,414.42437007076023,441.8456406200164,435.61100422683126,427.71922952584794,431.8247577676839,415.38320865467847,415.75731768313403,433.6293152904809,428.9803821919711,423.17983344831896,418.7698416630535,403.58379566090366,408.19264675319846,422.0221152015074,417.31177220178915,408.9432795703317,396.7445905242197,387.2415166471178,400.2387841371026,408.4530840640123,397.79477591542377,388.59696267875006,376.16076591515844,366.4043970542758,375.55583807110713,387.12817856669494,383.3137901585418,363.5240363428927,359.45675432382484,393.5797608497078,401.2636823544792,363.3541527724568,357.76079683048863,361.26470663289217,329.0411021307924,331.3194766814685,363.2793965365088,370.4345639498006,382.9402598959456,375.5368949238583,341.4881730460928,372.1480722927987,400.89102332577227,326.4013053007144,266.61712129193836,272.328744967229,248.81250459796934,225.9572264884307,249.29557616633804,257.01202932525246,233.65606793983153,211.98471323652495,204.1369942671347,205.82412577172056,198.15009844048382,199.4579999497729,261.0318299630044,464.6608677440363,841.8933679824745,1013.3016699603961,517.2110831465869,-189.5351580729333,-263.8629838136563,94.48182157071062,210.89705953820112,167.27239124423988,242.27302624563197,283.36688528461804,231.73262653918158,226.1308422470098,243.55566201105972,240.02123833918358,261.4284807422849,274.2318350490815,238.58808830844805,210.84652800396248,216.4422623890551,224.45676995286135,231.38583118272948,232.36597271518139,210.77957127150557,189.01804895524242,191.13195937527712,205.97825824344125,220.8179199336181,223.32884177178124,209.8993723616195,203.92927565768235,215.66015681475272,239.08928820310246,267.48096684754285,270.7822400455892,254.21517316318898,264.61329518098114,273.8041592622478,244.95586537553828,226.11395530059474,213.89417268956822,164.36897739580553,124.26597409785438,122.70485587890892,133.57565744741999,167.41901180495648,178.36554503580766,108.17359822088673,65.50948978172482,130.07147137047053,178.43199976530616,139.7988727759743,101.79170520605498,108.09379288310748,121.65860055556914,129.68517974353796,145.01329759885925,159.0379381155083,150.5724073187622,131.73857935165935,132.0165560196039,144.63541851549044,151.9547729120601,154.12531247681133,144.82211178426363,128.01834347268777,126.04405256631628,140.21515908112826,153.04366171786427,145.83132304090452,114.32688688682339,91.57722235960122,97.75513572495083,106.89472949346748,112.09631631793337,120.57761714993705,112.11371689759767,94.94743697695287,101.38879739255628,117.49722828848223,120.09935579464383,115.98437619327103,108.17768263741385,100.10422033306625,102.8697229459489,112.0800895808751,117.75135687611242,116.9291705519291,111.28321894344558,109.12617491583683,109.1326763033347,103.27497964793687,101.46409860189735,108.0719661317979,105.71202740400832,94.20393223614695,92.3512485494073,97.8150311130056,93.16252912567757,79.81444228878547,68.73420336806817,55.38803120121216,44.50543627837587,59.731709581895586,85.93685582886766,82.05012282993874,63.24995054986698,65.74304572883531,74.43603134085143,65.46189001150833,48.04101371423951,38.38251996889008,32.33106458449862,19.959957409278815,23.284356407704223,36.531984046100746,-4.871934969194555,-65.97722407564709,-35.09523759751437,126.60957600908756,482.6448049935455,873.2599306908023,679.0193046393632,-154.92415247894257,-628.7544888605642,-321.5510402207208,-5.002972214118316,-34.20532758806459,-18.32060424674016,71.38762574856526,50.262315696480755,44.65262028701174,94.78676941462126,79.46562761728555,45.59800390133064,56.079756108925395,56.05904873930733,44.199973621446446,54.11246652370366,59.84271400785997,47.11935218009131,37.72493055452935,35.290965929487186,35.90316909986916,44.21473727448685,49.70830958617326,42.744532708910995,38.53577141192886,45.19171449799252,54.960233982359114,70.84122731766328,89.45766389512545,95.72209590961796,96.80362806752073,106.55914759618912,118.781354698417,128.08292636373065,132.04060111963133,119.63613734783405,89.39731263230897,52.51687858521274,18.358430060671424,-3.9600275386667363,-11.274880689171745,-16.792436307033192,-30.054012117932267,-35.37665069560977,-18.926796756823023,0.5521693259988112,5.694853807258021,10.056997087282014,20.76055194730509,28.925973745179604,38.39336806249965,47.12789956742102,44.66757815912963,43.70459445029944,50.30320036608563,49.921959460170314,49.89453944774523,52.49391572188534,35.02838643070797,12.671271899135292,15.015096921536554,22.798784743386243,22.740399859481556,31.115554708225744,38.99201585009308,35.2132881522533,35.37537879736578,43.84241521876613,49.572901804208136,40.629936752039,12.916079430845748,-3.975283837781568,12.232183415687423,24.26757344652591,6.81529695151832,-6.754485409568545,-0.44354631511411213,6.011180757625134,10.10190708206305,15.86779539983015,16.202384072787794,17.6398572563724,27.262540727303318,31.205502492062436,26.57485377513855,29.504356771842936,37.512022033445234,35.90629404351994,29.592392506604057,27.697395217807085,26.579600446615345,28.66328867990284,39.9431498595692,48.51033626508186,43.39727999946379,33.85429357470751,22.800561506410794,4.0418841106504,-15.832228854624137,-34.719741023733874,-48.568048698284755,-40.95237143924845,-36.823260707692185,-60.934245489693595,-69.15864322277088,-65.49390103796605,-102.08764014201309,-117.37855198133732,-1.8985524899374298,317.103321958028,760.3610614443803,818.8009728210709,136.9477436307032,-577.58652553665,-524.6901538753217,-136.41247665586693,-62.42482068546343,-89.33283941713643,6.254902356383127,34.47912604387841,6.073472792422324,36.465912948686565,49.170034476387535,27.64288289711331,22.77292661303245,6.886219867983378,-9.086192520044284,-0.3916134891528138,-6.351989912463031,-16.47154583877355,4.873495693610817,20.477079334238034,11.341399213090895,11.127137919012227,19.067286818655088,19.17598709319836,25.306682700973226,43.53370863436929,56.83927427633496,47.273761773302496,19.35198851352068,12.021457145449652,43.82626292566596,73.66187281093737,76.43587321906884,78.03200872197948,84.96744861913263,78.40845563503815,57.73385649772242,25.551855326820856,-15.460338609769046,-47.013151225882204,-63.693296984380225,-73.61009314739405,-67.41335646302188,-45.54657839102683,-34.344557215547134,-34.319551172207326,-22.452114650970948,-7.283242856618365,-3.000530522912832,8.054302151400476,24.277507642237328,19.037442647992155,6.99730690385136,16.988943353658506,32.428185074657335,35.169068741395634,33.7407352192086,24.70816953114694,4.055902704702914,-8.545114765999285,-1.1567265612485507,12.981584891144704,13.74154247977496,-3.7958968344037443,-16.94295337031388,-5.7883120797050935,12.427775231043897,14.265728254586564,5.184827561442688,0.5382288095869487,4.987422398202559,14.82087436542207,22.218079357409273,21.335615118249557,15.550848155533627,15.775257069026022,20.97934222894188,10.169926742964531,-15.557909495176013,-18.345390852388327,5.336508627376002,12.320956536283015,2.2231310261695754,12.058824053216316,28.40531803063444,19.144083952087968,-3.2989960597496815,-25.320763932791426,-43.6511550421411,-44.028854674236236,-48.876255170451444,-79.87895236285593,-94.97832560365586,-95.30844357354192,-122.39257018584534,-118.35370869993508,13.289548465170299,349.4681576288345,817.7180608573261,888.5948730529976,180.7968774978186,-575.9676442162593,-533.6863408054219,-138.81791811261937,-87.92332588379334,-142.13387466936695,-35.554487923727876,11.993843128393955,-17.07112798701018,8.528815265094394,11.112013936788664,-24.228553340024906,-15.295364957263795,3.4430076731415045,-0.5098078510594446,-2.4484182326458086,-12.022066080529598,-22.116244273760348,-12.396828862766169,-5.909168260532596,-8.178771843030571,-2.9221191427836675,-6.126758312965201,-22.100336118464156,-21.541587101996203,1.5251712611446848,23.032828304993398,29.886958262275492,34.7359961305363,53.86091625486718,80.12627141088771,99.52334287022242,113.60353520695432,117.3613564229446,100.85865058778913,74.14210733457939,42.55897202495369,0.5187174584757983,-35.22587871490994,-51.70423617754297,-63.18227532963782,-70.2765639449784,-67.85988770383857,-71.03101759303016,-72.4592910391056,-52.84787802235717,-35.4178050599816,-35.26098805293065,-23.147933073311513,1.8592622140707267,10.657723343707762,9.520847014745028,14.96533825236799,18.020337599921675,14.896142497842048,11.82370817028448,7.28598591980427,0.8609405701784312,-4.188386340380529,-3.7592416898281296,4.534791779761269,8.7824512347205,1.1227131518826114,-2.6340555393162175,1.0432595986084279,-3.1168660783988504,-7.308102538799677,0.9944181781978934,6.829290319411648,0.898987826345037,-5.472103941853659,-3.9998151532486994,5.710847567866995,14.459608809381468,14.026397986716734,14.201349127075964,17.08691981848447,14.322675754783463,17.28071067916016,21.871144463945292,2.0483259846262625,-20.44058380858709,-13.189578247854005,-1.8755878322247908,-1.2931853021475153,6.017993478985682,4.837503919862861,-16.375189557743415,-37.19334472561311,-51.82995367660868,-59.228122861309174,-63.58037921674745,-78.23762565799655,-83.6195315932597,-84.80680504064537,-116.10163431435582,-123.66383437308673,-21.51719297522149,269.84455667522616,742.0695137262545,908.8897719049389,267.9781051821195,-558.1205131942779,-591.8550944920851,-152.70932126606857,-36.79002687528655,-97.69959248860475,-16.626256806587172,10.669037575458617,-50.02122973356495,-26.24572815889649,13.676072568705239,-1.7975588072508195,3.355597963725719,20.706591983232833,7.889338719347768,2.3982146704120426,14.384492326021066,8.053765608814661,-13.511955579949616,-22.206864098872995,-18.198156369792294,-16.128246849770566,-11.602793719966492,2.233815043685766,12.4925924524548,10.4164157673838,10.180850992065828,28.572594277362267,60.55342955075796,83.18135802831384,88.18518780446082,91.2177602975097,97.41671761837995,94.74898770798923,81.75837384538892,60.88784624000652,23.77930345517543,-25.9379305541992,-65.55382741789343,-83.69255551991169,-88.33355543497623,-84.65766975398938,-73.40579362226431,-62.26129885814063,-53.122091327668116,-37.177487902301536,-17.534002054022515,-5.937909224349557,-0.7234046334105813,2.7356781590738724,2.932697471212091,4.793152975825091,14.041065138737927,25.012464335709325,22.169706804769447,-6.140598165780464,-38.4464265701617,-36.69817719697495,-11.545702186891653,-5.007824009888541,-16.189310802087327,-18.58379777474066,-11.192855639416862,-3.4933594946308393,2.3775432757944968,3.474260289493431,0.13741229364117835,-2.616678744331761,-1.756854133352785,5.942785727344038,18.274119673503275,18.680440749575517,-2.12271145589739,-22.386750917238768,-19.490241207184372,-6.0168319150842065,-1.6003518005777941,-2.351060979858853,-1.0070483848308358,2.224340103564146,7.054198798390607,6.805451815957081,-3.1338681444015366,-13.26199175573238,-15.954896825737379,-13.548853750851286,-8.828288126468257,-2.6687723541191994,4.259464380577893,7.0563129393918045,1.9592285741057458,-1.8206510711972768,1.5234151750370617,4.395181688498655,5.981094435796115,5.927308668729914,-2.366367052463449,-8.678822746619577,-3.798000014679582,-0.22189766140906264,0.5881942543840029,3.759779375356582,0.3213363401531355,-0.6314667854704314,13.863004634659372,24.992110385240576,23.898409043645614,18.56596544188807,2.9048474282789725,-14.468978301932493,-21.066321912854317,-27.61645435997478,-33.54338521725632,-46.659851471485254,-75.62743076066238,-81.30859864608486,-76.20937277858863,-107.5182046583987,-105.81894449029956,-0.19045025857852238,256.4871643782549,688.8336733584239,851.1565756400473,227.4842828736738,-569.8945976657951,-575.732466398067,-143.95055575510634,-58.6213046360742,-130.0927094977213,-35.83463608899123,14.73024643605666,-28.282721383637238,-10.494820843022655,19.3688254720553,13.497124990762757,27.55094766466102,42.88394834833072,25.79817885587707,-1.0206523418981401,-15.591550336670721,-7.938205607931062,9.553736860315407,9.927895645139177,-0.3222559270878831,-2.839236518742169,-7.479773078712527,-20.326723868054756,-20.19602523225981,-0.23219848385195618,12.242929394203667,9.230803479029232,18.608801608257288,42.25378065233669,54.725007462888286,59.290272016091166,69.98834279536364,77.92540043731569,77.71420050070911,73.37698852730756,55.70681208326095,15.34515383603685,-35.4985522720856,-72.43552868176705,-83.36253190429296,-77.88586324100694,-69.51303735723985,-61.20813158411044,-53.8722387879211,-47.389924439994246,-34.26590808531793,-13.661177123721703,-0.11174521746293209,-0.9628577222748795,-4.551203038405802,-2.2998807470085687,2.47821330213827,8.252332710343891,10.601090751545401,0.9495421768271441,-12.4799496326883,-15.115588207721881,-10.949198712254816,-5.890716377833218,0.8440436497109882,0.6701832151682598,-8.282476503237563,-10.667026428189402,-1.8904780883727441,7.740826866876691,11.92104039616072,10.020334548130187,5.7268632771938535,5.20805531270492,12.334104451813813,24.176444462009783,21.473757664255928,-8.55180909245799,-36.267009353687705,-30.118002631749285,-9.002704024197309,-0.6784002155024194,2.562860958891063,10.88592905991582,9.333153256515551,-10.38207361707024,-24.136878914620105,-14.99039236578876,-4.536430336049989,-6.694231693171828,-8.754859251210938,-13.078975255337223,-22.427318501954755,-18.002800201776164,-4.374655338923411,-4.431074125018389,-10.729691292728269,-7.616831077099531,0.007956231408777548,5.047554379897326,5.477454061225172,2.589481619525321,1.091200258327381,0.9643318108753682,1.1068293161911809,1.9007951995908385,0.2492671473344883,-1.9595762192924555,-0.28142147831525227,1.604428014277574,2.0268491458542,2.786659680442804,1.2940280671108964,-0.9516522110968545,-0.41631000695740195,0.9684217581286609,3.889450695131849,7.869672254737388,7.329520085739748,5.08155315521323,6.62478452522353,7.184340306777409,4.4654735721224865,4.020564137745013,4.887781275762837,1.9217265023081087,-1.1469536686769215,0.3777349469797189,1.246086291708905,-6.671384582481798,-26.5152237211607,-45.85234558353176,-46.960880787764815,-47.17956646232724,-62.91818864720125,-65.06356632713982,-66.60329168581406,-105.04624879710033,-117.16635271804624,-20.20788627473199,254.22020941842618,706.1246075572677,878.6123576151358,277.6543318148275,-503.34191947034304,-513.5838367256756,-93.64203311119815,-47.59839851627081,-167.33952502523744,-74.18632912904212,-16.618905086976184,-83.82228721753052,-64.42778086588584,-8.620755581531476,-22.91142542610664,-30.244470894059102,-14.792487399084825,-18.88685419715073,-19.726833942431,-13.971665396553181,-17.749743697400937,-16.302745321679698,-11.473504807570906,-15.234295737066189,-18.696046749241333,-19.013410967242038,-17.3432323512586,-9.263582213378779,-2.3426809504513377,0.41189315105627067,11.132957725179113,29.406490010643715,46.30327467924258,62.7063131101507,77.21212071769284,86.0881878752022,92.55531472482413,95.57618468925996,89.73762433504504,72.86261641871866,39.75694446245092,-6.982124351317458,-46.11443324893157,-63.71598954797689,-65.19374950195598,-57.423159706990155,-51.03544820097766,-56.91385500284561,-61.96806677219945,-48.58405388498049,-27.575226926039974,-14.326111341848181,-6.771540820221432,-3.697374820882821,-5.525367472457077,-3.7508657846453133,4.683705567526137,10.610656819447101,8.47017348589188,2.6185571018428675,-2.5243274755670297,-5.793416746933436,-3.212934173605898,4.443317778360977,4.57919747626849,-4.383386959271242,-6.501180629203481,0.6712885656578551,7.650733713954735,15.564269079967012,21.79766264669626,18.904479250397564,16.68914274582448,26.34892200256089,42.32470215796158,50.749255016821536,32.067100925239004,-14.517712409611422,-52.04849572832509,-58.060189000096784,-50.82235610817993,-41.359113075926096,-30.35203263384556,-29.26883927356573,-31.18941678220942,-18.729764313582738,-3.012617290453271,2.333892359731948,2.811489149550577,-0.8338725761378321,-5.556623134761715,1.3525886390726805,15.722210380941814,21.244352098628926,14.998755301789235,6.369392897606409,5.384066032891151,10.569961489341875,11.283994804052973,8.093540533557317,7.665960335176231,6.462379264140683,2.858478178476282,2.9383819292160878,5.963608160662871,2.657247974076949,-11.193665422872447,-23.98840779975799,-21.021709204244505,-7.607015183363865,-0.5470309206233264,-7.155975834899786,-22.492256702923328,-31.47529205126817,-26.183319913087544,-17.94130901954341,-10.822326198933938,-1.296249656852936,-3.047525531329292,-16.59130030431726,-17.574672767767204,-5.333389102064791,5.653901156600817,16.422991123767957,18.55692229499723,6.229383038988292,0.023338903699646973,5.517851709800939,6.608089594739871,-6.755763224764513,-36.184977195251825,-57.00633209121973,-54.50941901283795,-59.55136791222728,-64.06863548861165,-53.96892391818781,-85.44776595362848,-126.53416943195884,-67.8411781671775,125.41320909219738,502.6664710030856,848.4807314734829,542.7509368864287,-316.911586410311,-669.777327870411,-281.641907752718,-20.945425036357417,-108.22206115071043,-91.50820953515996,-2.042723103747349,-24.62232797230005,-20.399371767944405,30.1289015846205,21.94921576205122,10.234603117747419,28.388298143755314,26.713452712519228,24.649392680847075,36.690903036860206,17.523683719230405,-29.932216056695314,-53.734530081974754,-43.331277929057016,-28.754150829408204,-23.106813319155194,-20.499773062755395,-21.228913536503274,-19.820695171075624,-4.853416858852974,17.29932569272392,35.84405316671442,50.85522255207981,61.244820231194566,71.57150606316836,88.4117937939296,96.93952404796642,86.89735900403167,74.95430711537094,62.18085263528657,31.150512769733552,-6.458584612639866,-29.90601727141716,-47.6550285386012,-66.70090917711948,-75.8984695631178,-72.52749186614162,-60.467935000412126,-41.665165983503265,-26.32943988845389,-20.97754293285987,-17.233219544949527,-9.747858174907277,-0.6474579307214912,10.109294474792577,18.141842830270242,16.44113493373841,11.566400207996924,15.215198148535649,22.275041131840098,19.14808324850254,8.062707362637891,4.974734096240824,14.77295471648242,22.46727570290445,18.069824276233657,13.643900320229111,12.170752970393295,-8.173342748323094,-44.21974037996146,-57.28458342618183,-41.38520223074825,-29.942411928930277,-30.282072612183068,-26.303038476200648,-21.492906493588073,-20.86733311883355,-14.147332161739893,-4.134238700802136,-2.9504613171174867,-5.781126226562797,-4.910866844643852,-1.6454691210601453,4.328117167449957,8.681712495491643,7.050828809068375,8.00326755087243,12.428116221321455,15.040715416102955,21.637488632010022,16.91500490286991,-18.73803702924618,-47.26300486213952,-34.27893079323522,-15.753487092424924,-16.107836726881345,-12.760307610982231,-3.779917920751828,-1.029015009572582,1.3264801092813912,-0.25284464013779306,-12.061015579850878,-19.622481042757435,-13.94634936443727,-6.633883597469428,-6.637840622749261,-7.246089912222348,-1.7711129320914232,0.9309359160950335,-4.09880656921776,-4.385032573048046,0.7468972400264873,0.014534368241050366,-1.7159985624386964,-1.5748942843679603,-4.238853621695679,3.3373156693373485,21.471916221216254,23.96744164800251,11.357889603412065,4.638167524311259,2.5722462173642238,-5.08827214340864,-22.82842075077118,-41.057725627743565,-45.04858144134879,-50.5865675780175,-61.0145968494102,-54.324797049875166,-63.14198367018388,-96.11685800569401,-72.64834527832679,64.31983536613365,374.57443299209024,745.9644475490384,632.4804014640085,-125.8380153208739,-650.2050002130079,-398.9081065327889,-50.473344927760415,-71.93412522671034,-93.6936295656751,2.3257885511632566,-1.7802971730708705,-29.877896382710617,12.632688797972921,23.825320627823544,6.0538159310949755,14.05066090326092,12.296753679633145,0.8500250574064321,6.7138803977484525,9.87455488019489,6.061733510694712,7.035386189716657,3.1433833307916466,-0.3568192389972946,8.906011359506373,19.075450224167888,24.26007981031116,23.948367357207886,2.8682146381374682,-22.3818034251901,-10.214997980778445,21.04479213250005,26.36629341670649,23.23312505055683,39.48468568105215,55.970741744823435,64.32005252137621,76.93090602536046,78.07022267600412,50.36672498116518,10.625260578443381,-20.921274511396344,-40.56780875209477,-50.007404239642106,-54.956309248228635,-59.34820166552575,-55.985395874587226,-38.912808035772194,-16.093694652825583,-1.481441234519119,-2.5598046188719508,-11.286322386284272,-8.594718893192088,7.840536532228172,17.799567331440116,14.106681843161123,7.595637388369841,-2.236376373311437,-15.750217295320862,-17.747317543095093,-6.916380520177384,1.7804873866378017,4.454170157651742,1.1756266921172944,-6.6156705066072465,-6.776956675915699,-4.042576916168208,-19.350277033734685,-41.89841364228444,-44.31262089049298,-33.20516498281293,-26.37184661013555,-17.881943362547332,-5.577297862783752,-5.720009194076297,-17.40768003985879,-18.683618869661395,-6.35690910427239,3.7036711454941873,6.348070302558574,2.8439832608051496,-5.643624620337725,-9.251277860983821,-4.294620423230201,0.7525769903560651,2.7558638970897693,-0.062130413958986,-7.959481665717101,-9.514743203583208,-1.451807048251165,6.786347220796016,11.575632939971005,8.894519426009944,1.1455870999292477,3.003018118789379,7.8074149969139555,0.692106992791814,-4.811484526733979,-2.0807146913737986,-4.2270615419368385,-5.318910402642318,5.903326554507979,21.548863792047314,24.02289767737072,-1.7335475090569794,-36.605252166711594,-40.0942065914001,-19.564116866526923,-9.281626675166628,-9.685200407186755,-11.014070849132487,-9.068576467471466,3.0472890900237353,15.237512433309663,16.861982577030922,14.155227584761702,5.594475489734746,-12.350733077824916,-31.477386063358455,-40.31480208518016,-37.37700203196368,-45.0927299551671,-65.02564035640249,-68.83749989589992,-77.1550303672797,-99.62990844542831,-71.62045067481606,60.73877013222295,368.20541197851026,745.1745758405499,650.026751877105,-81.81001976369257,-603.4806090523089,-391.7101975498957,-80.51924296608834,-95.4649656100532,-98.79916303822188,-3.532211348278544,-5.2821167075179005,-24.798863178996246,9.469750989247718,9.292011154209913,-2.2775497888654703,17.174424465415235,21.030955041275583,8.474119480154208,3.1551855262885242,-5.278726591872955,-7.776842161943571,2.575945114629368,4.5510884365645,-4.03050319134745,-10.085138888430262,-12.24686269523828,-6.231522685516307,8.692384626866414,16.87251446806673,17.29954284645236,27.00600680089022,39.34154723436742,38.01962684838195,38.19738169075734,54.09024200498706,67.89527084156084,68.44661430299175,67.2248544921689,68.21348936485157,60.13498134468057,33.562772019164264,-3.04667341797155,-30.29970904887818,-42.893596886601344,-43.956334436823134,-36.239351315615906,-41.001744136170686,-68.50472485111929,-82.06540968683309,-60.276418236212805,-35.47269563274001,-26.343106919128616,-17.07667006077601,-6.4079545920027545,-3.545158064953924,-0.01746526087526412,11.11809478275957,19.33967443991874,19.77796013962537,21.303996670081634,22.09095725646199,13.707193715543788,7.086487220295121,11.903213139001252,14.157671009261303,6.72128261689606,-0.12078610031779391,-2.990719936967894,-3.6153966852634944,-5.563095389733153,-19.135514270251388,-40.63419312899007,-49.752549042382476,-40.16075131943909,-25.157565401565158,-18.407283641317626,-20.071838093909985,-19.388757277590862,-14.278224721129376,-11.159905637385428,-7.585195509767452,-2.42858868130336,-2.1144230712507976,-4.954367375628131,-6.7844726730171825,-7.1932240918213814,-3.563096389582208,-1.0555353964293435,-5.204002740928628,-6.412167033903252,-1.1328326331579017,2.925431567243379,5.244546921322463,6.048289987926738,6.222422442133279,6.5159823314307985,-5.1559868872745085,-23.09389809035828,-20.740640235398917,-8.899345321310836,-11.760891470377636,-13.69090794798361,-6.942807682263984,-8.952674942720611,-14.500228902861826,-10.315037183294113,2.313513281898228,18.914939041054655,25.501775320064734,18.453291492772898,15.925778966817088,17.123056414215558,11.660430105662025,2.4826754638213844,-13.06509679809047,-25.38923465339816,-33.55589227950804,-70.28476004067788,-107.36243045650016,-97.41446565319521,-97.35155034174397,-123.65630250668931,-85.68144937629911,92.3424939997924,468.5906199798414,804.6866767797655,517.4831628298699,-283.4910906827179,-627.8083596663239,-296.32638252680306,-49.143152588985494,-89.71181806161071,-49.451844858370706,29.864227479299345,0.5098222273584696,-3.640226023109827,29.13947543041859,4.84203698996426,-18.29827616349235,-5.518165121167055,-7.244745989390109,-14.517975851632379,-6.29777839961021,-1.3189706308109397,-3.3296205959233003,-7.595167227264896,-15.985857258287501,-18.53166873130636,-10.329732519002478,-2.912845630283284,-0.8474505136964261,1.2019299398779175,3.7157254305193668,8.729543594183706,24.939805964648244,49.22381848647812,64.75297893453029,67.93252849794723,71.37854911286068,77.79857647359837,78.2622762668963,71.27305279787868,58.458803479456506,33.53561336936651,-3.386686605331419,-36.40311309208979,-52.63993537494964,-56.83427247524435,-60.91549463572217,-66.39855246292615,-64.09353162172155,-50.92560164261094,-33.31543859591311,-16.703749095119548,-7.346514204698881,-8.315400002217741,-9.457116138033328,-4.288404457961384,2.1572925426626712,10.176118362157938,15.279032303195397,6.195867857926364,-4.505298957184774,1.4187591532575115,13.082635059307993,17.679475399985645,17.206555102867327,12.070645512095606,8.858293722801765,15.527263387175942,27.086235427255197,36.70006047906515,25.28544635050455,-23.092037186320695,-63.65066179519743,-47.531934560538176,-11.689247592740976,-1.2981992788534935,1.0480051055860056,6.520756880665463,5.373054553861108,7.79071594158168,13.231509729820843,3.33343185188094,-15.870170061470741,-26.366149780441056,-26.843970082144764,-23.523558174221993,-20.738933157404364,-20.878317889931306,-24.924599022371073,-30.09431038995609,-27.39428752991389,-15.51846615329109,-5.212062626704885,-1.8842194406835233,-5.721591553057543,-14.249272937743843,-14.84060096751067,-3.990199145323249,3.783988568512161,4.243914877614477,3.826239307894671,-1.2831539845215403,-14.848284519625675,-26.410051258392674,-20.482496172937623,0.1053113653828408,8.451927959908037,-2.8765800462502398,-6.281698826204169,3.6566301675626525,5.436088881224041,-4.93400381012073,-27.774320135418673,-55.55742418218959,-61.397150829294915,-56.70532951459424,-63.382881703804564,-62.5473550605944,-74.59198857106608,-117.35195276014676,-114.62148287328965,3.176144078458293,306.44884914845363,735.993642439117,761.1579598835878,57.03854065543479,-602.163286166821,-476.3554584071945,-90.66986068194288,-53.17459672451578,-93.29861270519905,-9.407764960168407,7.131602043984685,-13.542845302069427,20.357402599221757,15.64672998759917,-16.304385378212316,-3.737923899674721,6.002816603482311,-0.27088545997094804,12.647000261946873,15.949704784903657,-2.4786292654275104,-9.019639610588042,-2.6398069511387465,7.142699601727104,18.978836667880735,10.190118878545997,-17.446428289501217,-21.823598213251685,2.9968061087826463,26.232633237624096,36.31709171935148,29.114771554036892,9.605792388405868,11.085742239105187,40.08511929521249,62.32693432953625,70.8063365701698,77.60020132060043,71.2966529283159,48.97179332692053,24.101411770563047,-3.6180216981272526,-30.474270552607802,-46.52149327964743,-62.94402416382846,-82.09484708357925,-79.74481926774837,-57.119933477405525,-42.47776487374881,-37.04988353873395,-25.880218740624983,-14.365640337350234,-8.365832178993037,0.5935571047031143,10.3556341894881,8.107121889685411,-1.3814050398717512,-0.4038078998431107,10.07330105298555,13.261402071855255,8.04623609312701,4.729489836964308,0.7283537374969562,-4.7767914260554765,-0.9261181453167697,6.049751828245204,1.307269096320105,-4.5687986565531205,-1.2018152446867898,-0.7496531774650252,-3.0258519353294417,2.6258358722822357,6.079380728291616,0.7609718295977246,0.33251299132808737,5.685809125523917,3.0172036080775686,-9.059851832232582,-20.06727316746564,-21.708130336407642,-15.67002651781853,-8.6667397329932,-0.32892613146416827,8.321541237131232,10.469766889965952,12.326554403299202,23.26139103913256,33.245702275558415,33.08860072321185,30.650019054653725,28.997722492985737,18.954906045617356,3.176274231023327,1.041079537795997,8.051593383495401,-12.011316459977621,-57.2117730780034,-76.11650964870623,-53.92482934332348,-25.802916556947647,-13.410795747250312,-13.495161505905045,-15.824920340435689,-13.164680615306466,-13.129262300134783,-24.817927999286592,-39.73287409346537,-46.565457634104455,-57.24934402924673,-84.34572407285035,-99.28337255622893,-93.20205949728611,-111.84084555187894,-136.42048542258289,-84.30557416705757,122.16190614842992,541.4015656274048,869.0863967705212,500.5772225609817,-351.1429136692079,-659.5133464161568,-288.3091573493223,-50.461767831335486,-104.21999251670218,-62.48932161394403,11.519488368200896,-20.04997565070478,-14.977726139658138,24.89365271976725,11.25411640608228,3.665473604257504,16.88341134754197,7.7406863179059044,3.138414526500101,9.276977244396004,1.9306213206954692,-2.07950398953803,0.44565419735604106,-4.677761906404576,-2.892906892779786,2.4703651702671214,-12.190786415044592,-29.798949037146727,-24.46177210209241,-8.031844918870512,8.29107364337105,28.431432684108287,42.85767549612261,47.25673415057858,59.122771447271795,80.65288444234457,94.17140690142932,97.78422836618492,95.38059115168386,78.28013316036893,49.439154052870194,18.4357818923296,-22.459352933336966,-68.02441708741428,-91.44343239069813,-89.75385012275157,-77.82100055480015,-56.58445554545151,-29.174055832611483,-9.010905681112611,-8.755177511505906,-31.836309303764736,-50.52178420201185,-34.82398629182162,-9.278173426732126,-4.3508932513862355,-1.6901820070041076,6.587892639990036,1.224114880532369,-6.709669303042096,0.02011808407057991,4.636850513178834,-1.6092742844226287,-5.176555910865359,-4.316043256464971,-2.710673942803165,1.7513999801608602,2.5937490166167656,-4.671539325899786,-10.842617167890927,-9.876414756958782,-2.2862340515519186,7.544212616628744,6.391046843175121,-5.993715331626199,-10.456537737489272,-5.010757928458345,-0.633619426366774,5.597454242740528,8.09191708008778,-3.460568643054833,-10.439724596391521,-0.16862414083027777,8.416250377369973,8.468393853602516,6.849032392339111,0.9715708585195448,-1.0066076502878312,7.4541763417075995,9.940630281215167,4.323041989982591,3.188248172392111,0.6711534004581714,-3.778789509079209,-0.1278494711402769,4.291932752723012,-0.2334449656165627,-18.635396812711043,-44.21455410266799,-45.65401764883862,-31.96199891453307,-44.90961501523426,-61.65653019453237,-68.08095052001374,-96.75568273782339,-103.13589911868922,-18.869541281848385,226.16113389920469,664.2627362737014,857.820559690974,265.40402630870653,-566.0088394252214,-640.4899783489161,-208.85861342161698,-71.93819833747025,-126.59472455239914,-46.62131960330881,-0.2513445152277711,-30.918882094785722,8.952684585358497,46.16469798014065,18.40492966873791,9.117101643726475,18.27868347085783,13.911900759912204,24.93267110738151,29.66004988468379,-15.07692888771117,-64.12389181467309,-61.574090345182896,-36.4268174400893,-30.248047073201754,-30.81198539583939,-26.318869011779093,-24.581279656873384,-16.0218514421501,4.537155082764961,22.832592306203544,36.8503718447881,49.13043763707881,55.65692824065464,65.41349194442209,84.56354774271952,97.88029551405059,94.02200569991601,77.0925142214678,50.45077376743872,15.336796952998231,-18.609464992077537,-40.87389704100763,-55.986077584047564,-68.92600069169102,-69.32901879153498,-58.34684512219308,-52.49242529325911,-48.95725643935303,-39.500313000464644,-33.4123325046813,-28.384740541594326,-12.536786211132002,3.3583523935363786,6.582505378983676,4.287123925890991,2.714914585065709,1.3369106589223358,2.8605176817086626,8.814356314060259,14.712785052161184,13.941178639457288,7.434232057998101,4.335634201118881,7.086104682530321,12.243532759747293,18.29313660649498,12.787545465074528,-13.580818115649013,-34.15653149098492,-23.487027588128022,-5.842261138391462,-8.29162132713347,-14.830172052766663,-10.139707650027269,-5.088619427251789,-1.9370436416294732,6.2766248471423545,11.016312782091486,3.2288052546124044,-9.233577267088416,-13.394378128458202,-4.229274169855195,8.990008362782392,12.566607699532483,8.892139723508805,7.115056346056276,8.895815313799542,18.74765440214989,29.55517048817708,13.611557743741026,-24.83092905221953,-41.914450754222905,-28.496103598075926,-17.072825289967504,-16.976746672432114,-14.800713899363656,-12.369355109617228,-11.12554031309966,1.108893563563246,17.7053188452286,18.581609517913925,11.36509266062823,10.526603308729465,5.54099494544405,-9.630218996338886,-25.430210398840792,-35.40380782082715,-39.3124273164664,-48.28939451884855,-62.72768745753825,-71.75486663071963,-96.936975268764,-130.81643421254694,-105.04204766786387,35.302533055456365,373.7439516696847,800.1795220645196,725.525823989931,-57.05834304672207,-643.8968909551567,-414.89578828122455,-43.03437559550105,-57.817269567410634,-93.68646598530376,-0.7655444115798531,-9.057510803162799,-48.1545456348589,-3.3592563627611334,14.310995045846283,-3.8914466736573203,14.187181994981739,24.178763098594388,-5.789875006680983,-32.242617582053654,-34.41408442449273,-26.520782686833726,-24.16131743750146,-26.17195483405696,-22.303477754413347,-17.81623856958568,-16.042189474230703,-10.808490404064017,-9.82210788011474,-12.058785647720084,0.18522946823924968,20.588014609116808,33.62476935214852,45.5155112926184,57.83674613358408,64.15502609208414,71.57790048561662,82.86337766359111,85.67018631519231,69.82456056747952,36.299268239659945,-0.193336095758478,-25.615265635734612,-44.640436586795715,-62.15529607970103,-68.92051961721012,-59.75544329457314,-41.46614481604625,-23.471952137363523,-7.506639099499706,5.428820885396945,-2.7274738524114603,-34.12758568692481,-46.2344113939311,-22.25966705340366,-3.5271366255540357,-6.729116557763323,-6.168127666430568,3.4562675541106156,6.631326579571082,-2.103529511052633,-14.76361594982005,-17.470793435099466,-12.305332074790144,-13.140045986024429,-12.833024612974686,-1.9429947451314753,3.697513804104819,-3.5001750260859428,-8.47722758071466,-6.278063038319127,-4.5758366372684005,-3.3243033643790096,0.762083489964331,2.9904671969005783,-1.2958397643168977,-4.325183872992469,3.179289414248192,13.63276214365727,14.777111608892259,9.154962029637737,6.848240831237984,12.809900609257795,19.445830757802383,9.125569705777021,-16.42613471282112,-29.483388746435658,-22.199875486078305,-15.232314489969559,-11.439678253949761,-0.0676071607738713,5.475677692606872,-6.867032798464489,-17.385888631840064,-12.350015467758285,-4.382934970575273,0.3981186389031053,4.2236238244358235,0.1575572027368306,-9.373224618177092,-9.43931303334879,0.17261202688947308,7.228085539695734,5.282989845083845,-4.72929942242329,-12.600273932516338,-4.984391992600875,13.906018675141173,23.934803803821666,17.082579655387786,6.589390479911308,3.9564044040792776,3.0751053615746953,-7.495629338865888,-23.828043424825566,-30.857085621574498,-35.52186837446335,-50.87626437805332,-50.55798754877663,-32.59963209405319,-48.404859478717356,-83.7912526609243,-70.41933803871387,73.33757846339398,454.48619556208104,809.2658735670541,499.40376371615025,-329.8150328626156,-651.4247847510928,-277.72212051299357,-28.003435806804255,-98.40478279459147,-81.03141646989701,-13.258783463942137,-50.37855800245387,-48.45402585290867,5.974707233162887,8.178208807667485,5.628228179381205,19.309598743609538,4.119417602206765,-8.633194756565361,-1.2161884554320839,-2.191329382354094,-1.0950793816284254,6.132507343464304,-2.471345876838074,-13.208581488905,-2.702789444652093,15.708807317918042,12.759001567590772,-17.922334507221063,-39.95399897796706,-17.73052879122692,26.730011871311085,52.42529686081234,53.69004743855743,43.1378875150388,38.39181227824359,56.28140188242691,82.567471401642,86.10740040445206,63.40664039825511,31.673292250951995,-2.2291934869482546,-40.892870103065874,-70.53144305266964,-68.63945795783079,-56.212344464086506,-69.7095081826962,-76.980419339158,-45.38251257526239,-24.27585354639287,-28.028854991763986,-5.7730953267786855,16.74082208547771,-6.455827688906814,-19.320404985646586,9.206415071749884,20.42669560912732,3.839811852940965,-1.753870866756139,2.042986704102094,6.095773302991935,14.519930092499184,17.450288982079524,12.962068985419002,6.892258473692645,-4.817408143696628,-12.32363791098938,-6.572548187526106,-3.9318641832901555,-7.060357537015629,-5.519019300292138,-7.155050392832667,-0.814923575645536,30.2312459725497,39.45481505708261,-6.651430629861739,-45.617989343232395,-39.53765919495148,-34.81366033918791,-33.486503287964766,-2.335514563410367,14.619119472018212,-11.29410588311659,-16.085093563499573,10.850113895377504,8.306449773308001,-9.413222629198588,-0.9119062799887856,4.8403150517236515,0.7069388852638097,20.172735873432547,39.73470355607613,23.844361341572608,-3.6067710463531375,-16.80776232098163,-17.04094158664811,-6.155055607987112,0.9107712142844271,-15.175201829454936,-38.009812002669676,-36.05350372266488,-14.399337522125554,-1.1103345304927066,2.4208557530467116,9.719038282591791,11.798141509605571,1.8909175628911843,-1.9239783333255112,8.248534189188813,11.994173390345807,-12.446332492069264,-47.14460125471747,-50.129356854423094,-40.90922643977784,-59.20225002314231,-64.20928731273412,-54.498722534149465,-99.68455382016639,-145.24442552668194,-70.40601889398673,208.85154571435703,704.5035061293572,954.7364123545085,358.22303293754965,-552.1341550316168,-665.5612860424156,-182.59105707230103,-21.79075016557792,-123.2697201844464,-72.24440917511988,-22.70390804717978,-59.08344424242074,-24.671923578797696,9.512261869662282,-20.32798799982087,-9.763774393512676,20.050777086077154,5.501046567695063,-3.5037952169953783,2.516155092895845,-5.921696871913889,-4.851087889347163,7.4702150823183056,6.151984768807563,-0.9724238616965399,-13.02693697372942,-36.63641400569307,-47.03296673471393,-31.2861199371677,-10.39047560635424,4.886675940868605,21.019965933014696,43.17852209335565,72.9451346769284,100.5569414956475,113.11443848641544,119.78170615096789,130.5957293653281,118.78810640250552,64.2820634418672,5.624388924418215,-30.315302861316177,-77.24152412004655,-127.38175291482173,-120.97193781591542,-82.26729141125868,-77.62382420134774,-79.12800003224942,-50.655025984159735,-32.918304890568194,-34.851393125014155,-20.069801780603264,-1.000382025724715,-0.5545685465292287,-2.516395230363056,0.02513043145479088,2.157498698856269,9.235801049690094,13.484157635339578,6.369671463495246,0.18074924821059035,0.23226120785905824,1.1780039270544984,4.647046339302285,7.004920997662424,2.2902596086829123,-2.327391599965907,-0.1664009715366288,6.056943622572133,10.422995039065384,7.504971645175674,3.298725139147866,6.633457485087405,5.997038346313884,-7.2564052233104945,-14.904543952409096,-9.007973327157043,-7.299853273206278,-12.690388640432047,-10.84620279113773,-3.5034674826189347,-0.5967780745491322,-0.29905645349496845,-0.6264593330282442,-3.5967305174581616,-4.530464595974134,-0.21585507105457546,3.81838794057971,4.292544728296497,2.819470626435991,2.1207974072017977,5.7020047559321485,12.806380246157394,21.736249897860905,27.634840689853696,10.801761066839013,-25.246969357915003,-31.967208211617653,-0.138589557444881,20.66132061074877,23.052003765209143,32.21559408500117,32.56554112598056,10.290953889159852,-20.15076906981112,-49.16462503226977,-70.2549974845097,-90.31098314051943,-110.22818220994156,-106.90350391855137,-108.9830760448092,-146.05477144498172,-151.00702367412407,-44.131581955455744,280.2779989359676,774.0630126892113,832.8233889235355,64.1104875331188,-676.6433702509015,-540.0974614335822,-105.39362724141574,-67.05582273299936,-112.30753203005811,-5.767256854436425,7.934764423149176,-40.693348747574326,-2.7889434998313565,20.17215380549232,1.7990303453829384,19.57150404724019,27.28387815081876,-1.6194790734855893,-6.749595978917961,9.293009867649921,10.018376464822845,6.038756673499675,4.8755533692651705,-7.988787015915799,-28.16037584715867,-35.73428329572946,-25.554000692754425,-11.73083120284852,-7.3463221701838055,-5.064286699326843,11.03904010472342,38.112074287114,61.685189113549725,77.19562485508267,84.33615791930704,85.70491834142993,91.66330915085226,99.56345867246581,90.63016296159358,57.35252903293019,7.925028377001446,-41.10776257640414,-69.4495776518293,-74.17465701713245,-70.44272103306429,-66.19269939086104,-60.84251599290607,-52.840774376754055,-37.65155432647026,-15.982746829632152,4.434122443676909,17.367958318850874,20.055474225550082,19.349118205826862,28.153870820906285,43.88085979268132,44.89905775383623,12.71525765323373,-37.78451326225749,-61.04840079523201,-43.905747032741516,-24.279954648381153,-18.951417033044812,-13.092098218029335,-13.888207822087669,-25.05734744856492,-21.660480453199376,-3.3806891274317294,3.878411097401422,-1.8876005316265179,-7.7614854516140515,-10.031438645588352,-6.73840968636965,1.3555632299696256,6.88557033165813,4.545971434958453,-2.4028625706955244,-4.741286737063529,-0.563726104248718,3.4602553109526757,6.4084528729400745,6.288398840788077,-2.543668101647313,-8.59998953333971,-0.2998210691912093,8.931613789448539,10.793241472721103,11.183561753009153,2.2861011075238142,-15.962943321140166,-19.297170369941405,-5.689438164586311,-1.0635132304978785,-6.384659841352569,-1.2474970963886103,11.046918539854703,17.021060174494266,21.443675875365805,23.313112566277788,11.507220475962603,-8.742128448016029,-27.17359854868751,-33.51915058717364,-24.264436428597353,-31.845775706741744,-61.48888723630661,-67.83614657990412,-70.46612522736328,-100.10579252888459,-96.03720577801141,8.797149398636861,315.2012117646893,763.3237406133212,760.8162814209323,-5.4597170177258505,-663.220364956328,-478.50445794705945,-71.33441019887492,-49.84682251644734,-88.92065650033862,1.4839666480366986,0.4056375476954486,-47.57774288570331,-20.071674685974205,-5.8686134873533575,-18.46690554713184,2.298395000700511,16.895452051425323,5.738479725425675,6.262552257429965,10.405358119730696,3.617767450133322,7.572158656148765,13.558042068891988,-12.182896575727906,-48.01260839691055,-49.50004231444686,-31.62835106205366,-23.981955321665296,-14.627412200000581,3.192422425140501,16.564614231822095,29.03128288387886,47.4848292279121,64.84362921714646,75.55376073206513,81.49412149336648,86.29202299388979,85.30901669109444,68.39500602796443,40.79423143067744,12.742986044439885,-20.92558935378674,-57.6776857310414,-78.5559607194266,-78.32043712312588,-68.54985310830833,-57.73367255792871,-47.176572511409645,-35.41886689844928,-23.186789049396353,-12.840148388503156,-4.69140509789165,0.18320276140638114,3.4408459692876967,9.602783145015506,13.918501790590094,11.573019781743087,9.296476613447712,8.325692933578887,4.389419362098871,2.067008720820623,3.012545673805971,2.424016057119296,0.21551951071993783,-1.840438114510214,-0.255349933575894,4.846190132019776,4.16869804352042,1.388739648174723,6.936448333399076,10.595837254794302,10.306926422078131,17.366292652482358,15.580036255149764,-0.587277346077461,-0.16075450378268064,7.985440651358466,-11.873877846917736,-34.60301365096705,-25.62613402588718,-11.329088616774653,-14.587955633635517,-16.76344999705546,-8.714855713915336,-0.7986300890503015,3.961443553358869,5.888525094722333,4.120581755807771,5.781428242594876,14.116682918565077,19.374728359429604,20.380260709065382,18.49046628674402,-3.9720906936180995,-36.973445705892274,-32.506189398044214,0.5949126361045067,8.340219779372589,-1.7957752247137568,-1.4490713453362147,-5.696646428619403,-18.15584267502307,-27.536559928840802,-36.22671323634671,-40.558291726901345,-50.603552368055375,-69.89390519871922,-69.23487627081067,-69.57081045494155,-99.02958243289913,-95.62304517718962,19.733554526168206,332.11153116427965,737.9256658191341,679.8307495401489,-59.02430278139744,-630.7020213916767,-421.26628136328344,-51.55370673605675,-38.90446538691056,-59.43374062448003,24.367792775717696,8.665521195748724,-33.18915697567441,-2.0964886103328046,2.167833379675116,-14.618964344614017,0.7628692338262972,-1.9914118759411767,-20.218398384802626,-10.432662781878243,0.8692670361317569,-2.222053499120875,-2.1308046625804318,-6.147107077849531,-12.450897685279067,-6.687753107629794,-3.0311279526844306,-8.43413508310298,-6.5281771947242975,1.5313916906930976,9.581817326750194,21.67806160226931,26.8316258058136,20.81279476506285,23.773925760727263,36.25735729976108,42.564483343705575,50.144212062612965,64.23862742982446,63.869030524692405,35.86979566491552,-4.841782315596798,-36.97624981955712,-54.14105675817544,-59.14836448630712,-55.033590975897525,-50.9268612811753,-49.47192926933565,-37.832887227633265,-16.173995096055194,4.2677121228001464,19.67774998080329,12.063467030440853,-23.308951260237585,-40.74181221354468,-20.47951490116,-1.3944965595866918,0.1060794629054449,-6.05289953096883,-19.694591963543328,-24.610900952187546,-9.1586732369494,3.734679341250022,2.4620354963796895,-3.073749600876411,-10.500065443711367,-14.523543494511863,-9.036862632739798,-0.8872208760227593,3.3976069301994087,0.6639579000131786,-8.08892036588754,-11.632591384884783,-4.732867310853963,5.199620307459057,8.800941169640677,0.5649437630236891,-9.912608511210435,-8.670854044719626,-1.4853588399293578,3.456246923184197,7.173511416195971,4.233619525327007,-3.425203302095772,-3.293927747455003,2.452809490567785,7.330477432047288,11.79655135428251,10.499175390061563,3.196383940271197,-3.4610874399036793,-7.963007431517068,-0.7050761850343656,18.66624318546675,23.31577580155843,13.741034449205294,19.085864522752537,25.65809705283197,1.229484555128451,-42.725707072927484,-73.06304655626053,-75.29995705494727,-69.71044086463476,-74.74191687832342,-68.44562295006955,-63.851646507180334,-100.16347368705246,-121.64047966136935,-50.624758310900816,177.0777982435649,594.4225797546692,809.0509984538297,288.3278586445599,-507.0954445897906,-607.547412475217,-182.27486555823296,-22.794426752389853,-82.63266831905169,-17.664801634620837,32.41026228364743,-3.0528876421024904,19.88578728428766,51.23299117059968,27.512786637645334,22.50735348463757,29.548556526049197,14.995235474360516,21.27480880012193,33.10129728132779,-2.851943251080902,-47.50478965465803,-46.70419566630521,-30.92201849659471,-37.31329610739962,-46.241118862064155,-41.41664542244311,-36.111987326428974,-28.987802325930613,-9.169039482092053,12.595153283841015,24.017625774736324,31.120079006282083,41.63391421034851,54.12726176276314,64.70987212588453,73.61723839873744,81.01221524386338,76.99931345800834,51.118075826805075,13.337503428383753,-16.472269823624018,-36.37918578202604,-54.61721247845442,-67.04212502612442,-69.65952079523372,-70.32548354801568,-67.31623211950813,-51.97706960560597,-34.345430527932784,-24.79304973414919,-14.288183644632397,-0.8409252371535203,7.54314131078557,13.663127374146711,14.288742064211815,-2.1156525996117423,-21.73819819259807,-20.209899381323577,-5.721565543869154,-2.422892742677856,-9.539767103429938,-10.83375835593133,-6.332721572599624,-5.826112260216764,-6.479557659340429,-3.405299545887459,-2.479230116313584,-4.807722747020229,-4.296368197340417,-2.557134289888088,-2.962634571564415,-1.387611984506437,3.1625906109297652,3.8885020259816256,0.7260960360075313,2.7465506349101174,5.307585694586582,-6.495093859885774,-21.98773929314255,-19.841589368130204,-10.407150828815649,-8.134916906321033,0.06701727797062773,17.928296489795372,27.600785939209608,26.223897336534055,26.271824013970836,28.97413578917017,17.251201296516655,-25.585119312637485,-74.14245946904512,-80.69707656767876,-66.08131395629157,-81.11313542002671,-95.96885218544696,-86.80266190427028,-100.15380538470197,-119.67012766856016,-74.64886705776989,117.37525524665594,543.7849252587667,885.6317334364396,505.1463356609073,-361.9722976496521,-665.8983156961581,-288.25046891881726,-45.46822341176315,-89.0911103267772,-46.31857781668912,16.63258244594465,-22.121121024131867,-17.888272440952022,19.162093619197538,2.4709349776343803,0.7808996465050555,28.078466751414155,25.983202061924633,13.613126682831853,11.110798740808693,5.738658839109626,2.7884193659653103,-6.941399410035415,-28.59064201884562,-33.74836056329534,-24.2806832622879,-23.51326665426364,-14.420981603663309,11.555233212867533,23.422133586246993,20.363404749268867,31.818765282670142,56.31870712702276,76.84225396790698,90.64084695617889,97.1363992159788,97.36432358927368,88.36864491451414,61.92027850063596,32.42524659368334,12.211539973439434,-24.79810549864601,-82.44122973594226,-115.83536463956294,-110.13148635457361,-92.35050832479067,-75.60243684911492,-63.25341048216985,-58.75218984834222,-50.384603173074694,-33.27154503954172,-17.797816025989107,-2.580320315004773,12.391235685885997,13.528238170541169,7.806932016820749,13.439389041773977,22.422542114277242,27.179529465662075,31.44365382331257,14.36241818832507,-28.792539902749795,-48.27620042283226,-27.351810031040575,-12.123278431740157,-16.200116282071367,-17.52037597206357,-19.096320967825996,-19.331041165787163,-4.360710294157034,7.923210643396865,2.4216078675719537,-4.174719765998429,-9.042194598889981,-18.510482723097184,-20.052131661896958,-11.961022936174,-4.079154703684088,4.035848724534649,6.57618473216145,4.964878976006511,15.586398588955621,23.203837304218766,6.200490011913866,-15.95258653825543,-30.720376012693258,-39.69726564257054,-37.99892786418291,-54.31445316454111,-95.54680847811557,-112.67272145168147,-116.46880462052835,-133.6299054916316,-102.78460765482458,63.879814662878175,449.6379826679057,862.32367343987,677.6097016884796,-172.5891350224773,-695.9827485605676,-414.99470702004817,-78.76012371332234,-92.172274959047,-72.01717379077684,33.19137955442716,16.506756655385878,-13.15275787184571,11.789180587758871,-1.2282243653098188,-13.891559739058703,6.833892521485026,8.442374719018904,6.2754422839149075,11.764941991827287,-5.710519750750105,-21.37773891996091,-13.139718615729135,-4.688644677982378,-1.8950553447917944,-5.156266040896638,-17.944563724108022,-20.058668125968968,-4.412020013665565,14.300438557337927,31.7764207609889,43.85883560921815,51.696639966436884,67.8745989529474,86.50695444166057,100.03116443702788,112.60161697057609,106.46959320763018,74.21650252693593,45.777557187611265,25.381045936309256,-6.1307301276281,-36.698412312466786,-53.71043150307235,-65.84340376931435,-69.63342195190859,-56.567160995454714,-36.40599624688057,-31.001695138204028,-48.949425876272926,-61.47882469399815,-41.606148529901006,-14.09767047714952,-8.547614650600863,-15.435999603795942,-21.201795882346538,-20.685787843605556,-7.584789891511992,7.496947600063429,4.802912420432499,-14.802526266869318,-31.02327824610299,-28.5446711311763,-15.858053995327651,-10.133908849126733,-10.796697064719002,-12.225638659481898,-16.553547902731765,-19.32722279967327,-14.615812656755454,-5.471600769426125,2.335024575001629,0.05064896427378329,-11.000690047091236,-8.74333661144216,10.924321417803363,17.747900795414616,1.1157929275403795,-12.508175710206245,-12.171341986873319,-11.953254034935508,-13.961429118526356,-20.06023859446731,-39.31593522695866,-56.21927258944466,-64.10163061198213,-79.07318024883544,-80.46318857749695,-69.80352978624897,-96.65238639160064,-122.77877205249354,-62.58335242797558,162.0544754868798,615.0726457398738,915.4526192866374,421.8995864152847,-484.5379566491466,-690.1873354038028,-240.8044064947037,-34.55126875860077,-102.91493573147233,-37.775561538466675,26.854203085446116,-19.21767310179651,-7.742898693348874,30.57970164298306,19.04588229187584,25.62050072801327,31.594378660099018,-1.7092836582039403,-11.428431835060735,6.785141196956724,3.462906087936376,-6.379440997700918,-2.707175542567466,-1.9534258025269384,-1.4486091582556124,11.487083450699402,15.751481396238908,-8.698071303721907,-29.12655549416347,-10.525186877274999,23.099310824937874,45.41110705476569,67.20197931652945,81.53845342423986,73.8300957213751,70.06840858683289,85.49059553165631,87.64513887704383,57.64316080868652,15.738592217566936,-21.20935878866751,-52.44103677013169,-73.19840610842252,-77.71251223982236,-72.58786792991044,-63.90825473078677,-48.07865041991322,-31.60388008573315,-28.434515694900465,-33.3691113569929,-31.735322353297363,-21.99859524917504,-10.046566451172065,-0.9758395355314793,2.8540310216440528,3.1001081905499337,1.8384939529278217,2.770915548375009,6.730640642307315,6.7681574138808305,4.607846501166867,7.482050282028087,8.137127191672919,5.436877964118457,11.567487914557683,18.643893104007866,11.317308234645733,-2.0649398231367595,-7.443148172061699,-1.1195835390538442,10.076627985400687,10.567046868991245,0.5273427945076214,-7.568300988838498,-17.61227279580633,-27.147332929026064,-21.0138602315145,-11.526696558721062,-14.17103502811641,-15.40185797036677,-14.30670050967911,-22.387678186325303,-26.61727288498295,-18.23329706995877,-8.994456576358516,-2.3888857792480813,2.9083661819912727,6.4902418860386994,10.60145193263223,9.327561481825054,-1.5165417347601942,-17.511671824285692,-32.67087210598294,-31.82210915028909,-21.251170624190955,-27.76057436667135,-39.62084010037587,-63.62606097714021,-130.40840109864305,-167.51253404735306,-95.6901088395442,120.91956820171512,547.2723012661604,844.1323583397511,376.2811061152773,-498.0165293762518,-670.6803307523165,-199.64497736709512,-7.623092691750969,-107.57741566104696,-45.55162140694112,37.19665960307796,-11.621892321149716,-20.878603158454677,5.703027179196301,-12.82901657072,-10.239216855187722,15.09415112304234,11.696141359242418,3.492247486600615,0.2307174346939096,-12.217629536134874,-17.13561775764412,-10.740718786733355,-7.623578335980433,-10.522638982034366,-17.16797396382701,-19.333198982509856,-10.025474446913162,4.093330937362676,18.930406681526623,33.76310671763511,42.901121395579914,50.90417302584344,66.85835360449705,86.33557566867232,101.72417717083134,106.71068223921004,94.10319166255428,68.5115245847189,38.20260336905816,2.8348035412248755,-30.885391280847756,-54.62893379162361,-74.41987514614803,-88.79065462912573,-84.25340801688553,-63.37897741562715,-41.620333255703144,-29.586963719092385,-28.906376168177108,-26.95127742194525,-12.470710972383358,4.3675859705474975,10.233626440831195,5.762112722046009,-0.6931024348534365,0.645648988888297,9.33732906000169,16.620534022014482,20.841090091352825,19.53076047398063,13.559837684729978,19.165681376859503,33.27469397610123,30.0475009509911,8.872344018436117,-17.840620119798167,-46.88083396664767,-57.811218963112616,-36.998034407617354,-9.603622442743138,3.947523292556234,6.916270337121254,3.2946139174929705,-0.06676628532107998,-0.8049870360566693,-4.309547946589685,-4.30264554683653,-0.8337175391468961,-8.173199214339089,-18.564358328825556,-16.45551453476675,-12.574926477865038,-17.887155553861014,-25.623131775940838,-28.854924679701234,-24.584529364666473,-14.293763966377494,-5.826911076966002,-5.068872882602086,-10.974138607313467,-15.50392662446961,-12.375019602076666,-5.872215208173444,-0.669310264314813,-0.0072329026279511766,-9.165371565077002,-19.18000611993034,-16.047286242321878,-3.4245579869315286,11.614603962473005,20.251512667937128,11.60013274558601,2.1701323755360082,8.068909349272534,10.442555123544263,-0.7829855616854253,-22.222855028771207,-52.02683113503752,-65.83627238851162,-64.15389597026083,-72.86004785206524,-72.8511531132764,-77.30964073135974,-122.55419695921427,-134.12351466809764,-27.4615536699435,261.71372110092955,719.7612125922667,839.3876248467319,152.2859283187438,-618.2554063912924,-532.7675802965803,-69.51267884141872,-18.39641993931273,-107.05278760508294,-12.913206168174888,22.78639287679598,-19.68383729906127,12.054442755758783,18.360839763565806,-25.744754366187372,-14.841844058921174,6.742091027201128,-5.764588607529486,2.253919441604897,18.98351832378809,11.254115775780205,6.844003159221449,6.468366494524753,-5.538378311037993,-6.65645366706167,-4.961360612081634,-32.77684100201968,-57.79154583006319,-39.172219666457934,-6.844359017164304,10.332465223998602,28.510463938634818,49.956665575186754,61.12039611776565,69.54552661495848,84.59771276334119,98.58348467093248,98.96425705895305,77.14927387297885,37.923614566022934,-1.2624896564282775,-31.607270943607283,-55.97075573057792,-71.69256977526571,-74.32847199399868,-68.9213386390193,-58.56735646221652,-41.14626662073959,-24.960466421708517,-18.49289370476386,-13.091354229147905,-2.5999162179126767,6.632732028446992,13.974276493205814,19.287643068681685,16.241903196726174,9.152994960013404,5.195797886671926,0.9941592660003504,-0.1396636788134593,7.10011442749879,10.373972277124352,2.217833729702283,-5.256744727892551,-8.59543300717514,-16.680432467184445,-25.438870817427905,-24.789391348788953,-19.618203200559044,-17.934496983768383,-15.985434891346864,-11.128887373286801,-6.858504668595852,-2.1286028858980313,3.287480862964445,7.575103130086084,13.045476022005765,9.01162235723772,-15.909423025886053,-35.560980153618225,-27.482610837474226,-16.22860243839998,-14.987723712396125,-7.486457062767656,0.6297408459294047,0.07595303708861145,-0.6690120754561146,-5.643791956388391,-14.154067452137172,-11.204739253647091,-3.5558706819528503,0.12332747651250564,7.446892330380007,13.494912141670785,14.738586160580729,12.578040931179046,-8.141328569316055,-35.505376207866945,-33.76124194305138,-17.590596939263037,-17.04848288679821,-18.62924097742091,-13.893297954851038,-12.770210539835682,-8.938277268523162,-3.298845929934677,-6.925187372193248,-7.942257065103525,4.270405652757562,15.199079820836971,17.904963493863526,20.170460725264423,18.33103580446928,8.287328225646688,-4.368823469583139,-21.62614258289613,-34.39907044345832,-30.449307396752904,-40.86077922745792,-74.30092074415319,-87.16754597146588,-95.43620466580435,-121.39435535523032,-103.21574957859337,19.830468714726692,335.42671767006004,755.5804856108249,696.5927470521758,-71.25187784107199,-645.9265162409114,-402.51364416142275,-30.23125894811234,-55.685286263801935,-92.89023140064536,8.669906088389688,11.613168197231204,-23.36801594734837,10.07282214221167,19.731391459576887,9.25338561465572,28.16314626020158,33.01960100656607,15.4755100053498,-0.9116060989574848,-17.77096329853783,-18.714536733565875,-2.270857917254072,1.9046416966400308,-4.42865191142409,-2.0305134109193377,2.989638788066255,-1.419397965122542,-10.423470678291828,-9.034907241281292,6.459990700077391,22.97807777619009,35.08692310985524,50.07199951318334,64.1647262452663,65.45824560629298,59.33739337789535,60.97438083644077,65.63320852182935,57.930988867317396,37.320637873757065,5.154544007794156,-36.18668077464352,-64.05448938400245,-66.26206035463076,-57.33998382822612,-43.259361018326864,-35.632478856491836,-56.50634929312146,-79.08885438063461,-62.76572056367141,-31.446902683627638,-18.041362123799523,-12.622005109694953,-9.645028879724467,-11.096157757918146,-3.46756001389166,12.283800512962308,14.64594870273919,-3.3872873457936805,-22.416095037060398,-22.570529837530184,-12.655840817400804,-8.667058416485467,-4.570922818504206,-1.5706250698288287,-11.011501391533479,-17.014550746247025,-6.315505616066389,1.8626939354489807,-1.1148884978840456,-5.064290985906911,-9.24098036862668,-10.081118154455151,-0.6834081468330635,9.195434021600363,9.105610071386419,2.8413907637005837,-2.360266594666715,-0.36283018609325635,8.99945061999875,17.794811855821195,22.895726600291965,22.669715318786427,7.0852014730345205,-19.318380987489075,-27.562134013065673,-9.031596943732538,5.069354828891056,-3.0089582966672648,-12.942348934857588,-13.841561887770927,-15.808111453127388,-14.444630030712304,-6.145829408965758,-7.8919125821923615,-17.65054971005834,-13.778204850732084,-1.3008772311689434,3.2002747547984045,0.6323911793009067,-7.044598237866224,-11.484074311591014,2.4915296833604414,20.905744213989163,22.76984970160709,17.737799537300244,10.479504926082955,-6.191288930737354,-21.977992695883444,-31.221727900824256,-36.47045727041055,-39.58356315305152,-56.49916967114653,-72.29801967003712,-58.594235719167095,-56.82632730353345,-80.3927856104094,-58.77086980317776,73.0130814748872,410.01952541753036,815.8368270764254,679.1693341620696,-131.44155860187007,-672.8522828717644,-426.3550267120664,-93.46503578595436,-109.84430909890754,-113.80710565120883,-17.88557120579472,-26.265509975538947,-51.94643930857805,-12.137260952903462,-1.8508899813706847,-8.18623030477449,13.456843099497926,14.861158240720476,-5.413540287453529,-8.830783126337,-3.1407378552718654,-0.9576191920843051,-3.233629963539819,-12.590445861091629,-18.761076757545016,-15.494830881757085,-9.008037312625557,1.6672177421162164,15.697741345709444,24.519644827907463,25.52995984942411,20.333017001673934,17.925759480500346,33.42103149974349,59.84340666382445,72.3375723596524,66.47011519365486,58.33754920805471,57.17528078548648,54.34311458813471,32.29299598467869,-10.817256000982322,-52.69889279985043,-73.35456386891349,-74.69562316695963,-70.81473560206362,-68.60138695457425,-61.544472907061746,-46.74752951982449,-32.925814227192625,-22.898159185434658,-13.120002106400115,-6.452331765552202,-3.8003341892246905,-1.5800320016759208,0.006919350288992376,3.5492067849501714,10.373654823079104,10.882820800795306,3.7364969605346463,1.5705696757778949,5.782577638397845,7.632557097249809,6.52962703346418,4.883408110586997,3.709144733941827,6.722850843152564,11.046391185845636,5.408897417391543,-8.418818189539548,-11.874798774371287,-2.2165370791708385,2.5267938005125337,4.664658830004825,16.0758657597937,11.753638541448165,-22.860467738415245,-44.021080826590236,-29.811171652876546,-16.98912305682962,-19.00842652874748,-16.189728697520252,-10.15353660877894,-8.586525230676472,-6.329818941165646,-3.881528173021077,-2.7000691584912744,-0.8354311652800703,-0.08937415487092792,1.8290609982022068,6.829448918722822,9.942689030173224,11.266222890872502,12.441436688500254,15.002761412005457,27.071969875090176,37.13645527120136,22.474697229559684,5.538501045132151,13.588523757433345,12.85212079238366,-17.8650730005346,-43.30573278831642,-49.368078979897916,-48.48130118700224,-48.75237950885269,-64.2405078250512,-76.99363764920389,-72.45420265130207,-97.01454018760853,-136.04873536999264,-103.27654243847135,70.78205813911586,462.5030835878059,820.3663783091719,513.1604984411853,-336.92062294802975,-682.3893780137707,-298.78455805408544,-26.793746532477066,-88.44063774258889,-61.82222198014617,18.70136628733644,-17.040027728661855,-21.57020717061395,27.7996727863158,21.715065985862626,7.461093999645625,17.736273219261957,9.878380028936775,5.344707168445515,14.996437039479261,3.313513731208931,-20.54624480993904,-29.35934789047072,-26.623829420612793,-21.1069471388341,-16.071458862879112,-10.859734439033321,-2.797368562855385,4.279081685026998,11.432417395896412,27.344340917178265,52.01938998672598,76.47503402175042,83.30527568346429,60.8388022506776,38.036942510489304,50.968726739162605,76.37865001445589,71.79256143575654,41.27129028238868,4.808846389054245,-30.645429014278516,-52.86061132272276,-58.44910500628796,-62.69087338378472,-67.01795921763599,-60.61751057519114,-45.959087309443255,-25.85672074793152,-1.7332297259306557,5.845635909814209,-13.75220238893747,-33.02894471579171,-30.60512174848342,-18.08799809139124,-7.797736680713427,-4.3331202698503475,-10.124276182257535,-13.116450802414917,-4.9803260764536965,3.427771226602818,7.685761194182696,8.169947693383822,-1.820730737607704,-11.9406091412799,-6.546614273035409,3.040798669848363,3.8077367098156225,-0.12135921246602965,-6.323605595072154,-10.961254860149598,-7.3010071527113185,0.549843975404785,5.602365563914347,4.195757874881297,-3.9693165782401936,-8.425467069287636,-3.153749750311005,4.523483374960536,12.049452838483992,14.53504927710446,4.596002576550702,-1.16957702219067,9.186176773004682,12.209051656511788,-2.272371859164103,-14.331101623304779,-18.77370901096998,-20.74905039959868,-14.390450969552802,-2.727790255177146,1.67437113379071,-2.4904158241850967,-8.444773436202768,-10.427441291212785,-5.896402945996678,0.5837809177476962,1.547022683824875,-0.38885293800404375,5.569613581399189,18.049867742991715,26.606994813220545,32.45645365846964,36.085301295046406,27.958132578897512,6.050970010746271,-21.61220986196229,-33.26733901504158,-17.533686292914226,-15.260797245226932,-52.46341686936588,-93.30702571044206,-121.15527468263946,-133.1589599454467,-95.39658693623589,64.73653551089305,443.42461429781184,794.126495406839,495.50619632978345,-341.8485934213761,-687.3619033075794,-303.6016952864401,-32.252954671216095,-108.01369852930901,-86.10505005948659,13.105404555749288,-8.236261264772942,-18.961155907152463,16.021653490320137,1.323298369707473,-8.574004218156427,15.554289401513863,16.665515357050086,5.11642853152588,-0.4391989867665895,-11.80356365189353,-13.78633833216852,-4.058839638028743,-2.58032162009624,-8.241197033060622,-14.287778194452066,-17.02567866900506,-9.298470370031175,4.921204379147207,18.5193349564366,29.777662364766762,36.239779447812936,44.30617276216099,57.752568887136135,62.71495377042504,59.03055416575564,62.80845325514033,67.972734606062,60.85406498725875,46.71154730844208,26.58492895049653,-5.542390249280933,-39.954104049586604,-63.535697066345534,-74.0680083029339,-70.81372656521707,-57.321372600271445,-44.64736704790094,-37.15980705459096,-30.80823075978105,-23.332372567203706,-13.46425745692464,-1.3306436727899396,6.526265636917414,5.397311537888899,1.1443025643001539,1.383120422003044,5.9412657949340915,10.019710351904802,10.6496223609598,8.308295246485125,4.986474043385155,5.538505194739502,15.027427284167306,26.836027266065365,30.48490719962083,27.112151137536802,13.091621545895404,-13.057081397932585,-21.567321243093247,-5.302847619368549,-13.528918588517062,-50.38906751114127,-57.567941585792994,-34.64661847452307,-25.370149274191466,-23.321597028397107,-12.760612276889244,-9.377621547629317,-12.551017569157143,-8.090762118901724,-0.6188411689197615,2.206175434390957,1.42444352720449,-0.39253006910252886,-1.6674028513862513,-2.1569801535548505,0.5974071412829529,5.317338032088786,4.379466332857918,0.6189735572946162,1.4174575946653476,3.5610882127026353,6.3110430478041515,9.84337826122301,8.796953129191756,8.013321820058156,7.88980538143355,-4.70312278543079,-19.551723135750123,-17.357316952716637,-11.331964833047977,-13.515391763302677,-12.835921747602852,-10.387486090848,-10.337006663157485,-0.03175789423046038,16.366132185998456,18.698519979381082,12.302787641617478,13.07301358336948,14.295337287747452,3.0707072556426174,-16.766737480841655,-28.07569503936383,-29.762898649759933,-44.92189613296557,-62.358620059784215,-53.56610668159467,-58.6211964876303,-97.82980996353966,-99.6344580738733,3.122326825095513,299.5793828177019,712.1595917477762,682.0813072372362,-48.87459535504448,-641.3627242694272,-433.98253698558324,-47.337418852129126,-50.49044037416655,-96.10881375307855,7.804525285591502,16.526927026542758,-41.55217554081814,-22.535329138366542,-0.21627781239998356,-5.745409101569193,8.59914396336882,18.742501653740447,13.548546017397886,3.770763496796171,-25.7715296249453,-49.12052808499774,-36.59397786948162,-22.967979294632457,-28.488619687362657,-30.12918257961838,-24.2227300855237,-17.681051065258295,-6.2253415594957655,4.798474537286603,10.697138288736172,19.389724631703395,32.86182194711269,48.02784286112347,64.01036780264639,74.56577922083898,75.71123381222934,75.49536795221826,79.75884026923359,76.35039028029273,47.43521841943008,-0.055035945630902194,-39.01666568732519,-61.40791181606013,-75.60302772495257,-76.77765057748046,-63.454773549783106,-51.96275390118055,-46.93814269908734,-38.33919422638671,-26.51025858820728,-15.569528763817758,-3.7956568428118658,4.385187867498654,3.3491183452180042,-1.218233924693651,-1.3612317328500971,4.462161218012687,11.956494033094248,12.189677425786476,3.9724751147228354,-1.6027234077406858,-0.5928577182597916,1.6149131196746604,4.739500640623973,5.05953292498457,-3.6854353105187307,-11.02905998929047,-6.185210819205429,3.3338325909551596,10.249808313507177,9.984987447370612,-1.9022009945044038,-10.957740818623309,-2.6473071773094463,12.241457736611416,20.31475485729956,11.384354395577493,-19.259103014371053,-41.39978412894898,-28.695466090383377,-8.219003335010036,-3.960655829218256,-3.6577239916697915,-2.4654988179552415,-1.372824682068635,6.572518825917611,18.95025685048188,28.932052928744866,22.72143365407736,-12.03009274880511,-43.34357791324223,-34.64179543400011,-11.744872732666758,-7.470068315937873,-11.516282681745011,-14.088087519869855,-15.417137360262853,-7.165865531560733,7.457465010897295,12.162668662727697,4.140900874692772,-4.025559646521911,-4.957473835886859,-3.1094264528730493,1.2432200289770394,10.39387846267849,13.495037237718908,5.731558665495097,2.7474332092420464,9.412648132554695,5.318935427881288,-18.65637159507812,-39.38794489068817,-46.50807107760883,-55.52717490296335,-54.08631118709599,-43.54853115087889,-73.2220072883555,-118.34359913687122,-95.13145098943136,63.47852289350158,439.65244965462693,782.3045162128359,470.1131596553121,-356.8833299729763,-667.1494157818277,-273.8031005812246,-15.331130196080597,-81.9344807406173,-50.67956643406295,25.483825089231104,-16.987641793806922,-18.462559851264054,36.205802971918985,30.42812975915297,8.598500500966654,3.445185182813077,-11.877081242086529,-9.661904439574572,7.413088090214346,8.378225246280422,2.432768908490777,-15.268052602065783,-43.33612402259989,-43.10928845931772,-20.542589334434346,-12.937366937832866,-14.402932459241597,-10.18925968644783,-3.8823890783351827,8.208225113228425,26.998918006515062,43.5904009323165,53.50822626696052,56.10454959840084,57.897602436201524,68.38971497338215,82.30275712607994,86.84725297014074,75.06876614055787,44.973492359252134,6.991582022208368,-17.771115528959783,-23.08274825616407,-29.406341046487178,-55.9617714307443,-86.82072733402534,-92.32532586465265,-75.67107357506832,-57.550163995985244,-41.42295878514625,-28.749523336734484,-24.729770597896803,-19.860192152026073,-6.1974928689972195,6.269642792606938,9.24085576786316,5.744063110832958,1.0773581613600882,-0.3062588414977636,2.8144672796057044,6.863657592655706,7.525131338936344,2.7503125135503863,-4.5601286627392135,-7.148831264021465,-2.8771579227066217,1.4186011240838852,0.5692332165726572,-2.772669171693865,-4.721373619847263,-3.6373618074549716,0.38156771169271364,3.5984072949831556,3.3178952208974097,1.884572693396946,0.8749261377675093,2.25363127394686,7.64275542422929,6.890429545102373,-6.4871120521705645,-14.513123807780275,-5.7644520203685765,2.597514117324683,3.420648684630123,10.689081983252981,18.357123563884166,3.5569779110433455,-25.69864457148281,-35.424403118466756,-20.611400122852494,-10.097402826114195,-13.155487676465887,-12.277167230706947,-6.496416568428463,-6.052709579874772,-3.767545556079338,4.087937828363831,6.50901468960522,3.660786568341495,5.084866615266318,11.929687278157768,18.012437598718073,14.643368321674103,4.367621560453557,2.7916253896419296,10.87201700733139,18.004418970493056,25.726314276097565,32.99709649008797,30.04426140825823,14.720956037117336,-6.339467499100426,-15.160449150540222,-14.022544404176571,-45.08762131189686,-95.57821417940896,-100.51055311396708,-84.95851828568215,-93.61032275161168,-89.60491850208761,-88.44387067190911,-121.74439351002447,-113.7000495916538,6.806745370426711,311.6534010696383,718.7756825297239,672.3295131102761,-67.62192595715831,-638.1217698340272,-413.19710180395975,-44.64132264633071,-55.388570659563285,-88.46164150155532,5.169753926596776,7.607727676031956,-19.733612329360096,19.0910909968738,25.22196520641213,3.982468674767864,17.668091495708524,27.516416246921395,17.822182362143494,9.090797500974961,-7.772249400266946,-22.28006716268434,-17.006609903017072,-9.526206764592324,-7.9572374751415875,-2.7380817245454763,0.8168841074968984,2.9276376021060706,11.019638094642753,8.912442725472957,-7.775669906044425,-6.883125776161098,15.648962790671419,29.500214563537927,37.526659959281375,54.82233009424185,65.69019359663798,65.46021357643858,67.61275868984627,62.91670963949704,41.66853776086606,16.27549866494487,-9.299156006077698,-38.84175557948912,-61.52123269949895,-66.91420374078841,-58.39672780878014,-43.835121769131305,-30.416332120600607,-20.958958357830227,-14.265372159842215,-12.549643837188906,-14.661553779252937,-10.403921886527392,0.872872073715989,5.865606523275564,3.3003837164495557,6.458617091793418,17.394171527319436,27.451211229739577,30.59246753310781,15.809932704257168,-18.941121530912326,-42.427213142967744,-31.079174188588752,-11.571051092354608,-12.67966108060379,-21.669381062079523,-20.964908176543368,-14.12174463252794,-5.992997542885279,1.5023217204591486,1.765351240179589,-5.1325566406236485,-8.14996724089114,-2.7233994531316545,4.543837529680506,10.078923644882641,11.789165389227154,3.9825551377445785,-5.991453914639772,-1.7034956156672774,11.007192354293629,10.29624762605293,-6.526455107920437,-21.115989878237954,-19.96362544561697,-8.531446132879477,1.5428968810724586,9.667136302467087,16.51798178879844,16.851556495887007,17.52975021690121,28.24660090867251,33.050905658865425,13.02776013893563,-15.883777601314693,-25.403890914910704,-17.388248510370197,-11.781982752705243,-10.692632992766818,-9.839550130863998,-19.583198129615237,-36.26574738043733,-36.51997451027495,-23.251657243388685,-16.67347068286552,-11.303864616949776,-0.5914969013278828,3.450708743879556,4.196691140825232,11.594703269087466,16.54765351514121,13.147364409628885,-3.559888793771311,-39.8133215757677,-67.27674946286405,-67.15742692849498,-68.09444052579796,-70.5244261491672,-69.27171182792402,-98.57420690370645,-125.56324639863722,-78.89151481743856,97.64119899736733,482.4019964916289,800.2765921888139,444.3906684368074,-373.6986293088932,-632.1971021295219,-228.15475757343822,3.255548464249359,-76.79279564417664,-49.114596403443514,29.900924405380806,6.367833181436968,16.2010126699841,51.438151789445044,6.181009032906811,-35.98267460767627,-15.993274374693122,-1.307933053718462,-3.6376473460215326,2.4057581864634,-1.9678869051615715,-14.344404200174305,-7.5782598263104735,2.0573190042103593,-10.42234204863178,-24.90412871126594,-22.705581852641345,-17.69905347976552,-13.306345020016849,3.07452526026918,25.08819108859707,36.45642736784766,40.36200377749637,50.210550903561334,64.12920250776848,75.19259398018895,87.71692002246566,91.26857756280052,65.06626974300073,28.18007441668135,9.961977525633598,-5.905913199079663,-33.754332951186015,-55.278235168434655,-67.73722653816912,-76.21389945939305,-67.12531166439382,-44.54413226609753,-30.524976489995062,-25.817531261877477,-20.382712332982,-13.009485242778366,-3.668643088448383,7.846160859134563,18.744426006123046,20.725056229286174,6.606874766530581,-9.153210448503886,-5.9324832283282865,5.933409190047636,5.7647594613628454,-1.5630730130777666,-4.916629274547092,-5.567775678553233,-3.4592123721235466,1.6314369155791886,2.673545932521125,-2.506334381492988,-7.837709938647972,-8.968843855565517,-4.866712772789875,1.0800637467287308,1.063302206655257,-5.724046924470688,-10.36348708191063,-7.111527625191508,0.02283487719883326,3.094326388901456,0.9673445487993775,0.0870903459253678,1.3192362922185286,2.6785921714271517,9.672390209491205,19.819160297271612,22.567839740790454,23.022337197781248,26.893878581565577,26.41726313958907,24.42568342990835,20.657860415953056,-3.062071647451763,-35.27389778377572,-41.671589036202676,-29.108588756323137,-21.168264987300176,-11.94848871305443,0.5107181292059142,3.438800294172296,1.1049976596770925,1.3149293944870148,-0.9349486466804429,-4.164145081468039,-6.586377646215034,-20.65619727161795,-44.040349160728525,-49.85711004652855,-35.45285919454007,-28.54393924738082,-27.82693287771713,-11.817450833091254,4.177244618769027,4.026968705005174,6.224211891344936,9.608934143863486,-2.438347943982187,-19.378677702747723,-34.481958888577154,-45.10700125302513,-42.665693171305016,-47.749686715682174,-65.17746660075791,-73.79058388525985,-93.95893562537844,-118.55205481460389,-85.41111405427012,74.23256634252988,445.8704834130904,790.4248593897333,498.4942257893457,-313.32412186864474,-641.5186971790367,-276.83919076504066,-22.72734338310125,-82.76004566943044,-55.77487036689849,21.647819791259884,-9.388746159577508,-14.488363144037349,24.024157177638834,14.655696779530702,5.718420825072502,19.410871037939366,12.366780737590899,2.7345857544648426,5.246341709025872,1.5072824756949386,-1.386241545771938,1.7144723694609905,-1.7948272081414043,-7.610252546626857,-2.887701856194804,5.541920616944006,2.4207465474491805,-5.855126314942186,-1.2470147945615224,14.604045950676785,30.731036331731932,47.24934970539864,66.09970757846895,78.80067309835495,69.45847442240624,43.614644186001634,36.73469726726437,54.48774688276464,57.31905336356037,31.50926934251666,0.05834389304969201,-22.935242065699512,-36.74084560812622,-52.1068234776597,-78.0176686810249,-93.04321703794025,-80.55354241775802,-60.215398100553905,-43.81316279300343,-25.21303076357146,-10.90701032990005,-6.664726444605861,-5.556460381976782,-2.1554538444432314,5.360085428475969,14.192675820190438,17.72628076837747,12.888515984762915,0.7021986009291599,-8.522239836815213,-3.5005514654925687,5.037008379434585,1.6727263720602092,-7.478384855805118,-12.563229447761175,-11.94101610904028,-5.211995579913085,0.6627120589915485,-2.547382759328304,-9.63730023258469,-11.581759700008643,-7.667274799793506,-2.265902147688136,1.1121041989828195,1.7603761184254427,-1.6815141090299957,-8.600122662111833,-9.464938501916585,1.6435939610637427,11.725570448964831,6.291743566703615,-4.844716989249262,-3.0323691839563196,7.719995939747063,16.585740214158207,27.138462111821887,30.50643370906743,13.765563708030955,0.29941668891174467,6.868696539209935,8.297012142010757,-1.7662361805781233,-5.779312342655112,-12.750788681121085,-27.977600393774853,-31.68513476668695,-23.16659341647237,-17.321561484910802,-13.226209239932354,-3.985065727382521,9.516117784623642,20.695838268492547,28.05360703345238,34.43853942260219,20.06087795987746,-33.427291991591176,-77.99470192469066,-63.92860997463082,-50.88834625641307,-95.39714586288113,-125.30987560534291,-109.01395637335757,-123.66711222921879,-146.47357712873898,-85.98733058591614,110.18247148449208,509.39407985886413,839.0322721371125,486.4446264869153,-350.573563191369,-643.8331198016244,-268.4722272085129,-44.98408215018851,-110.67925092611237,-64.16658758910374,16.939481282294402,-15.435171613758548,-11.983665158945415,24.745269248951374,2.9124926029508735,-5.233586630169582,19.946250771336704,17.504920070527216,5.652450033787666,1.8921022359921764,-10.947254853127493,-16.130268465937178,-6.724834688084362,-2.3442619570861476,-4.981283886291456,-10.779244576354717,-16.426264522880047,-11.576842734663565,1.8505987959107912,15.329557957315686,26.396204792152965,31.056842569577427,35.64114627826303,54.141612489329496,79.3381140592872,93.69061292119238,95.08513796696093,90.40526863080635,81.84241843869015,59.773471035120366,18.80285690147248,-21.04965445888558,-47.087960882416745,-73.26184847852348,-93.01014029495238,-84.65203167343714,-62.75508809580703,-50.75937835791901,-44.05930669950962,-36.78810048151013,-28.898681175994135,-13.851843384939539,4.97811472640576,15.745985956945034,17.993428099738697,15.924895642091746,13.964187284943765,23.146420106800846,38.37858726457073,30.569457147493686,-1.1805415921924034,-17.64178852529402,-7.553915067087867,4.713429096408295,13.654346125514556,14.763879464893236,-11.831402936376655,-45.18466839364703,-43.48970997990248,-20.7717736395771,-12.604870919647851,-15.717151271870918,-17.668997903473425,-20.40914476314031,-19.865516647347796,-10.061705988947436,0.7957962730343819,1.847360625024125,-3.496551253516138,-5.751733557432528,-4.615417096862054,-2.258111823371017,2.080621052674764,3.501846493019917,-0.47431103026765964,-3.4954509416367783,-4.6401495665449,-4.4205882604375475,2.1691989039283452,8.215291106072154,3.0331647528660115,-4.641401778924072,-4.235029825380225,3.9040261228536153,21.10939478527991,38.10341597403723,35.92220532037186,20.687302062027356,14.437832470473811,18.276631012240276,14.40939911103536,-7.689309404332089,-32.01349678493747,-47.7398588689306,-77.25180280104718,-105.91216115835468,-97.17517245004424,-100.07118812453945,-138.66168670444273,-127.2930819911173,-2.869486008894768,311.7526927878793,738.9769177628023,705.4880528629038,-52.080351334935216,-663.5979521030694,-455.1500991111377,-61.04547429122335,-51.75471435078457,-89.82253962613721,5.7759985283481825,15.856097346320773,-15.508660149616608,23.98652565800247,33.735648807493504,-3.6015071619549452,-10.133236692068127,-0.5126749153443848,0.386011913755711,3.4121982835401763,2.65427864865191,2.041125232569912,8.530222823998477,10.525486555174068,12.442804582421628,12.05315679046922,-17.834969393496195,-56.54568185200546,-52.68578191295119,-23.001969515784015,-8.47535603148605,3.6114706746024865,25.260835614963135,41.62953757211383,55.984533398062105,72.93156095174388,81.7154323467083,83.75960076765983,81.65888844116562,67.48828513807939,41.149547522415695,5.742583890286946,-33.482003850336746,-61.75147428868806,-73.86242861389871,-74.85274626526967,-64.51663832991139,-49.15271499975563,-39.09815121977834,-31.359125978094276,-21.5426302706974,-10.967582472205743,1.5551921556160568,11.813415861638088,13.423255654558385,13.575218875016711,17.948305415690733,14.648321602807348,-1.3720133721917183,-12.138010053722155,-7.558919705308532,-3.9756242845958063,-10.409002928131377,-11.40026886946771,-1.5971680803889488,2.789483849649317,-3.8222405272531494,-9.577279607444192,-8.521571954626994,-4.57135895929864,-0.27345894260334225,3.1386931256410397,2.6774498056406912,-1.0498753141929522,-2.1293125260374612,3.1943816437740438,11.936216964014996,17.165143074565414,16.397847890819577,15.102880372315115,11.813002113822119,-3.18677656727865,-20.12019843995481,-19.514853481999985,-11.266953938904283,-12.121166929223467,-9.947567987263163,4.428197122399412,15.089816315136982,10.656779841659208,-2.9009942789258183,-12.487795355867734,-7.833859278633488,6.473353407280301,18.748675243668757,21.109469767603198,1.1929296002680285,-35.53766066518548,-46.60313039652617,-16.39393154178571,9.961602146171877,6.551690631284861,-2.645168032372104,-5.204862342928071,-9.021281865106054,-17.653377079494298,-29.907770325395965,-34.24006335061381,-34.82376991055697,-50.56089566709605,-59.90683007508158,-56.69858142091263,-78.76900182254492,-93.35218567806123,-29.928067675347336,179.87916836436472,579.8386077522832,802.1257631768705,300.2771389530943,-504.00601193832466,-618.1634391176473,-185.12038973763646,-34.90781657384084,-119.98855216744477,-49.957462742391726,10.86582067895688,-43.953857782785455,-33.85731916194262,12.1358060255397,2.4826361207169825,2.9147687500700137,14.938537915386952,-2.958040357710182,-10.936391898073044,0.4408900559863582,-0.12781014140885194,-5.872490070724767,-9.759299190766521,-16.642840421200244,-17.337848382546454,-10.92440378645778,-2.2686644339107076,9.555781309471165,15.371055881867854,16.542718688067453,29.76599705108493,42.33231018638167,37.293231745099604,38.435645780805395,54.92600588375837,61.76801646044002,66.19781830889107,85.32658652291082,88.03034763374127,50.39214250198591,-0.9456245383309145,-40.64443370840668,-65.78569034876833,-73.20033827516767,-67.18370434861384,-63.43437735452728,-64.38830649320595,-58.29719691026463,-44.375255548664455,-30.607964197330773,-16.654677668576134,-6.114280706233924,-7.725011195101523,-9.892512705138836,1.2746034688224928,13.259206264945037,15.627673837082707,14.10634922756513,8.74263604801908,2.2196468890099026,6.026508613390058,21.977963194854404,36.38417514810652,22.96074218375623,-21.68802647819473,-47.22528897577225,-26.009404207167997,-4.282781573957248,-6.104909421648667,-3.5875648128016966,-2.8431644231167716,-22.684590581732866,-33.49170491125449,-17.22766736023891,-3.368596549019392,-7.278695355276849,-13.220963180275238,-11.098214941991522,-3.8587418967568645,1.9253351261732563,1.4139598446264383,-3.2611030458296035,-7.196682868980094,-7.847073074923024,-5.420013649528695,-3.942155830535322,-3.3173850036973977,0.9772992720583797,2.7277174731896623,-1.704846274849745,4.053411861355814,24.840432886877775,39.26061969007222,34.99967067233029,21.554551708558538,10.803742933573377,-3.8254259849094163,-36.50649193394011,-65.63154098162656,-68.93862740037561,-74.23348644638844,-82.60821587994722,-75.48158393202877,-97.1318156641048,-135.76769126790379,-96.03687108176383,79.3715479913445,456.22580789642757,844.4821853355642,624.3270590122881,-223.50686261810634,-696.7704264960695,-395.54066523406027,-77.81912740170871,-86.5574863829272,-58.19274220360627,27.477352681821934,8.883526288130682,6.225751538032137,44.23632206334848,24.756881475699352,6.510846243569198,26.91820625885785,23.683156177802765,4.502223128045943,1.146350641410721,-0.24728633253473697,-6.337223724923336,-17.668325902728622,-31.631502915907014,-33.77913800596873,-28.331746061302937,-24.12442901358149,-11.86108531463886,5.166113201484421,12.357685073896034,15.779299724796553,33.803666406205366,66.82540598292866,85.31382831031476,67.18071151730501,44.16096019428799,56.535236602184185,83.82150687005816,82.08472174966255,46.9522410747917,1.2045806516873228,-38.34096441786052,-67.64438610845518,-86.90785004533171,-94.44435532588307,-91.83139600572494,-81.02678243866252,-62.41743258552065,-45.97710157056034,-37.58373850755187,-26.388779488992657,-10.867734334277877,0.559096843553899,11.633641378216453,23.05593005305395,24.874362231974985,13.479047555591642,-6.002946721516015,-16.793063103597277,-5.891897103014161,5.651561868538273,-4.187266053380792,-18.70886066956765,-20.540563865114372,-17.094103220386433,-14.98953285659603,-13.736568962310587,-11.957681822496696,-8.930592195069632,-8.3440956198801,-8.054225172922248,-2.6600939480554366,0.3767201177228099,-3.3074034578727307,-6.329314873691397,-8.769234970349952,-11.54896702641325,-7.895058066077753,2.9790889476342834,15.06679907589419,17.735650726363026,7.176815366244987,2.0232347192917226,9.535227480238364,7.803624341218224,-12.133826649568794,-38.0394572303924,-52.77396566215748,-49.92893140596016,-53.07471503025515,-63.61911331854722,-57.94206062773622,-68.6026634276357,-103.16322354901456,-83.24387590392247,72.51592584167506,457.54490661281943,881.2075864292188,675.8335610556031,-225.7873247992166,-757.6597427897891,-434.436255077558,-77.68217449940501,-105.26677725195081,-94.28847876690507,9.032125749102278,-7.577428937856141,-19.690626444853862,31.078037492921787,24.58048512861497,1.717644982627497,16.321781610878865,15.301936350015314,7.733313923986771,15.978684646004398,6.714322739130358,-12.03656676654455,-10.019319441968467,-0.8464520539386804,3.1711138971474817,8.215448831370306,4.248587310389617,-12.926716096978641,-15.839519202793271,7.498725062153866,27.83002438362823,32.13528916097029,44.4521652365584,70.81428606761327,91.62592207264991,103.70145905785179,113.31352096354463,111.51605502450688,89.36987986432055,50.172290414554155,2.573919944903193,-38.85029555158057,-65.75664256929993,-89.92355108703342,-113.96154227500433,-115.86142446018438,-92.2566000515099,-66.98558839318571,-49.58479733339975,-38.22732580355818,-36.4672560316413,-34.36163616245905,-19.31850955837157,-1.5889440496613751,6.4370827672256326,4.896050498879411,-2.448255919768293,-5.068032537121461,2.2781311492868266,9.071777724044242,11.255999505380668,10.349317286894264,-0.03318772037325601,-13.695635137409738,-14.0207583426534,-2.640978833914353,6.26338971133359,4.502508816152096,-2.7276950446313943,-2.253977719870334,6.2388917410814715,17.28224405490392,27.58565138248673,11.731443759549737,-36.79870558636099,-61.92300893380947,-38.997438169623784,-18.631337597416024,-20.82785124428504,-20.376700883182398,-17.509138316430043,-17.263282457545916,-8.945061302937834,1.7574213188469088,2.5698886561619556,-2.0985761788421264,1.1325349186656863,16.047831977218255,28.907715659550266,34.52502717126647,40.61192001927592,33.85128747802892,-0.46458929844442665,-44.60014918341061,-70.38822086951217,-71.04551036775874,-74.10713272927406,-92.59244454007869,-95.49845275622586,-96.37879975019528,-121.12759431477,-104.8707890734849,13.28926522788791,297.0301353487173,721.8571570634252,779.2476383436218,73.97510196611655,-636.1893549562458,-509.1242157784868,-74.4600229101828,-42.58035793179785,-110.67930238829652,-6.4134771097976255,24.64639671034417,-21.066610718976822,4.801225746382594,20.592727162147387,-0.42852491268634507,12.831873611486902,26.221190884496565,12.143678120195295,2.184316439576624,-3.4898431610091283,-6.578661038534075,0.5760132270213223,3.3365499304758464,-6.209446317258789,-20.202987780317375,-29.97484578622395,-25.730958672667498,-9.658693185778652,5.6427377432691905,16.434645770820268,25.961564399424233,39.60984619694901,61.38571355643507,83.67662251605981,96.45772163508803,101.30936986540543,101.38533335076832,92.73275909427977,72.41512223832608,43.07518931394124,9.667964503080567,-22.59620761863077,-48.90625354693832,-62.54616647514096,-54.308064607274446,-29.741879862055708,-19.77922046026141,-40.62285170480198,-59.70325491292614,-46.35452776573984,-22.38244498684115,-15.256533324914383,-11.297860062008898,0.06422821955149516,-6.757120415621486,-39.105042979205244,-58.25818291050596,-45.59756046100902,-31.27610289955466,-31.922980751774737,-31.704008285920352,-24.600892769163266,-15.90498174869473,-8.008399158615632,-6.762655637163931,-9.974982142645572,-8.067291606741875,-4.921157874892707,-5.102777742195258,-3.754352324636695,-3.145586505004168,-6.033250719524368,-7.779820964275951,-7.6453598496754935,-5.353350494438054,-1.4032666181299067,-2.3569719565793292,-6.6552194594426854,-7.272416250144493,-5.203403912827298,-1.108840014212607,2.542494040152863,0.26913851648237497,-1.8088751729937336,-0.14039300213790362,-0.5537953676181537,0.37440695643546995,-1.1291698618937023,-11.709196598567939,-9.934635598580925,8.34093073828376,13.660235877111404,9.94722068668835,11.497571181793708,1.3098775434689989,-17.33506455196283,-30.24544227606268,-42.0916289386323,-46.1065296639557,-52.27615429974937,-72.00299829132015,-73.24541541835572,-73.97443302956503,-105.77983908271003,-94.87070343948359,25.888859378068787,309.6182204019431,705.6237615594068,711.5419314100118,8.156897101911326,-629.5254530555796,-462.17509452561063,-46.71081586705523,-15.53548339176978,-67.47547128040624,29.77603880379386,49.67256301855945,-10.725317836972156,-7.31627802027872,6.575425113471507,-15.302688728928418,-27.71506816361079,-26.008022078218772,-24.635055924288885,-21.725902584675644,-18.0109864572706,-14.172955507174871,-13.82541742451504,-19.624893346533845,-24.527030472941078,-21.316053050775402,-11.836086536154928,-5.489467330277829,-4.263283764877112,0.7551768471819145,11.417724070962173,25.726910203181323,46.02917047291167,66.83590090659828,80.31303087176246,86.9631748765423,89.96953391595594,95.67873649694859,100.28102658280486,79.18926202030927,28.193621362449484,-19.021055212528942,-44.48997591546868,-61.108280350270995,-68.90602229961182,-60.027589774068176,-52.689225162884725,-61.12496312385583,-61.20538917702497,-34.97155721987144,-6.543121022369579,0.6331181949065439,-6.659278717310478,-14.251612130707501,-11.075218168983316,5.937667217455063,18.855608738989996,13.102029409080245,0.7717779223679031,-8.455956726424642,-18.67240907719621,-22.490445456492782,-14.594143594013762,-12.366010862646867,-23.352456482745165,-29.70832944033915,-23.405571753222706,-14.640164515961246,-8.576824382697932,-5.7397724920948185,-8.394303667271636,-12.499070044148116,-10.847212847875154,-2.6021156846794273,6.926735706285674,10.890946949222666,10.465056582250966,12.612749216097491,13.437868866464914,7.224012884876897,-2.3071328026997016,-19.17216648953476,-39.747184662881494,-37.82544415535554,-17.130617161924658,-6.7527861447674535,2.9653280753432725,13.09147957601203,-13.964671625820802,-54.42090683441248,-49.20707337925145,-21.884577726142986,-11.443361967735385,-1.6949352535215745,4.612088426487109,-3.834974707554146,-2.024861239427981,8.356615079953514,-2.05732454158397,-29.89367817740535,-52.648769800010264,-57.61988392894632,-57.295986912614396,-66.84458919019576,-66.56726502598504,-66.99397327731083,-100.38333000233068,-113.16672155389523,-29.506545983272545,233.76432171191274,687.2499758407599,854.2522440841952,228.0584105129957,-581.4017104867536,-608.2270187643286,-166.77304492227898,-45.202601548832135,-105.95795855291577,-28.83573595785017,10.883545255433233,-25.460140584734454,7.124804886771294,37.361833899645305,7.695840376958359,-1.652891293408545,9.365663889502907,4.451698894815777,3.2056546085017983,6.009273420682363,-4.001344140691141,-17.41971778573666,-20.797190229005558,-13.655730582191541,-5.109860419648223,-4.630139093510189,-9.662537916291157,-10.360220462881317,-0.6642815136751921,18.813470946442333,41.63571729485248,63.56907249311251,84.89221132518526,96.1827753703781,89.9912452899881,90.53653231294855,111.01454890321331,105.0109011782103,47.87088622290246,-7.15750826591155,-30.513814353109566,-52.771742552968995,-77.54641721636226,-85.25952420387142,-84.47851681537225,-81.91138618414278,-66.24746466844664,-36.8237910244192,-9.690411633578897,-2.8295962396351264,-9.700524049052337,-5.0538421579872885,12.071222256625882,30.57279445712175,44.565383485131655,24.829381242177906,-30.581710589925272,-57.16379589471396,-36.92399285915333,-24.243888597662544,-25.355941415886917,-16.009369305428503,-15.943145663821348,-23.93718982962737,-9.111936719326764,5.708913732438113,-11.233525664317213,-31.626185579825048,-31.248678714743907,-25.963171088365655,-22.16244006632296,-14.492039647874996,-8.136054242635993,-6.988857666878847,-12.259814800261594,-20.308243662704104,-15.376014265051728,0.25306037951807525,2.1062207703885676,-9.444821193352787,-15.265675890469193,-12.421069115481698,0.17757907238134152,18.472101300427887,20.94297911977777,9.028739128661593,3.518703575400926,-0.9793842770283412,-12.751610701610744,-26.58179452281821,-43.38007756816345,-54.162313409972334,-57.040030004007384,-66.83139231231577,-68.44197976620569,-63.48605380181392,-85.22793655899275,-98.87586037700845,-33.076017737539715,209.77519614183078,668.184207924058,887.4652270335071,303.83885617019314,-556.1260482642085,-666.3238501133693,-225.70065889051756,-61.07980840690519,-115.06639780292792,-36.78855184963052,18.315031766616436,-25.224066730727795,-8.428321649663207,29.81391596264804,14.658440491671389,9.350726352118318,20.039785513724276,10.981621951733828,3.8672373993862763,7.927802611017226,5.714133117926011,0.2545345476320682,1.6675656730641295,4.416564797072663,1.9481573695856866,3.8908698093047924,8.354759610189808,-5.6231682883154,-22.813131244503612,-8.723367599333221,19.992455915609938,33.951503991004685,43.86354681746084,60.17005759233328,75.85042644331355,91.24149968185424,105.29446958628301,104.2636535895804,76.393731883996,29.828454408691776,-13.123521808316859,-44.48843826634219,-66.41007895593494,-71.51305552388048,-65.94456392732715,-67.35593774054647,-67.66838324509953,-53.576222999075284,-33.49750204068791,-17.28626465029121,-12.235850485761006,-18.15080091412031,-17.515717615942947,-10.18809005491454,-13.479910107240404,-18.304036592863092,-12.532741287739729,-6.8515028296958675,-1.08511756465996,8.385176950639336,9.991105567665958,8.522959052196036,11.854815520607524,2.2378493214724315,-17.07676320856381,-16.354395968294796,-2.813877298794374,-1.0230103275223001,-3.0672056582772704,-6.215977857927211,-23.856436727621563,-38.099398551822574,-29.584059155432186,-21.23718430523801,-25.97799430763722,-22.394403512116927,-9.176261723570434,-6.2216549895915065,-11.829365499748857,-13.302704639860208,-10.44723007266559,-6.495137119326804,-3.312742808688469,-1.756880446130296,3.424631530812528,11.78188425277825,14.24210496597144,14.8386105644901,20.049372638783105,18.707343410134484,6.352111450685181,-11.177830821781074,-29.40136665313721,-30.12412639899111,-19.987018057306525,-36.80482268849964,-67.74081173452467,-98.44107015197157,-151.87800667730153,-168.4211672929377,-78.35928712681498,141.78408046302044,555.0008043764824,860.1840717931227,431.50262794941955,-439.8877172911391,-666.7228547444852,-230.2061542481528,-22.90192656739553,-111.23613236220183,-58.40576461440238,24.628249217916533,-9.399635660835198,-5.132171782576029,26.107427211716896,3.5818445174466937,0.3178344607033541,23.06730470772039,17.81283732669339,7.013128691540208,1.555011742989601,-11.038573080283475,-12.858487325848238,-5.675665652522916,-6.295052936751241,-6.051179885679336,-2.835480929344391,-8.281570049814947,-15.174884046136576,-5.689999740919067,18.94454981198353,38.561677231722946,46.653650493209994,62.23672572938186,90.89599514995409,109.11811661096972,103.860557184902,87.38189368909065,71.1347032185065,52.80431839465993,24.645593452347356,-10.453776209793588,-39.38908676942701,-61.976705406456276,-82.2190822460956,-84.05937444673211,-61.92495418742283,-41.03101376423384,-35.1467932912559,-32.99846388688408,-25.379707126650622,-11.657668250579793,0.7411388268576538,5.1876188547451,7.3920688429525985,4.640670108849051,-9.891034798128587,-16.947713855178403,-6.646248350014467,-4.622077836137716,-18.40078502929876,-27.662921355836897,-28.174796777432817,-25.37489862697861,-16.055814771810244,-2.576367659222761,3.3463229563727914,-2.9668591010405443,-8.191769868974394,-0.5187326294113692,10.837050054045307,19.27306282590917,21.76613318013682,-1.435945657560513,-39.71996294929978,-45.61107031802794,-22.269531818243706,-11.510955975914865,-14.09642065520313,-16.443860676271818,-20.755316748525008,-18.481529258857236,-6.9486988286134075,0.5999432531696023,0.533917312661977,-6.000357426793283,-12.415869872360386,-6.329925009108335,2.9793075810721277,4.304931485785072,6.591650829415526,5.403807519203663,-3.324715475048537,0.15400255816986785,14.877303020775393,22.391457396539742,22.296232521855092,13.043349962086374,-2.116751753800422,-10.858891797347841,-23.56906558020256,-46.943116160422946,-73.21030532566196,-99.33661378782325,-101.15984002391377,-88.7454230664682,-111.68764702366063,-121.69724358489398,-40.38208261199894,180.60223483123366,593.4912334097999,844.8027720178477,345.7976074972389,-493.7326699346863,-619.5061271765175,-164.27972479751745,-8.304859739753653,-105.13598499676944,-35.06257098859881,35.76352047090575,-12.527518579969474,-4.645105121502221,31.863534706451773,10.173860316674245,-1.1906486678128543,8.113122775589275,-1.7477135724300883,-10.80944995032435,-12.205626874915296,-14.106308606285566,-9.219489268789069,-8.149034120870077,-16.79556957508173,-20.75186674867558,-18.90993133449715,-13.675066753870974,-0.10524805411069948,14.35883809252729,23.48494216603242,35.295298227592184,52.119800534908215,73.07350465009708,97.71093980473319,105.7781654689524,85.03145913324283,66.46245956656034,70.24125346044568,67.50036375527957,37.93377610606367,-2.9728073571869293,-38.856699118468654,-61.2731105758909,-66.87101091049553,-64.26564026899757,-61.15322761577805,-55.950915871629,-47.09245411877295,-34.36734611755773,-19.971887087658438,-10.20591834075865,-6.833403124034479,-6.832689481094764,-9.804975418217595,-11.800411773596924,-4.290354506002167,4.055223728829713,-9.786246086667749,-38.02664505190407,-45.58810824523194,-32.18405113097163,-24.4544218441335,-21.28343401733712,-14.469335222209537,-13.772100587061491,-16.255419905241062,-11.947318270408491,-6.645291731263647,-4.077515884086004,-3.1759627565486532,-5.279137709009721,-5.149385148755432,-1.951112461369199,-0.7859071168202743,1.6385475292387603,3.6273070953444275,2.1857461066851567,5.212685593608477,3.8077851508700675,-13.476849932732414,-23.9011753677619,-16.31014952570684,-12.59293044354198,-13.593166241970875,-6.991231552278439,-2.372132703846411,-4.449779876335043,-4.801292847461381,-3.036676687493129,-0.858389881581215,0.7918644586558825,-0.7180974178762849,-1.885993646143807,-0.40553246696841505,-0.4287571854309844,-2.757542798555937,-5.303073107954791,-6.883482715331802,-5.173961107670024,2.1875950930915185,12.325777004130128,16.201066456256477,13.105026176063763,11.814873824228329,8.470228093240355,-6.096467574058894,-26.01663720115851,-38.109782400954046,-37.334658866705034,-40.979231763846556,-58.51050613217208,-63.232202067079974,-66.17565079952142,-97.55033194064744,-97.27259773182989,2.4582529206739707,251.6628226615632,648.3944586689188,767.1562856482587,155.76917463173737,-587.1318589296601,-549.6929738156218,-100.87854892953523,-33.3032096997499,-136.71133964036278,-45.419579509757526,14.615656187873093,-32.033247619061875,-13.027234701365504,17.126483927488813,-0.527694284380015,9.935886494723434,26.39706136456874,8.02044479037021,-3.420568495076224,-1.5480584514842444,-3.692222543617027,0.645784668185593,3.790763841407512,-5.798502325131254,-13.128853504229971,-9.736455794198996,-6.349290176803892,-10.311028148372316,-13.335118838193768,-4.962932425820361,10.161337925039149,27.268784900237634,51.78391165900362,78.13870141567992,94.33262194822129,102.35858171474419,105.41423822441863,99.72888427639455,85.4183101053294,61.509361415870615,23.647353279486047,-22.515792329377803,-61.479943761449434,-82.0858391036511,-86.28909526208932,-84.81464609700082,-82.79365977508849,-75.1184592639572,-59.53361503696355,-42.84381662617882,-28.577278201490927,-14.712169833282907,-7.254859638561413,-10.582966520452842,-11.51555174662802,-2.1945614410285934,7.934196427609541,13.928939245610382,11.274210046070365,-3.555993579174647,-11.029681606735174,0.4402792720870661,12.740892629776322,19.556484137117764,17.443289795927342,-12.431196728248011,-47.08734401074123,-39.88962650293992,-8.69999287069751,0.6843529945931657,-6.504624826478782,-5.6913501522084715,-2.7818810383932338,-14.335584036381174,-30.385135770094607,-28.627145602378413,-18.449547477693045,-21.797335566647533,-27.361216741901302,-18.264147179014785,-3.032555383319007,5.781311931430562,1.7897704838868869,-8.973205220749566,-7.259544781297802,5.683455077951251,12.183689925023794,12.889878318051931,11.555413084045629,5.38915270596386,0.2004463143875732,-4.920365769164153,-13.326549998206007,-13.216358449205831,-7.36987242721922,-11.572906248536421,-16.205833260547855,-9.217700319832229,-0.8749300152113149,0.6451064289384139,-5.162911720493759,-9.924476000393929,2.7217686743377585,22.12596209971055,24.48153934039027,17.11475621674046,10.854958615889226,2.011279696310436,-9.261502707942402,-28.55259746628483,-45.68493902976753,-43.66374052136515,-53.68850675192965,-79.30158007672911,-76.16394612619168,-76.63770289146015,-102.66167633383425,-77.82668967107588,60.45705086318668,393.166083613697,790.011830146826,647.4102530653837,-157.60998591487362,-665.5418669008218,-385.38637870310606,-57.95734571897206,-88.95686616039472,-85.27903013847919,16.21274638351224,4.5453214974027745,-18.54473845414295,19.793150919601484,24.00072726271075,22.864998809887215,53.76426807808183,53.83307338007987,27.306761953552254,23.80754426136169,30.74451784097039,22.585919035973475,1.0654212796924636,-28.71626324650809,-59.86058886282848,-75.3482814303311,-64.95715043419224,-44.19673028611496,-33.08972890350277,-27.42060624432542,-14.036015277027332,7.459490871202239,29.542859017315525,47.61464893434815,65.79731064664008,85.00965187233,91.11302715448767,80.01309018869854,68.5345394275455,57.19099100266273,27.3488102243046,-17.95991318824193,-55.546112449048465,-73.56358074098775,-76.50549976583716,-74.95241141530029,-73.26731160360252,-65.7149805483493,-52.985431584245894,-42.31101889111568,-29.3396548428505,-11.57171544756854,-1.9432991397446706,-3.9452383308985546,-6.192754904019189,-4.332288430248983,0.8940203318062991,6.723844363393358,4.741114253922522,-0.7135997167642287,2.2708322049121783,5.858745469017097,3.2020781017311233,5.586778958773143,10.204922261537304,4.141265145167293,-3.2857474001210543,0.08987382822987122,4.562411618700985,-2.509632437533689,-16.65980743593483,-22.822240096780984,-17.03011789072648,-11.12730337107929,-10.757274627147785,-10.15208575905398,-7.3490523718263505,-4.032968729793291,-1.0968709707047566,0.6563350151618192,4.019363728779291,10.289120387873236,13.214709531236615,10.385406435516614,11.523649586565943,20.724598220749048,18.947299891758263,-5.326650846604117,-23.53439635933603,-15.486341864711502,-5.486779831709981,-3.1327687981842693,7.564479422904103,11.880499830682073,-5.6122106227095045,-18.693469614593226,-11.034286469263776,0.07637700710735373,2.858516851677054,-3.9198074710716746,-25.33732801854911,-53.85902604983626,-67.15115431816571,-70.02977247381725,-83.62246775802708,-89.99731186567459,-85.92129959409527,-107.39173906481594,-122.63757517610154,-57.648158287546984,167.008332457162,604.4919939696582,884.4967569501786,414.1789819126782,-439.1413381088512,-635.0001449073045,-218.12317171393244,-29.228250153036534,-95.46932948755493,-32.61901138439438,27.673808712664353,-16.60044947234252,0.10160828467904537,35.47887541671298,7.167467285826845,3.654832787324919,21.206403912239807,-1.701816672990093,-22.100884909778536,-19.25978486721895,-20.39571013894937,-15.149902294568887,-5.298803784534874,-15.49518843737853,-36.2572800837607,-44.86957139211444,-36.43265517403782,-18.93640216617533,-7.438843571175153,-3.4185011712105258,7.298253606180422,26.860500331731007,48.51413790117983,70.696053654654,87.1977062498495,92.24671354169652,92.9782315664136,94.90554491175145,88.94985773067981,64.20562473428168,24.26021066161246,-19.82502615238753,-64.49818980750507,-100.1013992825869,-105.56203089486769,-84.93411568127391,-67.5139123460414,-59.9781203871146,-47.36939705348345,-26.88727665573687,-4.516850559410521,16.777379868737842,30.96041059166416,25.95903855482755,-2.893498574704431,-33.85875621957494,-38.40572205338765,-23.627141826222186,-15.88642413656195,-17.579660229234165,-17.51534946152622,-13.875657631702676,-8.034983671626954,-1.2972817481805272,1.294080879192638,-3.9457741067549392,-11.322472928329649,-10.266267576548948,-2.291782144262463,2.1817004797974366,1.6521818098694165,-3.577254491064986,-13.243560702504329,-13.022612032011983,2.0694411460406554,10.362562509027699,2.623156062787313,-5.885636715268209,-8.54574678860651,-6.457545042857581,3.0025826412447936,10.425413008232143,3.7310178466948614,-7.144479241145355,-5.111124021415659,11.72052544968205,29.022847520874556,25.80266995317256,4.954704888014282,-5.693282139359371,-5.670530869156406,-15.13838962062826,-28.135418487925392,-36.56149656992211,-45.93664978278563,-57.99989868335524,-76.5168405550177,-84.12738668000338,-70.12979541751906,-81.32623160466856,-113.07603607520934,-79.85334364023768,101.47534507757754,512.2364746806114,897.3023620073008,599.7289505215475,-288.6393395691904,-687.0148055590932,-324.0482511531137,-60.349456639511416,-126.16022448587012,-75.03007585855379,25.96395129647584,-21.004390726432455,-24.181861595144415,46.80621589413284,41.67311153302872,17.29825371563146,28.172737661974658,13.319023870471412,-7.935435584453592,-2.077362862887277,1.1769881495836896,-3.008243166492119,-11.46348277306457,-30.168051752209315,-33.196876825618176,-12.926737365191286,0.5731721964824099,-2.9510042993629577,-19.94217494128174,-39.91615576784194,-29.5759773208922,12.902660549849106,45.064025459151694,54.34067664696185,60.24167538069375,69.24288841701004,81.98935012571306,93.74572608312933,85.79737926355185,50.96525659647304,2.9831912897488584,-40.90540426071518,-68.57862193582797,-76.9082730310408,-72.28893849169731,-66.16428635110358,-64.19156122856452,-56.1717225192976,-37.68043470318403,-26.512291523264903,-28.284635954467433,-26.57193874459184,-19.691369489896413,-16.659811756511644,-12.069532299770191,-1.266470606355032,7.207070152142123,6.256725615181862,-0.13277088015860627,-2.1679350243956783,2.106758979472798,5.842536462284346,7.145775264295077,5.972461396324707,-0.5109897502270098,-5.927313137728234,-2.2200848868216223,5.860875818394039,11.095773252001809,9.978740878444725,5.085654221409205,8.072812686443065,13.22055687250836,-2.089276701514855,-26.194417988341606,-28.260254061732347,-18.385448367078332,-18.262818216620563,-16.298792634822163,-3.1711244944694874,7.423791997275366,5.508905631563495,-6.829170182774913,-17.33473480059523,-14.501305183603973,-7.5363003102068795,-3.8401285715185622,6.2203897397649115,13.892018553633106,7.947225455728178,7.907145068214841,15.016790045127673,5.4891353988858285,-16.07413578542655,-36.55473564815145,-49.67628018966589,-47.81915091298859,-51.44120397424379,-63.60693606077247,-60.356028860482425,-76.22059150703748,-110.83204014218339,-71.33165218530891,100.55181626263405,456.24104140886857,823.3911466531833,602.4247964477426,-248.08962196155323,-709.793977333501,-359.07345733410193,-25.66148322941929,-84.21649742310896,-82.03428449663761,19.031105279322645,-13.484925131249277,-43.65172409001278,6.488659263029684,10.568537122650653,-7.511724914045312,8.980343343987562,13.467629621321851,2.988016866007226,1.0227079014731326,-2.1909397055481374,-4.358266706012465,-3.2132399255273567,-5.30830978107438,-4.880005502286556,-0.6178787898067419,4.324810406015434,9.845247286502554,10.87416800561627,13.36765870226344,30.606937404568516,54.53605042457269,70.53272613959659,80.72380237262094,86.98809871973702,78.79932473521386,56.85377919833438,44.54996351814722,46.38685892888641,30.414422832708308,-10.324970822727629,-43.49307995085383,-63.49355482196165,-86.18990105137954,-99.21270941109313,-90.72198444882798,-75.34890125683705,-62.08006781401494,-48.66188351757432,-36.451430708822954,-25.120345988958107,-14.225692766050436,-6.811425984020339,-3.3646481764945477,-2.118509176070141,-0.31120280534012323,2.74955597304044,2.8612438760542993,0.5312009165268492,-0.8777855136353807,-4.464125446532702,-7.594141755181182,-2.891831127173335,3.244967977073065,2.0952201602519693,-2.515190717157317,-4.6739304698980835,-2.469253179143598,1.9340976971220272,5.128678896091298,7.892234660997522,8.020893318189275,6.194234478230617,13.316135894874275,22.501682650501557,15.44159914376074,0.206037603946422,-15.905844895606839,-39.78514906057711,-50.31056931569139,-31.821515019754813,-16.14186218162568,-19.928427944089407,-21.779589487601633,-15.770503092219199,-10.104539438790248,-4.749618087526569,-1.7180057113471268,-2.7818080677353354,-5.689113410527515,-8.429692301788613,-6.038554052673892,3.1116467497891507,13.891266545571186,19.60125736126152,15.703739928879237,11.841730479139157,17.635210290487244,19.60248807622218,8.702488844891121,-9.720864484583807,-35.30808902244588,-59.195660418677875,-73.10027855608496,-76.64164166061718,-67.00440963022447,-78.5756379821343,-126.24876961985123,-130.6664133110626,-23.347488183857365,267.25410818186515,713.0327907817459,789.6334494769126,89.07131471071412,-630.867963743745,-509.16247127774386,-63.42718320300031,-27.23036804035481,-111.88526804025325,-19.978262373578055,14.186533443280922,-25.648308316872296,8.932477834717055,30.2192589942144,-1.7034372279191494,-0.562283812617876,14.65595939956146,7.507507360424116,6.690425955513501,6.738495809492174,-7.705127906270965,-14.61351701642638,-8.249461996378201,-3.034882314622859,1.8568894166289098,6.082935671475813,4.4840850549381095,9.844687132944664,27.261668148740114,39.071866661196395,45.79949229620506,53.662418249790925,44.54498330128562,29.159629182615653,45.93264588781032,80.47591876884239,90.76325847603907,75.64186123467411,50.8323226349385,23.573930795728455,-1.1215644449457294,-27.72056369162962,-57.12380893434809,-79.1177104882878,-92.65611569808956,-96.54628071313138,-81.15924110049257,-54.88140175805533,-38.73771796337459,-34.21057960478086,-28.72159841264116,-18.383553132964064,-5.145290458214312,10.448111197288215,20.306930849198558,17.481757002448838,11.839263091905895,4.688730855163314,-14.093512735563138,-26.087275748646704,-17.177466027408993,-17.69845419635744,-34.292805489330256,-33.072335846439316,-16.012065346412538,-7.449850834360692,-6.297734160426806,-10.623450092472616,-17.971148665372148,-14.377534666614517,-3.811494044402531,1.6691815089190278,2.69729016637166,-3.942411858213795,-13.601453495229912,-9.79677369088649,1.3900981004639021,4.82580533727408,2.7500914940006114,-3.839540624154518,-11.801055077201935,-7.843754938548896,3.2865897501908288,6.335376700641756,4.516619774534467,2.7684360696691677,-1.9428235866903556,-2.933804531658173,4.987578727574862,10.827786189083577,7.748848343353622,3.135815190050409,-0.768898341420762,-10.00033525086059,-20.145512678320515,-18.0116570512764,-4.365483013714634,3.8343908128643642,1.182465356332333,3.892792949644226,16.504635347635553,20.498208220042702,7.289644934112969,-17.032882015455744,-38.09301266022469,-33.90745434336003,-20.90933444044436,-37.24606467373714,-69.51211762647485,-103.67877540749933,-141.0869858502302,-131.96440092969533,-32.85659596765558,226.02320163837805,654.8839085308545,778.102835229043,140.58066706377875,-590.9940610591043,-517.0794184187575,-67.14040460722669,-4.05763969135991,-86.60815919916315,4.105753235711646,30.741008944523713,-39.21430333290793,-24.26402807021116,4.413300003168022,-17.928426708976154,-12.438296391083325,8.879347280946687,4.286687900940251,-1.003238212210892,-4.267675920898234,-15.277133967149657,-18.631449281913653,-12.445214173296176,-8.180416784202363,-9.775262688862583,-13.599174448222204,-11.279466989951445,-2.031413721446052,8.385918690912469,20.74306308527923,36.95151896740274,54.03064160640752,66.55299689983971,71.30797252644862,74.92070678558987,85.12729326588922,96.61226707878957,96.7334011067904,76.96232337156412,42.24785315848575,5.707794082975991,-30.65581956809424,-64.1557440412959,-81.91475976197921,-90.17248765023568,-99.11534529844656,-91.5016677310266,-66.61439734859762,-51.153075102111174,-43.87116678770672,-30.100077364080672,-17.642415345589477,-10.43428390233423,-4.26975302919071,-2.2826206706582575,-1.8831136854849397,0.9661814370054174,3.8870133261312247,7.20921202709129,8.254622723995848,6.757925686065789,10.261268125366946,14.254779342255128,14.269448618560498,14.25333048146355,-1.4731135067565475,-34.18365651839829,-43.72488304132926,-24.59169480244353,-14.425637751229873,-14.564445491392497,-8.10316352311656,-3.6158769923730034,0.20607031371006457,13.138329237700713,17.00671726352882,-4.380493928752639,-29.988625835643933,-33.22507997341817,-21.020546722182704,-14.906875986299028,-13.983909971209098,-9.707819147623024,-8.113798349233278,-8.076537283459743,-2.107842738379503,1.1112636487142993,-1.8137117466309238,-0.9883914465783263,-0.15878346294136136,-3.360534510606576,-1.7715826165637196,0.9339590363724106,-3.1446175645811563,-7.5511454260277215,-8.831001813292897,-4.221739436498539,11.11871059201055,22.421883381215206,19.08825685508701,15.355219825523044,13.761983238946602,7.492697584448241,-1.192918780794558,-18.740121486169244,-38.02137214837067,-42.61450986703646,-50.041066662907795,-62.53510076989167,-67.41167076796856,-92.82568078348031,-120.16874252132317,-84.74377676353268,66.40941958003353,429.0205019630052,788.6679900682333,512.5475300916627,-317.70575438000986,-665.5116066013561,-281.42056502835356,-5.257394305125989,-73.32626335888699,-53.00909515217017,28.155632772511154,-12.566163280252312,-23.80503351222033,28.58883020922115,26.814839902907913,13.325897589532861,29.194038872194668,26.94216293040035,18.134103704610805,26.93438955095629,38.224487215306716,44.32626872527267,26.318530406949353,-19.233644849026852,-39.62495260154414,-13.55703107198573,11.221621800575788,5.237152235043654,-16.449922188524546,-34.3146048032569,-34.46968746903323,-14.87156031177572,10.109154782976534,28.123607543351586,37.49192154805715,43.229264074899895,52.542437983129496,63.63025878747756,65.43476692454317,48.86896853816998,13.076558822211762,-27.81305211992643,-52.915131292850056,-59.54188546142508,-61.69943496484167,-66.95196819567028,-70.22812811033121,-62.97935757136386,-45.1728603211749,-26.4751953381302,-13.359169314237981,-7.48726390653751,-8.954205207795713,-8.846160296317922,1.1171848083474316,13.017465926546393,16.724409113850744,13.400454721828062,6.894773361043594,-1.278049271061061,-8.661727609009594,-10.838450753262105,-7.97140983183904,-9.171935518266846,-16.727393518388066,-19.583994272136096,-13.734842083911559,-4.745233591857156,2.1975323596974157,-0.5304660196258943,-10.05664048130675,-10.803164311894975,-3.9918251639021234,-1.1115463513000554,0.06000126254830196,-0.9963169640450928,-8.495358337880571,-11.78479512971209,-3.2980048166697986,8.545302398038238,12.65645351337086,2.2261715637888972,-12.866214857890863,-12.039592705235659,1.4295556069758373,9.694462625856529,10.503389234212456,5.785934338918615,0.7879736877506918,8.460084850254912,18.492631621480044,12.814229576853032,7.727001235560607,10.993622454130726,-1.8440211168955365,-19.97079348345138,-10.374579530464157,5.753057353157158,-3.571254247537916,-23.11813430920678,-35.87213732503893,-39.32314862103867,-30.735930567709598,-27.555444578708048,-44.66207503224513,-77.6311234744671,-120.73292753633096,-138.1589218089781,-90.9704358421985,69.6134934182418,446.20832426647894,818.54817777124,559.7344224486354,-276.5590592235189,-689.6510835883473,-361.0141796393156,-61.53671876912824,-91.37461738921775,-68.90664638075937,22.955677961497493,9.944232216680184,5.730587238580817,46.76830749885893,31.67032968658727,1.5803574205334456,3.280824527126974,-1.5683889834544802,-4.270600392171556,6.770148429995724,3.127256080537731,-8.94621325959768,-10.70206252241378,-13.280995583681415,-22.08283853646677,-28.40474812817039,-31.678245364325726,-32.18053589380696,-21.676017759221907,-1.3539328651224083,13.138327993356432,19.675236373938546,29.669415863831393,42.208995761209614,56.02399982802537,75.06254213388958,86.112443848936,79.58922963754705,67.44903374795189,49.47887032384875,17.387833739654653,-15.386379050836616,-37.98574102071575,-57.04210573842117,-69.07423973292927,-64.6613404455866,-53.89812262124612,-51.38341438100595,-47.36956227956333,-27.87186038410057,-12.825367743903456,-24.193244920696387,-38.23502265020318,-30.577138298716783,-17.739362607012737,-10.999197193770897,-3.1931338217927276,0.6639314342384779,1.4328741296402416,9.520587009189416,16.00390348259105,13.083146203286342,11.394038080725458,15.630480758484348,21.612369805243706,17.558777455749656,-10.425025746057731,-40.99202939569241,-39.60547300820627,-21.29885536536336,-15.630086857743366,-15.249669540417075,-12.079006814892143,-11.669479031777417,-7.9867272655434824,0.06040342510078034,4.094325183387807,8.614291905423379,12.078626069588944,0.06460052958147067,-16.415215495748214,-13.631914423835578,-2.5431947101806767,-5.149887968212596,-12.085645108171757,-7.130247257457899,5.125257007578263,15.036186451134181,18.19945316195803,13.824418159724914,8.05681321187467,4.709101619852307,-5.73651915036058,-28.287818256572464,-43.77654840724573,-42.99709839375077,-51.228591540177604,-65.78365487922746,-60.068175786371754,-67.11696266247941,-103.49940748522226,-103.8837580246553,-0.7700295607451153,311.2981264115606,757.8964945920189,747.6100801275707,-8.008471285247325,-649.3009491949522,-465.249902860909,-59.15276863514817,-33.83822268499846,-80.81023111124944,1.391515326912554,9.679505187447646,-18.471759631493804,25.8322090770748,