ECG_baseline.csv,0.6769230769230768,0.6615384615384619,0.6384615384615384,0.5923076923076924,0.592307692307692,0.5923076923076929,0.615384615384615,0.7384615384615385,0.8230769230769228,0.907692307692308,0.8923076923076918,0.8692307692307697,0.44615384615384635,0.7538461538461547,0.9461538461538463,0.6999999999999993,0.661538461538461,0.6307692307692321,0.615384615384615,0.661538461538461,0.8000000000000007,0.8384615384615373,0.8384615384615408,0.7538461538461512,0.7538461538461547,0.7384615384615394,0.73076923076923,0.7153846153846146,0.7076923076923087,0.6923076923076934,0.7230769230769241,0.7230769230769205,0.7384615384615394,0.76923076923077,0.7615384615384606,0.7153846153846146,0.7538461538461547,0.815384615384616,0.7923076923076913,0.7384615384615394,0.73076923076923,0.6923076923076934,0.6615384615384592,0.6538461538461533,0.6692307692307722,0.6615384615384627,0.6384615384615344,0.6384615384615415,0.6461538461538439,0.6538461538461533,0.646153846153851,0.592307692307692,0.6076923076923038,0.6000000000000014,0.592307692307692,0.5846153846153825,0.5846153846153896,0.5846153846153825,0.5846153846153825,0.5692307692307708,0.5692307692307708,0.592307692307692,0.6000000000000014,0.6230769230769226,0.6461538461538439,0.6384615384615415,0.6307692307692321,0.6230769230769226,0.6076923076923038,0.6153846153846132,0.646153846153851,0.7153846153846146,0.7999999999999972,0.7692307692307736,0.7461538461538453,0.7307692307692264,0.7230769230769241,0.7230769230769241,0.7230769230769241,0.6923076923076934,0.6769230769230745,0.407692307692308,0.8076923076923066,0.684615384615384,0.7615384615384642,0.7538461538461547,0.7384615384615358,0.776923076923083,0.8384615384615373,0.8846153846153797,0.8384615384615373,0.7999999999999972,0.7923076923077019,0.7538461538461547,0.4230769230769198,0.7692307692307736,0.45384615384614335,0.73846153846155,0.5923076923076849,0.5769230769230802,0.5846153846153896,0.6692307692307651,0.7769230769230688,0.45384615384615756,0.7076923076923123,0.46923076923076223,0.7461538461538453,0.9538461538461576,1.0,0.9692307692307764,0.9153846153846104,0.461538461538467,0.7846153846153783,0.815384615384616,0.6538461538461604,0.6384615384615273,0.6307692307692321,0.6692307692307793,0.684615384615384,0.6769230769230745,0.7538461538461547,0.7999999999999972,0.7923076923076877,0.7846153846153925,0.7923076923076877,0.7461538461538453,0.7230769230769312,0.7076923076922981,0.684615384615384,0.6692307692307793,0.6923076923076792,0.7307692307692406,0.7384615384615358,0.8230769230769255,0.8307692307692349,0.7846153846153783,0.7461538461538453,0.7461538461538453,0.7000000000000028,0.6692307692307651,0.646153846153851,0.6538461538461462,0.6615384615384698,0.6538461538461462,0.6692307692307793,0.684615384615384,0.6692307692307651,0.6615384615384556,0.6692307692307793,0.6615384615384556,0.6384615384615415,0.6384615384615415,0.6153846153846132,0.6384615384615415,0.6615384615384556,0.6615384615384556,0.6538461538461604,0.6615384615384556,0.6538461538461604,0.6230769230769226,0.6153846153846132,0.6153846153846132,0.6153846153846132,0.6384615384615415,0.6384615384615415,0.7000000000000028,0.7076923076923123,0.723076923076917,0.7692307692307736,0.7461538461538453,0.7076923076922981,0.7076923076923123,0.684615384615384,0.6769230769230745,0.6692307692307793,0.6615384615384556,0.6769230769230745,0.6692307692307651,0.646153846153851,0.6538461538461604,0.7153846153846075,0.7461538461538453,0.7076923076923123,0.7230769230769312,0.7076923076922981,0.6846153846153982,0.6615384615384414,0.646153846153851,0.6307692307692321,0.6153846153846132,0.6153846153846132,0.6307692307692321,0.6615384615384698,0.6692307692307793,0.6923076923076792,0.6846153846153982,0.6692307692307509,0.646153846153851,0.6538461538461604,0.6538461538461604,0.6384615384615131,0.6000000000000227,0.5846153846153754,0.5846153846153754,0.5923076923077133,0.6153846153846132,0.6384615384615415,0.6923076923076792,0.6999999999999886,0.7384615384615358,0.7461538461538737,0.7307692307692264,0.7153846153846075,0.7153846153846075,0.6923076923077076,0.6769230769230603,0.6538461538461604,0.6692307692307793,0.7384615384615358,0.41538461538459615,0.8076923076923208,0.8769230769230774,0.7538461538461547,0.7153846153846075,0.6769230769230887,0.7153846153846075,0.7538461538461547,0.7538461538461547,0.7461538461538453,0.7461538461538453,0.7307692307692264,0.6923076923077076,0.6769230769230603,0.6615384615384698,0.6384615384615415,0.6384615384615415,0.6384615384615415,0.6846153846153697,0.7076923076923265,0.723076923076917,0.776923076923083,0.7692307692307452,0.7384615384615643,0.7076923076922981,0.6846153846153697,0.6615384615384698,0.646153846153851,0.6307692307692321,0.6692307692307793,0.7153846153846075,0.7153846153846075,0.6846153846153982,0.6615384615384414,0.646153846153851,0.6307692307692321,0.5999999999999943,0.5846153846154039,0.5846153846153754,0.576923076923066,0.569230769230785,0.5846153846153754,0.5999999999999943,0.6230769230769226,0.6615384615384698,0.6615384615384698,0.6307692307692321,0.6230769230769226,0.6153846153846132,0.6153846153846132,0.5999999999999943,0.6153846153846132,0.6076923076923038,0.6153846153846132,0.5923076923077133,0.6076923076923038,0.6769230769230603,0.6923076923077076,0.6846153846153697,0.6923076923077076,0.7307692307692264,0.7153846153846075,0.6923076923077076,0.4000000000000057,0.7615384615384357,0.6307692307692321,0.6000000000000227,0.5846153846153754,0.5923076923076849,0.6230769230769226,0.6769230769230887,0.6999999999999886,0.776923076923083,0.8307692307692207,0.8307692307692491,0.8307692307692207,0.423076923076934,0.7538461538461547,0.8230769230769113,0.41538461538462457,0.7076923076922981,0.6153846153846132,0.6230769230769226,0.6230769230769226,0.646153846153851,0.7153846153846075,0.4076923076923151,0.776923076923083,0.8769230769230774,0.7384615384615358,0.7615384615384642,0.7307692307692264,0.7153846153846075,0.7076923076923265,0.6923076923076792,0.6769230769230887,0.6769230769230603,0.7076923076923265,0.723076923076917,0.7384615384615358,0.6923076923076792,0.6692307692307793,0.6615384615384698,0.653846153846132,0.6384615384615415,0.6307692307692321,0.6307692307692321,0.646153846153851,0.646153846153851,0.646153846153851,0.653846153846132,0.6384615384615415,0.646153846153851,0.6615384615384698,0.6538461538461604,0.6307692307692321,0.6153846153846132,0.6076923076923038,0.5999999999999943,0.5999999999999943,0.6076923076923038,0.6307692307692321,0.646153846153851,0.6384615384615415,0.646153846153851,0.6615384615384698,0.6769230769230603,0.6615384615384698,0.646153846153851,0.6307692307692321,0.6153846153846132,0.6076923076923038,0.6076923076923038,0.6384615384615415,0.6384615384615415
ECG_olfative.csv,0.6769230769230767,0.6692307692307693,0.6846153846153846,0.7230769230769232,0.7692307692307692,0.8153846153846152,0.7923076923076922,0.7692307692307692,0.7846153846153845,0.7538461538461538,0.7384615384615385,0.7153846153846146,0.7076923076923087,0.7230769230769223,0.7153846153846164,0.6923076923076916,0.6769230769230763,0.6538461538461551,0.4153846153846139,0.7846153846153854,0.638461538461538,0.6769230769230763,0.638461538461538,0.6307692307692321,0.6307692307692321,0.638461538461538,0.6307692307692285,0.6769230769230781,0.7384615384615394,0.7461538461538453,0.7923076923076913,0.8384615384615408,0.8153846153846125,0.7615384615384642,0.42307692307692335,0.8461538461538431,0.7076923076923087,0.6615384615384627,0.6230769230769226,0.6000000000000014,0.6153846153846132,0.6615384615384627,0.6769230769230745,0.7000000000000028,0.6692307692307686,0.6692307692307686,0.6615384615384627,0.684615384615384,0.6923076923076934,0.7153846153846146,0.7076923076923052,0.6923076923076934,0.684615384615384,0.684615384615384,0.6769230769230816,0.6615384615384556,0.6692307692307722,0.684615384615384,0.6923076923076934,0.7230769230769241,0.7230769230769241,0.7153846153846146,0.6769230769230745,0.7076923076923052,0.7153846153846146,0.6538461538461604,0.6461538461538439,0.684615384615384,0.7153846153846146,0.6769230769230745,0.7000000000000028,0.7076923076923052,0.6538461538461533,0.6769230769230816,0.6538461538461533,0.6384615384615344,0.6153846153846203,0.6230769230769226,0.6307692307692321,0.6230769230769226,0.6153846153846132,0.6000000000000014,0.5846153846153825,0.5846153846153825,0.5769230769230802,0.5692307692307708,0.5692307692307637,0.5769230769230802,0.592307692307692,0.6307692307692321,0.6999999999999957,0.7307692307692335,0.7153846153846146,0.8153846153846089,0.8461538461538538,0.7769230769230688,0.423076923076934,0.7846153846153783,0.684615384615384,0.684615384615384,0.6692307692307793,0.6538461538461462,0.646153846153851,0.6307692307692321,0.6538461538461462,0.684615384615384,0.7153846153846217,0.7538461538461547,0.7538461538461547,0.7692307692307594,0.7461538461538453,0.7153846153846217,0.43076923076922924,0.8307692307692349,0.684615384615384,0.6461538461538368,0.6230769230769226,0.5923076923076991,0.6076923076923038,0.7076923076923123,0.7923076923076877,0.8538461538461632,0.8846153846153726,0.8846153846153868,0.8307692307692349,0.7153846153846217,0.6615384615384556,0.6384615384615415,0.6461538461538368,0.6692307692307793,0.7692307692307594,0.7461538461538453,0.7615384615384642,0.7461538461538453,0.7230769230769312,0.6923076923076934,0.6615384615384556,0.6307692307692321,0.6307692307692321,0.7000000000000028,0.76153846153845,0.7615384615384642,0.7153846153846217,0.6615384615384556,0.6538461538461604,0.6461538461538368,0.6230769230769226,0.6000000000000085,0.5846153846153896,0.5846153846153754,0.6000000000000085,0.6769230769230745,0.7384615384615358,0.7999999999999972,0.7999999999999972,0.7692307692307736,0.7307692307692264,0.6769230769230745,0.6307692307692321,0.607692307692318,0.6076923076923038,0.6076923076923038,0.646153846153851,0.6692307692307651,0.6923076923076934,0.7153846153846217,0.7076923076922981,0.7076923076923123,0.6692307692307651,0.6384615384615415,0.6384615384615415,0.6538461538461462,0.7076923076923123,0.7000000000000028,0.7076923076922981,0.6769230769230887,0.6615384615384556,0.6307692307692321,0.5999999999999943,0.5769230769230802,0.5692307692307708,0.5846153846153896,0.6153846153846132,0.6769230769230745,0.7307692307692264,0.7384615384615358,0.73846153846155,0.723076923076917,0.6999999999999886,0.6769230769230887,0.6384615384615415,0.6076923076923038,0.5923076923076849,0.6000000000000227,0.6307692307692037,0.6846153846153982,0.7076923076922981,0.7384615384615358,0.7230769230769454,0.6769230769230603,0.6307692307692321,0.5999999999999943,0.6000000000000227,0.6076923076923038,0.6307692307692321,0.6692307692307509,0.7461538461538453,0.9384615384615529,0.8769230769230774,0.8461538461538396,0.776923076923083,0.6999999999999886,0.6538461538461604,0.6230769230769226,0.6076923076923038,0.6307692307692321,0.6692307692307793,0.6769230769230603,0.700000000000017,0.7076923076922981,0.7153846153846075,0.4076923076923151,0.8153846153846303,0.6769230769230603,0.6692307692307793,0.6384615384615415,0.5999999999999943,0.6153846153846132,0.7538461538461547,0.7538461538461547,0.8307692307692207,0.8153846153846303,0.8153846153846018,0.7538461538461547,0.6923076923077076,0.6461538461538225,0.6153846153846416,0.6230769230769226,0.6307692307692037,0.6384615384615415,0.6307692307692321,0.6538461538461604,0.6999999999999886,0.700000000000017,0.6999999999999886,0.6846153846153982,0.6769230769230603,0.6615384615384698,0.6538461538461604,0.6615384615384698,0.6999999999999886,0.7538461538461547,0.7384615384615358,0.7076923076922981,0.6692307692307793,0.6384615384615415,0.6076923076923038,0.6076923076923038,0.5923076923076849,0.5846153846154039,0.576923076923066,0.5846153846153754,0.6307692307692321,0.7307692307692548,0.7615384615384357,0.423076923076934,0.8307692307692207,0.6538461538461604,0.5999999999999943,0.5923076923077133,0.5615384615384471,0.5538461538461661,0.5846153846153754,0.6307692307692321,0.6999999999999886,0.7384615384615358,0.8000000000000114,0.8153846153846303,0.8230769230769113,0.7538461538461547,0.6999999999999886,0.646153846153851,0.5999999999999943,0.5769230769230944,0.576923076923066,0.5846153846153754,0.6076923076923322,0.6769230769230603,0.700000000000017,0.7076923076922981,0.7153846153846075,0.7153846153846075,0.7076923076923265,0.6769230769230603,0.6692307692307793,0.6538461538461604,0.6769230769230603,0.7153846153846359,0.7615384615384642,0.7384615384615358,0.7076923076922981,0.6692307692307793,0.653846153846132,0.6307692307692321,0.6307692307692321,0.6230769230769226,0.6307692307692321,0.646153846153851,0.6769230769230887,0.7307692307692264,0.6999999999999886,0.6769230769230887,0.6615384615384698,0.6307692307692037,0.6076923076923322,0.5999999999999943,0.5846153846153754,0.5923076923076849,0.6230769230769226,0.6615384615384698,0.6769230769230887,0.6692307692307509,0.6615384615384698,0.646153846153851,0.6307692307692321,0.6076923076923038,0.6076923076923038,0.6076923076923038,0.6307692307692321,0.6538461538461604,0.6769230769230887,0.6692307692307509,0.6615384615384698,0.6538461538461604,0.6307692307692321,0.6230769230769226,0.6307692307692321,0.6230769230769226,0.6230769230769226,0.6384615384615415,0.6769230769230603,0.7076923076922981,0.7461538461538453,0.7384615384615643,0.6923076923076792,0.6769230769230887,0.6461538461538225,0.6230769230769226,0.6076923076923322,0.5923076923076849,0.5999999999999943,0.5999999999999943,0.5999999999999943,0.6230769230769226,0.6692307692307793,0.6999999999999886
ECG_sound.csv,0.6769230769230771,0.6769230769230767,0.6461538461538465,0.6307692307692307,0.6153846153846154,0.5999999999999996,0.6153846153846159,0.615384615384615,0.6230769230769235,0.6538461538461533,0.6538461538461542,0.6692307692307695,0.7153846153846146,0.7461538461538471,0.7846153846153836,0.7384615384615394,0.6999999999999993,0.6769230769230781,0.6307692307692303,0.615384615384615,0.5923076923076938,0.5999999999999996,0.615384615384615,0.6230769230769226,0.638461538461538,0.638461538461538,0.6230769230769262,0.6230769230769226,0.6076923076923073,0.5999999999999979,0.6000000000000014,0.6000000000000014,0.6230769230769226,0.6769230769230745,0.7000000000000028,0.7076923076923052,0.6846153846153875,0.6615384615384592,0.638461538461538,0.6153846153846168,0.6076923076923073,0.592307692307692,0.6000000000000014,0.5999999999999979,0.6000000000000014,0.6153846153846168,0.6615384615384592,0.7000000000000028,0.7153846153846146,0.6923076923076934,0.6692307692307651,0.6307692307692321,0.6076923076923109,0.5846153846153825,0.5692307692307708,0.5692307692307708,0.592307692307692,0.6153846153846132,0.6230769230769226,0.6307692307692321,0.6615384615384627,0.6692307692307651,0.6769230769230816,0.6615384615384556,0.6538461538461604,0.6384615384615344,0.6384615384615415,0.630769230769225,0.6307692307692321,0.6384615384615415,0.6461538461538439,0.6538461538461533,0.6384615384615415,0.6384615384615344,0.6230769230769297,0.6076923076923038,0.6000000000000014,0.592307692307692,0.5846153846153825,0.5846153846153896,0.5846153846153825,0.6153846153846132,0.6307692307692321,0.6538461538461533,0.6538461538461533,0.6538461538461533,0.6307692307692321,0.6153846153846132,0.592307692307692,0.5769230769230802,0.5692307692307708,0.5615384615384613,0.5538461538461519,0.5615384615384613,0.6000000000000014,0.6461538461538439,0.6769230769230816,0.6999999999999957,0.7076923076923123,0.6692307692307651,0.646153846153851,0.6153846153846132,0.5923076923076849,0.5846153846153896,0.5846153846153896,0.5846153846153754,0.5769230769230802,0.5923076923076991,0.5999999999999943,0.6076923076923038,0.607692307692318,0.6076923076923038,0.6230769230769226,0.6230769230769226,0.6230769230769226,0.6307692307692321,0.6384615384615415,0.6384615384615273,0.6307692307692321,0.6307692307692321,0.6000000000000085,0.6153846153846132,0.5923076923076849,0.5846153846153896,0.5999999999999943,0.6384615384615415,0.6692307692307651,0.6846153846153982,0.6769230769230745,0.6692307692307651,0.6384615384615415,0.6076923076923038,0.5769230769230802,0.5846153846153896,0.5923076923076849,0.6153846153846132,0.646153846153851,0.7384615384615358,0.7461538461538453,0.7153846153846217,0.723076923076917,0.7000000000000028,0.6769230769230745,0.646153846153851,0.6307692307692321,0.5999999999999943,0.5846153846153896,0.5923076923076849,0.6153846153846132,0.6615384615384698,0.684615384615384,0.6923076923076934,0.6461538461538368,0.607692307692318,0.5923076923076849,0.5923076923076991,0.6076923076923038,0.6230769230769226,0.6307692307692321,0.6538461538461604,0.6461538461538368,0.6307692307692321,0.6076923076923038,0.5846153846153896,0.5692307692307708,0.5615384615384613,0.5692307692307708,0.5846153846153754,0.6153846153846274,0.6461538461538368,0.6692307692307793,0.6538461538461462,0.6307692307692321,0.6230769230769226,0.5999999999999943,0.5846153846153896,0.5692307692307708,0.5615384615384613,0.5769230769230802,0.6076923076923038,0.684615384615384,0.7153846153846217,0.723076923076917,0.7153846153846217,0.6769230769230745,0.39230769230769624,0.7076923076922981,0.5846153846153896,0.5692307692307708,0.5615384615384613,0.5692307692307708,0.5923076923076849,0.6384615384615415,0.684615384615384,0.4000000000000057,0.7846153846153783,0.6769230769230745,0.6538461538461604,0.6384615384615415,0.6153846153846132,0.6076923076923038,0.5923076923076991,0.615384615384599,0.646153846153851,0.6615384615384698,0.7076923076922981,0.6846153846153982,0.6538461538461604,0.6307692307692321,0.5923076923076849,0.5692307692307566,0.5615384615384755,0.5692307692307566,0.5846153846153754,0.6076923076923322,0.6307692307692321,0.6384615384615131,0.6307692307692321,0.5923076923077133,0.6076923076923038,0.6076923076923038,0.6076923076923038,0.5923076923076849,0.5846153846154039,0.576923076923066,0.569230769230785,0.5846153846153754,0.5999999999999943,0.6384615384615415,0.6923076923076792,0.6846153846153982,0.6538461538461604,0.6153846153846132,0.5923076923076849,0.576923076923066,0.5769230769230944,0.5999999999999943,0.6384615384615415,0.6999999999999886,0.7307692307692264,0.7307692307692548,0.7076923076922981,0.6615384615384698,0.6384615384615415,0.6076923076923038,0.5923076923076849,0.576923076923066,0.569230769230785,0.5615384615384471,0.5923076923077133,0.6153846153846132,0.6307692307692321,0.6461538461538225,0.6307692307692321,0.6307692307692321,0.646153846153851,0.6692307692307793,0.6692307692307509,0.6538461538461604,0.6230769230769226,0.5923076923077133,0.5615384615384471,0.5461538461538566,0.5384615384615188,0.5230769230769283,0.5384615384615472,0.6076923076923038,0.8153846153846018,0.8692307692307963,0.9076923076922867,0.8769230769230774,0.8384615384615586,0.799999999999983,0.7538461538461547,0.41538461538462457,0.7846153846153925,0.6923076923076792,0.6153846153846132,0.5923076923076849,0.6153846153846132,0.6923076923077076,0.8153846153846018,0.9000000000000057,0.853846153846149,0.776923076923083,0.7153846153846075,0.6846153846153982,0.6307692307692321,0.6307692307692321,0.646153846153851,0.7153846153846075,0.776923076923083,0.776923076923083,0.7692307692307452,0.7384615384615358,0.700000000000017,0.6692307692307793,0.6307692307692037,0.6153846153846416,0.6076923076923038,0.6307692307692321,0.6615384615384414,0.7076923076923265,0.723076923076917,0.7307692307692264,0.6846153846153982,0.6384615384615131,0.6076923076923322,0.5999999999999943,0.5999999999999943,0.6538461538461604,0.7615384615384642,0.7923076923076735,0.8153846153846303,0.7615384615384642,0.7153846153846075,0.6769230769230887,0.653846153846132,0.6230769230769226,0.6076923076923322,0.5999999999999943,0.6076923076923038,0.646153846153851,0.6615384615384414,0.700000000000017,0.7076923076922981,0.6846153846153982,0.6615384615384414,0.6307692307692321,0.6000000000000227,0.5999999999999943,0.5923076923076849,0.6076923076923038,0.5999999999999943,0.6230769230769226,0.6615384615384698,0.6923076923077076,0.7307692307692264,0.723076923076917,0.6923076923076792,0.6615384615384698,0.6384615384615415,0.6153846153846132,0.5846153846153754,0.569230769230785,0.5846153846153754,0.6230769230769226,0.7153846153846075,0.7307692307692548,0.7307692307692264,0.723076923076917,0.6846153846153982,0.653846153846132,0.646153846153851,0.6307692307692321,0.6384615384615415,0.646153846153851,0.6538461538461604,0.6615384615384414,0.6692307692307793,0.6615384615384698,0.6692307692307509,0.6538461538461604,0.6615384615384698,0.6615384615384414,0.6384615384615415,0.6230769230769226,0.6153846153846132,0.6076923076923322,0.5999999999999943,0.5923076923076849,0.39230769230769624,0.7076923076922981,0.5769230769230944,0.6307692307692321
ECG_video.csv,0.9307692307692307,0.9076923076923076,0.8153846153846156,0.7461538461538457,0.6923076923076921,0.6384615384615389,0.615384615384615,0.6000000000000005,0.6076923076923073,0.6461538461538465,0.6923076923076925,0.707692307692307,0.707692307692307,0.6846153846153857,0.638461538461538,0.5999999999999996,0.5769230769230766,0.5538461538461554,0.546153846153846,0.5615384615384613,0.6461538461538456,0.9000000000000004,0.930769230769231,0.8923076923076927,0.8230769230769219,0.73076923076923,0.6692307692307686,0.638461538461538,0.6000000000000014,0.592307692307692,0.6000000000000014,0.6076923076923073,0.6538461538461533,0.6923076923076934,0.684615384615384,0.6615384615384592,0.6538461538461569,0.6307692307692285,0.6307692307692321,0.6615384615384627,0.7076923076923052,0.7230769230769241,0.6999999999999993,0.684615384615384,0.6538461538461533,0.6307692307692356,0.6384615384615344,0.6230769230769226,0.6307692307692321,0.6692307692307722,0.7307692307692264,0.7307692307692335,0.7461538461538453,0.7230769230769241,0.6923076923076934,0.6538461538461533,0.6384615384615344,0.6076923076923109,0.5846153846153825,0.592307692307692,0.6230769230769226,0.7000000000000028,0.7769230769230759,0.7923076923076948,0.7846153846153783,0.7461538461538524,0.6999999999999957,0.6538461538461533,0.6153846153846132,0.6000000000000014,0.6076923076923109,0.6076923076923038,0.6230769230769226,0.6538461538461533,0.6769230769230816,0.6923076923076934,0.6769230769230745,0.7000000000000028,0.6923076923076863,0.6846153846153911,0.6692307692307651,0.6692307692307722,0.6538461538461533,0.6769230769230745,0.684615384615384,0.7076923076923123,0.6999999999999957,0.6692307692307722,0.6538461538461533,0.6307692307692321,0.6153846153846132,0.6000000000000014,0.5999999999999943,0.646153846153851,0.7153846153846075,0.7538461538461547,0.73846153846155,0.7384615384615358,0.684615384615384,0.6615384615384556,0.6307692307692321,0.6230769230769226,0.6153846153846132,0.6000000000000085,0.6153846153846132,0.6153846153846132,0.6307692307692321,0.6615384615384556,0.6923076923076934,0.6923076923076934,0.6769230769230745,0.6538461538461604,0.646153846153851,0.6461538461538368,0.6384615384615415,0.6538461538461462,0.6538461538461604,0.6307692307692321,0.6076923076923038,0.6000000000000085,0.6076923076923038,0.6384615384615415,0.6692307692307651,0.7076923076923123,0.7076923076922981,0.6923076923076934,0.6615384615384698,0.6384615384615273,0.6230769230769226,0.6153846153846274,0.6384615384615273,0.6692307692307793,0.7153846153846075,0.7153846153846217,0.7153846153846075,0.684615384615384,0.646153846153851,0.6307692307692321,0.6076923076923038,0.6000000000000085,0.5923076923076849,0.6153846153846132,0.6615384615384698,0.7153846153846075,0.7230769230769312,0.723076923076917,0.6769230769230745,0.646153846153851,0.6307692307692321,0.6230769230769226,0.6153846153846132,0.6153846153846132,0.6076923076923038,0.6153846153846274,0.6230769230769226,0.6615384615384556,0.6923076923076934,0.684615384615384,0.684615384615384,0.6538461538461604,0.6230769230769226,0.5923076923076849,0.5846153846153896,0.5615384615384613,0.5615384615384613,0.5846153846153754,0.6230769230769226,0.6615384615384698,0.6769230769230745,0.646153846153851,0.6461538461538368,0.6384615384615415,0.6307692307692321,0.6307692307692321,0.6153846153846132,0.6153846153846132,0.607692307692318,0.6153846153846132,0.6076923076923038,0.6307692307692321,0.6538461538461462,0.6769230769230887,0.6615384615384556,0.6384615384615415,0.6153846153846132,0.6076923076923038,0.5846153846153896,0.6076923076923038,0.6153846153846132,0.6615384615384698,0.6692307692307651,0.684615384615384,0.6615384615384698,0.6153846153846132,0.5923076923076849,0.5846153846153754,0.569230769230785,0.5923076923076849,0.6153846153846132,0.6692307692307793,0.6615384615384414,0.6538461538461604,0.6384615384615415,0.6538461538461604,0.4076923076923151,0.723076923076917,0.5999999999999943,0.5999999999999943,0.5769230769230944,0.576923076923066,0.5999999999999943,0.6230769230769226,0.6384615384615415,0.6692307692307793,0.6615384615384414,0.646153846153851,0.6307692307692321,0.6076923076923038,0.6000000000000227,0.5999999999999943,0.6230769230769226,0.6538461538461604,0.6692307692307509,0.6769230769230887,0.6615384615384698,0.6384615384615131,0.6307692307692321,0.6230769230769226,0.6384615384615415,0.6384615384615415,0.6384615384615415,0.6384615384615415,0.6307692307692321,0.6230769230769226,0.6384615384615415,0.6615384615384698,0.6999999999999886,0.7076923076922981,0.7076923076923265,0.6692307692307509,0.6384615384615415,0.6153846153846132,0.6076923076923038,0.5846153846154039,0.5692307692307566,0.576923076923066,0.5923076923077133,0.6076923076923038,0.6538461538461604,0.6692307692307509,0.700000000000017,0.6923076923076792,0.6692307692307793,0.6538461538461604,0.6153846153846132,0.5923076923076849,0.576923076923066,0.5538461538461661,0.5461538461538282,0.5307692307692378,0.5230769230769283,0.5307692307692378,0.5461538461538282,0.6153846153846132,0.8076923076923208,0.8076923076923208,0.7846153846153641,0.7615384615384642,0.7307692307692264,0.7076923076923265,0.6692307692307509,0.6538461538461604,0.6230769230769226,0.6076923076923038,0.5923076923077133,0.5999999999999943,0.6153846153846132,0.6384615384615415,0.6153846153846132,0.6153846153846132,0.6384615384615415,0.646153846153851,0.6307692307692321,0.6153846153846132,0.5923076923076849,0.5999999999999943,0.6076923076923038,0.6076923076923038,0.6000000000000227,0.5923076923076849,0.5846153846153754,0.5846153846153754,0.6000000000000227,0.5923076923076849,0.6076923076923038,0.5999999999999943,0.6076923076923038,0.6230769230769226,0.6307692307692321,0.6384615384615415,0.6153846153846132,0.6153846153846132,0.6000000000000227,0.6076923076923038,0.6076923076923038,0.6307692307692321,0.6384615384615415,0.653846153846132,0.6384615384615415,0.6230769230769226,0.6000000000000227,0.6076923076923038,0.5999999999999943,0.5923076923076849,0.5923076923076849,0.5846153846154039,0.5923076923076849,0.6153846153846132,0.646153846153851,0.6538461538461604,0.6461538461538225,0.6307692307692321,0.6076923076923322,0.5846153846153754,0.576923076923066,0.569230769230785,0.5692307692307566,0.5846153846153754,0.6000000000000227,0.5923076923076849,0.5999999999999943,0.5999999999999943,0.6153846153846132,0.6076923076923322,0.6230769230769226,0.6384615384615131,0.6384615384615415,0.6846153846153982,0.7076923076922981,0.7461538461538453,0.7923076923077019,0.7846153846153925,0.7384615384615358,0.6769230769230603,0.6384615384615415,0.6153846153846132,0.569230769230785,0.576923076923066,0.569230769230785,0.5692307692307566,0.5692307692307566,0.5923076923077133,0.653846153846132,1.0,0.9153846153846246,0.9076923076923151,0.8384615384615302,0.776923076923083,0.7307692307692264,0.7076923076922981,0.6923076923077076,0.6692307692307793,0.6461538461538225,0.6153846153846132,0.6000000000000227,0.6076923076923038,0.6153846153846132,0.646153846153851,0.6769230769230603,0.7076923076923265
ECG_interactive.csv,0.6846153846153846,0.7076923076923078,0.7461538461538462,0.7230769230769232,0.6999999999999997,0.6384615384615389,0.6076923076923073,0.6000000000000005,0.592307692307692,0.6000000000000005,0.6692307692307686,0.7153846153846164,0.7692307692307683,0.7615384615384624,0.73076923076923,0.7000000000000011,0.6461538461538456,0.6307692307692303,0.6307692307692321,0.6307692307692303,0.615384615384615,0.6230769230769226,0.5999999999999996,0.6076923076923073,0.6384615384615415,0.6769230769230745,0.6769230769230781,0.6461538461538474,0.6307692307692285,0.6230769230769226,0.6000000000000014,0.6076923076923073,0.6230769230769226,0.6230769230769226,0.638461538461538,0.7153846153846182,0.73076923076923,0.7615384615384606,0.7538461538461547,0.7461538461538453,0.7230769230769241,0.42307692307692335,0.8230769230769219,0.6461538461538474,0.6307692307692321,0.6076923076923073,0.6230769230769226,0.6461538461538439,0.7076923076923123,0.7615384615384571,0.7461538461538453,0.7153846153846146,0.7076923076923123,0.684615384615384,0.6692307692307722,0.684615384615384,0.684615384615384,0.6769230769230745,0.7153846153846146,0.7153846153846146,0.6923076923076934,0.7153846153846146,0.684615384615384,0.684615384615384,0.7076923076923123,0.6384615384615344,0.6384615384615415,0.6461538461538439,0.7000000000000028,0.7384615384615358,0.7538461538461547,0.7153846153846146,0.684615384615384,0.646153846153851,0.6384615384615344,0.6384615384615415,0.6461538461538439,0.6923076923076934,0.7769230769230759,0.7923076923076948,0.8230769230769184,0.8461538461538467,0.8846153846153868,0.8000000000000043,0.4384615384615316,0.8461538461538467,0.7076923076923123,0.6615384615384627,0.6384615384615344,0.6538461538461533,0.6538461538461533,0.6769230769230816,0.7230769230769241,0.7307692307692264,0.7000000000000028,0.6615384615384556,0.6615384615384698,0.6538461538461462,0.6384615384615415,0.6384615384615415,0.6692307692307651,0.6615384615384698,0.6692307692307651,0.6615384615384556,0.6538461538461604,0.6230769230769226,0.6076923076923038,0.6230769230769226,0.646153846153851,0.6384615384615415,0.7153846153846075,0.8076923076923066,0.7692307692307736,0.7153846153846075,0.7230769230769312,0.684615384615384,0.6769230769230745,0.6615384615384698,0.6538461538461462,0.6538461538461604,0.6538461538461462,0.6384615384615415,0.646153846153851,0.6384615384615273,0.6307692307692321,0.6307692307692321,0.6307692307692321,0.6384615384615415,0.6384615384615415,0.6923076923076934,0.7076923076922981,0.7538461538461547,0.7615384615384642,0.7461538461538453,0.7615384615384642,0.7846153846153783,0.7461538461538453,0.7307692307692406,0.7538461538461547,0.723076923076917,0.684615384615384,0.7307692307692406,0.723076923076917,0.6692307692307651,0.7000000000000028,0.7076923076923123,0.6769230769230745,0.6615384615384556,0.6923076923076934,0.6692307692307793,0.6769230769230745,0.6692307692307651,0.646153846153851,0.6384615384615273,0.6153846153846274,0.6076923076923038,0.5999999999999943,0.6153846153846132,0.6846153846153982,0.6923076923076792,0.7307692307692406,0.7384615384615358,0.684615384615384,0.7153846153846217,0.7076923076922981,0.684615384615384,0.7153846153846217,0.7384615384615358,0.723076923076917,0.7153846153846217,0.7384615384615358,0.7153846153846217,0.723076923076917,0.7615384615384642,0.723076923076917,0.684615384615384,0.7000000000000028,0.6769230769230745,0.646153846153851,0.6615384615384698,0.6692307692307651,0.7153846153846075,0.7461538461538453,0.7153846153846217,0.6923076923076934,0.6923076923076934,0.6692307692307651,0.6153846153846132,0.5923076923076849,0.5846153846154039,0.6153846153846132,0.6538461538461604,0.653846153846132,0.6615384615384698,0.6615384615384698,0.6615384615384414,0.646153846153851,0.646153846153851,0.6384615384615415,0.6384615384615415,0.6384615384615415,0.6384615384615415,0.6538461538461604,0.6769230769230603,0.6846153846153982,0.6846153846153697,0.7153846153846075,0.6923076923077076,0.6769230769230603,0.6615384615384698,0.646153846153851,0.6153846153846132,0.6153846153846132,0.6307692307692321,0.6538461538461604,0.6615384615384698,0.7769230769230546,0.8307692307692491,0.8076923076922924,0.8615384615384585,0.8000000000000114,0.723076923076917,0.723076923076917,0.7307692307692548,0.7153846153846075,0.6769230769230603,0.6769230769230887,0.6923076923076792,0.6846153846153982,0.6692307692307793,0.7076923076922981,0.7384615384615358,0.7153846153846075,0.700000000000017,0.723076923076917,0.6846153846153982,0.6615384615384414,0.6615384615384698,0.6615384615384698,0.6615384615384414,0.6538461538461604,0.700000000000017,0.723076923076917,0.7076923076922981,0.7461538461538453,0.7461538461538453,0.7153846153846075,0.7615384615384642,0.7230769230769454,0.6999999999999886,0.6846153846153697,0.6923076923077076,0.6692307692307793,0.6846153846153697,0.6846153846153982,0.6692307692307509,0.6923076923077076,0.6769230769230603,0.646153846153851,0.6923076923077076,0.6846153846153697,0.6692307692307793,0.6923076923076792,0.700000000000017,0.6692307692307509,0.6615384615384698,0.6692307692307793,0.6384615384615415,0.6307692307692321,0.653846153846132,0.6692307692307793,0.6615384615384698,0.7076923076922981,0.7307692307692264,0.7153846153846075,0.7615384615384642,0.7230769230769454,0.723076923076917,0.7307692307692264,0.6923076923076792,0.7153846153846359,0.7076923076922981,0.6692307692307793,0.6692307692307509,0.6692307692307793,0.6384615384615415,0.6615384615384698,0.6615384615384414,0.6384615384615415,0.6538461538461604,0.6769230769230603,0.6769230769230887,0.6846153846153982,0.7307692307692264,0.7307692307692264,0.6923076923076792,0.7076923076923265,0.6999999999999886,0.6769230769230887,0.6615384615384414,0.646153846153851,0.646153846153851,0.6384615384615415,0.646153846153851,0.646153846153851,0.653846153846132,0.6923076923077076,0.6692307692307793,0.6769230769230603,0.6923076923077076,0.6692307692307509,0.6692307692307793,0.6769230769230603,0.6538461538461604,0.646153846153851,0.6538461538461604,0.6538461538461604,0.6384615384615131,0.6384615384615415,0.6153846153846132,0.6153846153846416,0.5999999999999943,0.576923076923066,0.5923076923076849,0.5923076923077133,0.5999999999999943,0.6230769230769226,0.6230769230769226,0.6230769230769226,0.6538461538461604,0.6230769230769226,0.6153846153846132,0.6153846153846132,0.5999999999999943,0.6076923076923038,0.6230769230769226,0.6538461538461604,0.6307692307692321,0.6307692307692321,0.6538461538461604,0.6461538461538225,0.6538461538461604,0.6384615384615415,0.6384615384615415,0.646153846153851,0.6615384615384698,0.6769230769230603,0.6538461538461604,0.6769230769230887,0.6999999999999886,0.646153846153851,0.646153846153851,0.6692307692307509,0.6538461538461604,0.6923076923076792
ECG_final.csv,0.7923076923076923,0.7615384615384615,0.7999999999999998,0.7846153846153845,0.738461538461539,0.7461538461538462,0.73076923076923,0.6923076923076925,0.6923076923076925,0.6769230769230772,0.6692307692307686,0.707692307692307,0.7307692307692317,0.6999999999999993,0.6923076923076934,0.6999999999999993,0.6923076923076916,0.6769230769230781,0.7153846153846146,0.7384615384615394,0.7384615384615376,0.7461538461538471,0.7384615384615358,0.7384615384615394,0.6999999999999993,0.6692307692307722,0.6538461538461533,0.638461538461538,0.6692307692307686,0.6615384615384627,0.6999999999999993,0.73076923076923,0.6923076923076934,0.7153846153846146,0.76923076923077,0.7230769230769205,0.7230769230769241,0.7230769230769241,0.6769230769230745,0.6846153846153875,0.6923076923076898,0.6692307692307722,0.684615384615384,0.6692307692307686,0.638461538461538,0.6461538461538439,0.6307692307692321,0.6461538461538439,0.6307692307692321,0.6538461538461533,0.6615384615384627,0.6384615384615415,0.6461538461538439,0.7000000000000028,0.684615384615384,0.7076923076923052,0.7153846153846146,0.6923076923076934,0.7000000000000028,0.7307692307692264,0.684615384615384,0.6769230769230816,0.6615384615384556,0.646153846153851,0.6000000000000014,0.592307692307692,0.592307692307692,0.5999999999999943,0.646153846153851,0.7461538461538453,0.7153846153846146,0.7076923076923052,0.6692307692307722,0.6538461538461533,0.6538461538461533,0.6307692307692321,0.6615384615384627,0.684615384615384,0.6692307692307651,0.6769230769230816,0.6692307692307651,0.684615384615384,0.7076923076923123,0.7692307692307665,0.8384615384615373,0.7923076923076948,0.7230769230769241,0.6999999999999957,0.646153846153851,0.6538461538461533,0.6384615384615344,0.6230769230769297,0.6692307692307651,0.7384615384615358,0.7230769230769312,0.7384615384615358,0.8384615384615302,0.8923076923076962,0.776923076923083,0.7538461538461547,0.7461538461538453,0.684615384615384,0.7076923076922981,0.6923076923076934,0.6538461538461604,0.6615384615384556,0.6615384615384698,0.6615384615384556,0.6076923076923038,0.6307692307692321,0.6769230769230745,0.7307692307692406,0.7076923076922981,0.7076923076923123,0.7615384615384642,0.7076923076923123,0.7076923076922981,0.7153846153846217,0.6769230769230745,0.6538461538461462,0.646153846153851,0.6153846153846132,0.6153846153846132,0.6307692307692321,0.6307692307692321,0.6384615384615415,0.684615384615384,0.7307692307692264,0.7076923076923123,0.7615384615384642,0.7615384615384642,0.7076923076922981,0.7461538461538453,0.7230769230769312,0.6769230769230745,0.6769230769230745,0.6538461538461604,0.6307692307692321,0.6384615384615273,0.6692307692307793,0.6615384615384556,0.6923076923076934,0.7307692307692264,0.7461538461538453,0.7000000000000028,0.7384615384615358,0.7384615384615358,0.6769230769230887,0.684615384615384,0.6615384615384556,0.6384615384615415,0.6384615384615415,0.6384615384615273,0.6538461538461604,0.6538461538461604,0.6923076923076792,0.7461538461538595,0.7307692307692264,0.7000000000000028,0.6923076923076934,0.6615384615384556,0.6538461538461462,0.646153846153851,0.6307692307692321,0.6307692307692321,0.6230769230769226,0.646153846153851,0.6230769230769226,0.5923076923076849,0.6000000000000085,0.6153846153846132,0.6230769230769226,0.6153846153846132,0.646153846153851,0.6769230769230745,0.6769230769230745,0.7000000000000028,0.6769230769230745,0.6769230769230745,0.6769230769230745,0.6769230769230745,0.6615384615384698,0.6384615384615415,0.6307692307692179,0.6307692307692321,0.6384615384615415,0.6307692307692321,0.6769230769230887,0.6692307692307509,0.6384615384615415,0.646153846153851,0.6538461538461604,0.6615384615384414,0.6230769230769226,0.6615384615384698,0.6769230769230887,0.6538461538461604,0.6615384615384414,0.6615384615384698,0.6384615384615415,0.6615384615384698,0.6615384615384414,0.6615384615384698,0.6692307692307793,0.6615384615384414,0.6538461538461604,0.6538461538461604,0.6615384615384698,0.6615384615384414,0.6538461538461604,0.6692307692307793,0.7076923076922981,0.6923076923076792,0.6769230769230887,0.6923076923077076,0.6384615384615131,0.6538461538461604,0.6692307692307793,0.646153846153851,0.653846153846132,0.6538461538461604,0.646153846153851,0.6307692307692321,0.6307692307692321,0.6384615384615415,0.6615384615384698,0.7307692307692264,0.7769230769230546,0.7846153846153925,0.7538461538461547,0.7538461538461547,0.7538461538461547,0.723076923076917,0.6692307692307793,0.646153846153851,0.6076923076923038,0.6230769230769226,0.6230769230769226,0.6230769230769226,0.6923076923076792,0.6846153846153982,0.7461538461538453,0.7384615384615358,0.7153846153846075,0.7538461538461547,0.7076923076923265,0.7076923076922981,0.6923076923076792,0.6846153846153982,0.6615384615384698,0.6307692307692321,0.6230769230769226,0.5999999999999943,0.5846153846153754,0.5769230769230944,0.5923076923076849,0.6076923076923038,0.6538461538461604,0.6615384615384414,0.6692307692307793,0.7307692307692264,0.7076923076923265,0.7692307692307452,0.8307692307692491,0.7461538461538453,0.7846153846153641,0.700000000000017,0.6999999999999886,0.723076923076917,0.7307692307692548,0.6999999999999886,0.6846153846153982,0.7307692307692264,0.7846153846153641,0.7846153846153925,0.7461538461538453,0.7615384615384642,0.7692307692307736,0.7615384615384642,0.7538461538461547,0.723076923076917,0.6846153846153982,0.6307692307692037,0.6076923076923322,0.6307692307692321,0.6769230769230603,0.7923076923077019,0.8153846153846018,0.7692307692307736,0.7692307692307736,0.7538461538461547,0.6615384615384698,0.653846153846132,0.6307692307692321,0.6153846153846132,0.6000000000000227,0.6153846153846132,0.6153846153846132,0.6615384615384698,0.653846153846132,0.646153846153851,0.6230769230769226,0.6153846153846132,0.6307692307692321,0.6538461538461604,0.7076923076922981,0.723076923076917,0.7538461538461547,0.700000000000017,0.6999999999999886,0.6846153846153982,0.6692307692307509,0.6769230769230887,0.6615384615384698,0.646153846153851,0.6692307692307509,0.6538461538461604,0.6384615384615415,0.6615384615384698,0.653846153846132,0.6538461538461604,0.6846153846153982,0.6769230769230603,0.6769230769230887,0.7076923076922981,0.7153846153846075,0.6923076923077076,0.646153846153851,0.6461538461538225,0.6384615384615415,0.6307692307692321,0.6307692307692321,0.646153846153851,0.723076923076917,0.7230769230769454,0.7307692307692264,0.7846153846153641,0.7538461538461547,0.7230769230769454,0.7153846153846075,0.7153846153846075,0.7307692307692264,0.6923076923077076,0.7076923076922981,0.7153846153846075,0.700000000000017,0.7076923076922981,0.7384615384615358,0.7307692307692264,0.7307692307692548
