ECG,-6.675778221181215,2.2165798274926285,4.35769719254149,5.375936977514677,9.356950656386967,14.323686904779974,23.34912060319567,28.590997283767518,9.618778853235334,-22.763255730975047,-36.87448370271936,-34.37386975527903,-30.584703729723657,-22.54896698556228,-13.846281816224485,-12.799860424247147,-12.085180049349425,-7.193146923453224,-3.6744949686679362,-2.5059139219033995,-1.791353657976753,-2.073509722666632,-4.996324600691489,-7.721192947818561,-3.0459239264781885,4.561496696522928,3.880197069192504,-0.345517429662177,0.09917518460102048,1.4204097800621476,2.5746565865668085,5.263111572633371,5.544498514320614,4.874371783480477,6.88820064685463,5.38854834767281,-0.2926336025256546,0.21045530922094846,7.610039284495714,19.411345880456622,32.04189811868538,15.54289922481923,-40.03300731123737,-87.22749345677289,-106.61895127324962,-114.92856274602626,-110.1400107795813,-118.11123508289079,-138.59169339079108,-132.39444685181022,-126.53636410412399,64.72067634226357,692.5239369353302,1112.0585564798432,475.93819754542346,-455.71270303493304,-474.4393073683029,-67.50951177418659,-94.50215845757555,-201.09352921835003,-76.16215142651183,-43.75855035217259,-92.11212494900575,-34.72113775870685,-1.9754689820675821,-27.438361305872682,-4.325268480709073,19.549585417171667,10.788604365357306,21.173725598193286,32.52911718117074,19.600089119862645,9.270534718080135,7.628607382478968,0.43630884765871114,-11.989592232320433,-15.252313071722618,-2.6759714431064627,0.6531754214292826,-16.87745755315965,-16.892133725562147,13.999335287671453,36.79878587334797,40.33927053523035,47.30151726357676,58.18716570233123,62.628207099772546,56.792008762744544,30.985418904006124,-9.409341383975356,-38.91060477057726,-52.45646024130393,-61.9854917592095,-63.420564748698325,-54.203190329519614,-49.10098716090593,-48.979251768575914,-37.76178899645911,-17.128931500817163,-2.0350164919838605,4.892728292432883,5.818951448464256,2.4942757256501586,5.16023483348796,16.754582112957536,24.019739478449942,19.097422651940622,2.9761338570343483,-20.146837705735734,-32.19474246482321,-21.395575385776457,-9.207684623118997,-13.6430046325231,-18.735559498716626,-13.198864314630224,-8.203743427908492,-5.664488322766804,0.23213174126524372,1.8270131532331142,-4.768320492629465,-7.893777126819474,-3.129999002899887,2.113628531571816,5.450520151393944,6.2386868292145685,0.5889261583183725,-5.90150922728149,-2.430920078094452,8.409891850098312,15.102387512007901,8.79066751895211,-10.668169656851504,-23.67312071257478,-13.104206329315467,5.313153491644199,16.69353487705823,19.451141098131796,-3.701688267747314,-42.4778216243062,-63.50716880046961,-82.2301630481982,-99.02802324530509,-94.43461483991018,-112.04008169477501,-134.62756885565634,-118.78178362243057,-85.02177469613923,216.56016075656822,884.0458171610807,1030.6963883571998,131.07641802475786,-617.137209616603,-359.90074242367507,-14.9243465138718,-148.8432847683575,-183.90867665362566,-34.16726308406037,-46.70096119110427,-78.97255242498387,-14.177566439063371,-12.060314069608921,-39.839736455918995,-16.700927489805714,-4.294228503698249,-2.217453059492554,14.751315558327223,11.524414506625488,-1.6030696664336235,7.084112174093086,20.34333444438779,20.902223371011456,18.135445994845405,20.3377845527816,17.589219316738202,1.3980549673827447,-4.143134218010379,17.96246575727482,33.74345545069824,22.63228853502835,17.74508699370061,34.690709243080114,49.42823749403055,50.7114938560142,37.10367980975903,1.8586375541661173,-37.93116430353788,-57.26360786455059,-61.08187699135064,-60.272151908286816,-56.29244981039887,-56.68859436536422,-56.389939928980795,-40.15386388695063,-19.422353880556834,-11.170354329944356,-8.141658056926225,-5.160161331651185,-4.4290971010175415,0.9559141382203915,12.235305059847569,20.834730792626967,20.05770225655175,5.273261147590885,-14.449472446938998,-18.89789186703899,-8.196495750260647,-0.21533662440550572,-2.9956516478634114,-12.406168906546212,-17.666408198865916,-10.407962799954815,1.073276818136426,3.2542131012846074,-3.2417342259581456,-9.094945236276928,-8.69791321977839,-3.818192110473042,0.5846944900014179,3.1452562684112424,3.971478157814328,1.7852163224305073,0.07953041345380818,5.9511219029066265,13.843140441897498,7.189350401884895,-8.134779962838442,-8.300399636421098,3.7349933916508133,15.555949649758453,26.517351914431785,11.863310004649867,-38.09729639185139,-80.41705305827332,-96.06039228605214,-96.87126395762306,-98.40512577641238,-124.98239685965231,-137.21087412903267,-120.1370693853101,-89.9117701260588,227.40358726164806,872.3788861808594,944.6463005853127,43.32885572264064,-615.5988183280099,-325.24932384156864,-17.40164607124965,-147.0802300151964,-155.59456162878516,-23.589939978251266,-56.165818652447015,-78.58592353115027,-5.861949401066784,0.11613408661252933,-15.74227030444776,9.19855414584308,6.596292215164347,-4.317906247605665,13.01771516300104,17.340578360208184,4.183078788983412,-3.531211266511562,-11.047098109872115,-14.21157150491759,-3.7180083284012726,10.092974394340585,16.08167178098604,15.137499887773494,16.77677985186414,28.33878246415766,43.66881399584228,54.17090668752468,61.39703866049794,67.93350189970394,71.90136603475067,70.1182820931671,54.06738899121629,18.776789980782503,-21.039657057370118,-50.03181270632394,-71.04261915228548,-81.72457116550757,-73.28898173361914,-58.52646652633848,-53.018084572551686,-49.14156753117367,-38.67527300660083,-25.7498949835947,-15.719518544015877,-11.496976789236175,-7.9638821581582455,-0.3273078173113255,4.347997661325904,7.22824160372818,14.847578483133109,16.826028838852253,13.749269672989021,21.20714509249848,27.0971812691517,16.569783135190562,3.6251700458282237,-9.912680023018353,-28.71632901200829,-29.729590677424632,-11.39770594515764,-11.641296642515691,-35.93254476928781,-47.629165510197495,-33.72070118189903,-17.152228295831808,-10.65263699700861,-4.771372230719727,-0.2900765769267437,-4.680650534779705,-7.604168304987841,-6.347328629540492,-11.579877558896563,-13.42699302626159,-3.205240445392734,5.031642078339108,0.725377732487626,-17.504941143390802,-37.991163238472296,-53.45127525463246,-80.04005831859837,-98.49734952645227,-90.65166459168609,-101.4144365429828,-118.08958480811393,-109.5152605545199,-41.365792589186896,340.31739722916603,934.9192747469406,840.0835930968215,-97.193285016512,-609.5727864198848,-256.32604493990823,-21.36862454554774,-161.16480515854624,-125.6905212142759,-9.659468777049469,-60.85779594538849,-65.96401895849965,-1.504556296011872,-14.860665299905751,-19.50941365487847,17.92429567299452,10.41531270317401,-9.507821052873307,-2.9770163742077917,-1.208312979906524,-0.26900455356727315,4.92649863859171,-0.5695047068298837,-2.7828648153324513,7.2763615494285965,16.66481567943211,25.539936193487893,36.1674907321364,40.85558186738377,43.20895959809655,51.864822555167585,57.79747507073493,49.5931509331041,37.21998373427253,34.16194937255858,33.98950382461878,23.61258653012034,3.899351730065432,-11.717946066373482,-18.423255699755114,-31.44235317012376,-55.49186273643534,-65.26385341098641,-45.16183555566535,-14.483702315037892,-1.3133296102275835,-15.797564018262761,-39.233440934815576,-44.52354263962593,-33.938518247127234,-25.165376064314636,-20.22851971429016,-17.942720821583222,-18.512557460333483,-14.516179428690492,-5.379800533121756,0.756775582017049,0.3775194444037453,-5.2915936437775954,-9.326463633928444,-4.700112699049994,4.627665830746146,10.713690552388563,8.034134629537917,-4.73046425035594,-18.586040773900717,-22.498843146335897,-12.967931904888953,2.7242095139453593,5.939295927078842,-6.465910329521098,-14.682453558378619,-13.207307250951736,-8.390131795956183,-0.660813605341791,1.528450493488278,-4.044105370675892,-13.303145011253264,-32.606386406456465,-48.65742797280325,-56.24566889362667,-78.92599298063794,-96.36914503928155,-96.22965272116306,-107.08442557925632,-100.2614630661171,-69.35716057297103,64.65625227822196,537.199744016608,982.26018854362,540.451972373513,-403.68459413804624,-574.1647693183548,-124.89328569699296,-44.866067166529476,-172.87722426046048,-58.65029572098443,4.842470553365374,-70.57602329080797,-40.25917878583903,3.6001296423629796,-25.04462239810536,-3.2324493486001185,31.72390451973573,12.213394750225572,5.236664934540207,11.210914098313989,-9.087360771755826,-20.124476558087323,-6.32519768053961,1.7011894619075267,-1.5390086800148324,0.23365560895234339,9.86595422231407,22.855785326402096,43.045342359884756,56.101604558424505,34.605008930288776,5.918905032572654,18.730698657285757,50.12741121217059,55.99260214251893,44.182057851576886,31.48049902468486,15.136856775472873,-5.239616871619437,-23.478139401977824,-33.38047176161854,-40.79446033362307,-52.08679721855035,-53.15800765701894,-43.832304582816484,-42.61162479823056,-39.699042439690515,-27.917466209447234,-27.510347725603438,-28.881606855813512,-12.178503020536867,4.268242080256453,11.650672258483876,16.28137134771783,4.599070981129673,-11.884533473188515,0.5014510811372586,26.561453749200407,31.837012171322982,19.93371659947353,4.432889156865962,-8.70215834294542,-10.377361106004608,-6.103013279384623,-10.816281864648559,-19.076168990563254,-19.414400530550825,-14.873286497974691,-6.417935978141486,2.7941993299439805,-2.910712785219836,-14.23164524426074,-7.675398398666431,-4.084545048925683,-18.069649438213204,-18.713200938776602,-17.48356812561074,-43.73055039479272,-67.1752061083817,-79.06480890655158,-90.72655675409575,-83.64482060305794,-90.1610524940381,-112.56476136995767,-93.8995698148653,-48.07698310161079,197.6339335766243,776.4907663602686,954.5140774741974,138.9915468956216,-635.4409831192506,-421.2794277577163,-28.67589474566519,-122.53569736654723,-161.497326388747,-3.815662353507129,-19.38603566093039,-63.6613513944793,21.99224266129634,32.863851235718144,-28.76239468265671,-27.30812366236596,-10.207907991487147,-10.514742566455602,-4.592643955488889,-15.44297422230774,-28.89465868274702,-15.352583700941478,-4.83881611821511,-8.387259512322792,1.197006564687559,14.635172542186506,13.014311395570143,16.70345915656995,32.55792465406949,37.53726323531221,39.85896837414922,57.55890526247325,69.49698965439188,66.2062788914174,65.189294430071,56.103451198525576,27.167386239623358,0.6620013153043343,-17.702795490298854,-44.026658785411726,-64.7742101967371,-58.70890833182635,-43.50619304428159,-43.861808747039824,-49.29669353209803,-41.605143731089086,-25.88298764961079,-11.693098568304466,-1.6728902467865474,2.946589628075829,8.343917785419132,12.36695851589782,2.105585971429255,-7.260085921708087,2.063293865158126,7.714590291507953,4.38938318274754,12.795506960003914,11.871592564709582,-11.737747363829989,-16.406404255020888,3.0805543323463915,9.49225578149095,8.91803518816264,14.14578222048834,1.2697822377378998,-24.139506923261948,-24.720282748696096,-9.089069432310776,-13.23673744054792,-23.346580607343448,-6.305420424035339,17.313801982487778,9.760112700994936,-21.061318071678045,-44.06624837379067,-54.81295064894071,-78.4735489624586,-107.8323954155136,-107.72475426424674,-108.43821367835696,-125.06198153378908,-108.88261108285133,-81.74137413321326,104.28478488784705,688.3256549272837,1067.2714451743902,403.6466363171009,-535.9496415276906,-512.5871658623121,-68.1899186340289,-117.83625721984343,-228.97521586651564,-62.04510665851215,-27.12100755607102,-101.95058873802337,-36.31996228939692,7.652607556248718,-26.576076893311757,-5.085441425692007,14.298895341187988,-11.582776898439583,-11.473789733685685,-0.9675554964925972,-4.729846266323911,3.2437434876970768,7.21298421617062,-1.9412006850723085,-1.4141941742836126,2.477724154640269,8.263921529031897,31.567382760225435,50.35477660216696,44.83765279748755,43.8136837523328,58.85969979154531,61.661467654159495,52.69800867777897,55.70361346066765,57.442937075167535,34.88242200817369,0.9790072428522278,-25.515484879452167,-43.36895278348117,-54.26186128266683,-62.922296411705744,-67.86671928674713,-54.61914586275399,-29.66876224127795,-16.342792837378113,-11.690232224226119,-9.28453107103893,-22.47145142658629,-37.92466068503627,-23.350230203442955,6.149697325989509,9.770008142711324,-8.86434821258214,-15.642338330409334,-3.222207929072284,9.304663975214062,12.744688339982535,11.288413372255583,7.0246345896307165,4.061064896156897,9.21356213221701,18.029423966479634,17.570080033934126,4.17764236182294,-9.954806974386686,-9.423452633425951,3.2167102178933877,7.754529559492731,-3.774389494579868,-13.830939197382477,-8.780359898484129,0.9470116070866563,1.8424086836285616,-6.3193107125905215,-19.300382284313066,-46.78777305011247,-102.02303381281423,-140.826473168128,-114.75607366932704,-96.88522635268546,-128.76632189273687,-124.73839851435241,-95.64079959306474,69.17430130613971,651.8201975854635,1118.8470996316437,521.0212997794514,-506.5994109459192,-585.1835501418167,-96.43894018230743,-73.62589300861588,-201.34724142722035,-59.02652129011587,-16.119451431646766,-99.73758956925107,-49.22325660531551,-2.2401384298391136,-30.633098285119424,-7.650168805455873,4.596667007636107,-31.53175043840113,-21.383738335226962,5.56630050556766,-3.170090382676804,-4.279376484233417,1.1407836689561903,-7.040506691086444,-0.2381528636208996,15.620720364094069,18.17470933212146,27.043453730429338,39.61257467530041,30.43566295393446,21.069785808432243,40.4421379824671,71.30274412142968,85.03809863091666,70.69203475766898,40.18592771212945,21.60032579511912,15.614479117131223,-4.906588426487769,-39.437740863363736,-63.608268130567545,-68.02483577161831,-56.60210179676225,-44.25517252284492,-47.418033094184764,-52.83106261390946,-40.52551999241771,-24.83732008245011,-19.684266369633875,-11.541942912943501,0.4889951948474227,1.384385349552936,-3.481391522715514,-1.7684857492975539,2.3411222420500133,5.215817171080715,9.959328609552704,10.888733386585443,1.4621349502636445,-6.259405677848836,2.175322961907047,13.67281891802024,11.027297429230131,7.70711450879302,12.399703815956702,9.261257288035772,6.9287376769002895,21.688321287464436,24.501611876412362,-3.4499749415600647,-29.60576659690017,-33.438306343695466,-23.111897068214372,-4.40887692896635,10.874516846684637,6.488370594875191,-20.30246248275305,-49.72836267914981,-61.337453674755636,-77.68088460081461,-107.59436790883268,-115.4135721396468,-124.760162992842,-146.4392241552847,-128.42262252014,-96.0133458165836,112.34187425786598,732.8220544141354,1108.3780144872812,409.3560716251309,-524.3553593617985,-471.66878839245265,-22.71134282501811,-66.25962038568007,-182.20073550739474,-61.317844769845664,-52.857520221778685,-111.76131896987026,-48.66065935003752,-22.413557645169178,-52.292892643503464,-20.28518116100041,5.060939500266658,-13.266162296887444,-10.125133598666885,2.1064943235063964,-1.2698977404874814,0.32195813670075246,1.7267219970118113,-10.20919389627331,-20.133163856029203,-13.87079418480867,-0.958568541897777,7.488681536201264,19.705807710390662,36.84500883460332,46.53125164489863,56.97693675294417,75.00524255697884,80.00882953776956,68.17501723560768,55.54306688324391,36.360858616773584,5.0157909438971515,-23.147079555825297,-45.02254728675421,-67.23003628474548,-77.87960892251505,-68.01988307741813,-53.58453902594188,-45.62969214103212,-34.04003450965156,-19.11632046263599,-13.48309641576328,-7.314981741299036,8.505085117599721,10.697202102783788,-1.6268017745456458,5.5629272454778205,22.225677428616862,14.266187037417126,2.282290229556579,11.92261449668932,20.38977146375922,10.22627611681242,-9.897343560080593,-29.033986967500525,-31.81766401887812,-16.380546458114605,-5.679340446378191,-11.835011623416595,-22.04615031941353,-18.265773491619566,0.20315569063026828,9.994492134707825,2.608927567555247,1.0553674440930774,11.72801166214974,17.655726177072616,13.365782436079519,1.649419035175553,-9.08292550059478,-8.424944890013972,-8.004705153906533,-16.388082032206963,-15.824521951551375,-3.1270945415895817,9.200556366598807,13.249708979600985,-8.908548483802212,-41.41362745751168,-46.34914313395459,-65.7434532800312,-118.29202432906014,-122.55952147250174,-103.49520400431427,-129.27313422657332,-135.10239926485716,-110.46325067000228,70.25995459471119,663.880447196816,1100.7311036722238,483.49431811197354,-478.91404612621534,-493.5877557871812,-44.10127771155573,-80.71692224189498,-212.79821242550452,-69.07555358763767,-28.462595680045453,-100.05015628450757,-51.45363922184656,-13.606761794046179,-38.91039876180796,-15.21120367204697,9.566914297832273,-3.61210916734883,-6.786672209570032,-8.76575747627643,-10.888881659517633,2.258217019831712,3.4172298476553165,-4.2827428184462475,4.56616292235435,11.459496380748508,6.694110181500019,14.932874143648075,41.881337231105384,63.083951408458624,57.1101030776492,38.13772928255738,39.05776858725093,58.06846553847093,72.80588605767615,74.81233371463847,45.13871076282166,-19.18991072526162,-63.33478158957635,-60.6068158280483,-57.32367360698783,-69.26667186881645,-66.31376729773042,-53.507402206518776,-43.99199411610514,-24.987673845220023,-12.288175736525904,-28.981382169194504,-44.11943549186056,-29.785637466015285,-9.15329279405352,-0.5318130033821262,1.737788364180787,0.4059910758421239,2.5940566171122352,10.59118096912162,9.28276613210167,-0.4588203242243889,-4.434700322097651,-8.184815555388594,-14.356333044056512,-11.315054201044461,-3.3699608670690537,0.12812310811004224,0.7189938297151599,-5.238667959867749,-14.453265515899131,-12.154496854857973,-2.414627616295993,3.143425572653797,6.251430517535988,2.6919246272144175,-7.28278705551127,-4.538232794001277,10.094988263839786,15.659526501343649,12.027031674965478,5.255109133397802,-7.07484475721066,-13.647344599676769,-5.99809311868418,2.2952843957183973,1.055180414534452,-5.978734016236028,-9.38731569353482,-2.856497028819513,4.5906419346134015,8.281836851902863,16.79348824555321,19.3264851923984,5.538586996972867,-3.6085721388752265,-0.910902352858816,-3.213242811856988,-8.06594458724939,-6.689759484623129,-12.528713989697934,-36.10646781016453,-55.546945459779195,-59.45368700519819,-81.49042193690678,-110.81368308778742,-105.33831005853494,-113.34054944781514,-140.96886213842185,-124.78967407168201,-88.94543541171515,161.65744191969645,816.6034346295792,1109.1834854181234,322.901488114119,-536.5665703181936,-421.2143247640696,-76.27476026838971,-183.9554134426386,-221.84203552307224,-50.484271323297286,-50.29798005139932,-96.5710519881966,-28.54700081183322,-10.680478770312789,-31.686804616235314,-9.04283734359592,-6.51433406589163,-15.715785139458884,-2.9102684078626666,-7.026336651644636,-14.192811162312386,-0.6254316149190746,2.2126221681023726,-6.7794766366041515,-7.023320438855524,-3.367106559541326,2.734830979162341,12.6703397361608,21.663524596194804,32.54813951632002,43.85257225079865,51.443558799483824,62.42306094067388,75.44563498300586,79.40785644865464,74.1106488095225,56.18336227596838,19.423720367693225,-16.501261958509406,-32.39087634862949,-43.605926788212116,-60.24906835755381,-65.41859140004415,-55.103288013145566,-41.38930776021863,-27.581253038307445,-19.273131271688978,-24.103119345572622,-29.786711732832583,-20.411392312026106,-2.81469043628295,7.622477244676627,8.07019118143233,4.884284095699053,3.9481142551817507,6.483404391862155,6.653649352293067,-0.8883809148008002,-7.530194115302646,-3.752857067428378,-1.219886459844437,-8.88883961490844,-9.698024941613145,2.986424784160894,9.107598110962886,2.712937323141215,-1.2449840482320438,3.624548369250212,14.720253561931553,27.952034712823053,32.122785282310446,17.600737495714824,-3.8820616867717312,-5.5535245380348,10.147808835409734,4.573629480040788,-26.44175748284924,-41.62537205477848,-37.41940256943349,-41.75604614547705,-44.871279991354605,-34.198118171781786,-27.898453793310512,-25.282360345283454,-12.931628541412339,-2.93434247385645,-4.411003608235461,-7.965365607568515,-7.173529178636553,-1.1392852305856618,3.473349880486513,-0.31071547967207813,-3.450158076578326,0.22881485624732179,3.4148589572164454,4.005897662374634,3.0473258544620396,1.0933972249168704,-1.0465826473777433,-8.708055294162296,-15.841262931492075,-10.60714834623743,-1.9751267262672902,3.809093380242663,0.9684187343733885,-25.214954743936282,-50.97344480566781,-60.95687193432774,-82.23854092450756,-93.95268713671567,-94.53147077879059,-129.93574925169088,-151.3170358280924,-141.50460752737487,-32.00907267870525,494.7092470121909,1123.489988459201,794.0785834380072,-268.6029281539819,-591.2421318156539,-145.83154232432543,-45.382238837946815,-215.42784871013424,-113.14061429148332,-20.501802071486438,-87.93344151997226,-53.67315765384608,6.4178809823137755,-24.66460429719939,-17.91755089059736,18.75510896772671,11.894939174938376,9.144006333862231,15.81199466032125,9.959955549779753,12.93734092343536,8.41035681390317,-12.247006234387362,-10.110730179519235,7.900494612024632,7.717203832176056,5.129090557281842,18.077626816822473,29.390930290021725,36.35055614095671,48.228924295377084,47.79369397435309,32.196858485272045,36.84179567547042,63.48500185554927,67.99551781787873,37.709976318331805,-0.5364248058738168,-27.717510287708606,-39.55643650346619,-43.43146703086906,-51.91235928953163,-60.349218336803574,-58.3842707006289,-52.16581310905615,-46.41467715315051,-36.47869401943946,-27.00706375490644,-24.95703305078642,-24.857700504913225,-20.447024021279056,-12.478976123656967,-3.5805032493932636,0.974001935572339,-1.9199659178637987,-5.005996475548857,-0.12981753722166012,9.794371245479136,14.39080942321728,6.921646058686264,-6.046126220427006,-11.570040999918817,-8.69642806425165,-4.742146215331013,-2.751689597607644,-5.409992853828461,-11.422415874955679,-12.47183304170776,-8.643950178546703,-4.802210608870708,0.14972781975705818,0.3638840567549888,-8.224690402770921,-11.320824148047567,-2.526229294661574,6.0813981443376175,7.995502287536794,2.422998906718413,-7.129199222081941,-7.618538478993681,2.4381672552810647,11.396897024986954,15.261822682451324,13.375066322094051,9.332361349944748,9.01433421087145,2.140945235625601,-11.674411697110187,-11.717902627380983,-4.617272296064049,-8.144330245883788,-10.045254291488655,-6.386724613184956,-6.008660753075096,-0.36207319162357976,6.17362819430101,0.5822880863810553,-4.604498409546563,-1.0336804687376926,6.264897735597687,17.168209914596247,14.80269480301504,-19.188856297145648,-57.41962966385519,-62.62105651396829,-59.878191026768484,-86.9943179344706,-107.54124321352165,-106.22104986665491,-131.80477650037147,-156.11560380755282,-161.10618046914286,-107.28936478253672,333.221785647467,1057.565264446024,1020.9300045683242,12.371790311596158,-581.2989051747473,-247.37437896901181,-27.351980728245028,-197.42617788628135,-163.3335691680569,-21.906967970264446,-58.73317905774661,-71.27346047358566,-21.714577521489716,-40.12599370565832,-41.91522725915688,-7.531874504805472,-15.181996477559558,-22.997103664677585,-11.881133634808467,-18.86600616029151,-18.789164919566197,-4.999997150919754,-7.412468410147959,-14.302216730030882,-13.397221276539367,-12.603104929607449,-4.918326297185737,11.28081252938157,26.214410379059252,38.54529456986408,48.218970729851144,58.45117725027727,75.04002585112954,91.08305292930045,97.66086729107627,90.07949852383116,61.79567604846265,21.80159179787168,-13.788156059995323,-48.21632260115825,-76.81277780251216,-79.83419174823453,-70.08354840447689,-72.91924481222787,-73.22884977348087,-53.708036105150995,-34.33211607786281,-29.345307362680987,-26.648844694447753,-19.70709521165173,-11.853755447182248,-3.256846621811647,2.6261017857569335,1.6162604395004614,-0.8258055090267789,1.7011137926789957,8.225332214685695,14.560713032398198,15.757852049729262,11.625814513749472,8.873422409814463,10.513509083885888,15.231982956515324,19.346710883619018,8.698549618933686,-20.438463070017406,-39.50707107353384,-29.928796920179177,-13.739196589439983,-8.830895497263501,-6.585298997440663,-3.7215105150621373,-4.267895499718367,-2.2723092228750437,3.020832850390976,0.14480518907807927,-10.148097885783095,-12.831478246000295,-6.1120255867186595,-0.6942209515488518,3.395285370906537,8.06366594966236,3.81329430757501,-8.492741612223597,-13.50078831039799,-9.483682913144955,-6.25177929833402,-5.031746051793178,-4.832833428669294,-6.715428799008457,-6.174338478484202,-0.4438106482425743,6.4312714442983685,11.665455493786716,15.180526209738627,16.637159691386668,13.917668347450617,6.537651865623434,1.5073474807094316,2.680078586503255,5.918169773368217,7.7896122897087565,-2.306031468578899,-25.339310244608086,-44.442343379054755,-74.92571565214482,-121.11754881381803,-135.68243362256868,-140.41738315223967,-168.83086390625638,-165.7389166518725,-152.31440419999996,-12.968885235165715,568.7720870240491,1123.073927207703,663.1570828549445,-336.1632458094176,-523.9531641572275,-111.91089254363672,-76.01381998350993,-211.0359217023586,-97.55153602516934,-35.247974918920505,-97.358876825623,-55.97450805905911,-3.4339502410026697,-25.748388833416474,-13.091500308256414,15.613584386601879,4.17774451745298,3.3115547757118113,17.58423674582317,14.58558898840226,12.696313698561841,11.970159607976704,-12.583643488740666,-35.30121035212396,-21.199758885361142,2.638798978555827,5.626742411579058,10.088387178353496,32.556142420187385,59.097455433186404,87.41033834872758,113.65521132104965,120.28450898045853,111.29390047582925,96.64764582371664,64.010293007295,10.663917500496876,-47.64171735178623,-103.16537295325084,-144.51158318166603,-150.75001890134007,-126.46841054979602,-100.39754196197042,-83.43374846722168,-67.569886464361,-52.16630546000103,-38.24801227261135,-21.68906698778136,-7.849933517217146,-2.5592747691489137,1.9419304104189585,7.003788934777159,7.101061794084146,11.16798579296259,21.108415000519944,22.385973651457917,20.793963375828675,24.307139686827043,10.242097016626104,-18.509655552780014,-20.73096170574066,-2.8955123009000534,-8.213155459339639,-27.775259901900753,-27.936978424494075,-15.933720595140237,-10.207708522134483,-8.755223586953692,-9.526443061006646,-13.208628129589338,-12.708934213305545,-4.755344249843164,3.4760990536140106,5.892106411306035,3.8304430924782453,3.084638717725345,8.917343146905884,17.979463214219102,18.979033947067123,8.098871941238606,-6.37031696783334,-16.450978757423734,-18.87395644591798,-12.324104477151172,-1.3227013585399305,4.045374519975725,0.9043295498642507,0.051068498479475366,9.164065463451099,20.434268693698115,24.178118754201705,13.000126316421351,-16.93458956936096,-44.24698831679426,-44.55268328031076,-32.96290082260196,-29.395622949660194,-25.99310861704093,-16.00600700533094,-4.318484653845541,-5.297101646205647,-24.931525133201745,-41.684366671815525,-60.28721376443465,-94.72509406167623,-107.11647723779869,-106.4277651445664,-126.97965745340233,-129.48251510382568,-124.1219264644313,19.012007516004388,589.2167609141203,1097.2573853889055,606.4915051464728,-362.0175592106668,-506.6503260208363,-96.5744075782426,-72.13337718706612,-190.894778847832,-64.51448926420377,-5.020800889852225,-63.52277195671436,-23.90820569774886,4.919617165891985,-42.53982615777607,-38.91552578442718,-8.490415034255804,-18.3521003184567,-25.175766805638357,-16.090648696075068,-12.207367764966833,-5.002770937121788,1.9203417857323595,-3.188919010641396,-9.79034817877402,-7.3122723503116545,1.7703053087437848,15.007021862848195,29.39800133457155,37.344732756371386,40.96850992083381,51.69420192620545,68.05689561092292,80.87337234632159,87.57924307143907,83.336070726489,65.85380957397763,42.00334389635597,13.737639818699602,-16.003187958365427,-38.555301463884874,-55.83734153022272,-65.69670763255519,-56.61054984099211,-42.949625130236306,-45.39275071796894,-48.652167303373304,-38.29405109880291,-27.086269318228023,-17.790389529476823,-3.6484561609030894,6.1337102686543075,4.508480124986955,-0.27172338269255114,-0.8762069166788606,4.138528420732507,13.698601800418093,22.138911536367242,22.38626654898201,13.631365203964666,3.301403098138339,1.6018138099038046,11.572721661544469,18.165554623974366,-0.6864870175201521,-34.59060970731753,-44.43675340258408,-25.35201262731241,-9.435571848529568,-4.918968968274411,-0.3046474200864111,1.399614792535619,1.9087473323327586,10.264723344075318,19.52336051250281,21.88710348308587,16.71711352455933,1.9628499464993503,-9.132977984845764,-6.3487992614387085,-13.221850258644885,-36.229880683326485,-41.90850167178693,-27.42244180771634,-21.277299675307667,-20.193087691915807,-10.581857350170342,-3.0982035150159746,-3.5669970670648254,-5.512496143820805,-5.333252072152028,-1.8299103428686578,-2.688206409734601,-12.093423349979247,-16.769072611903933,-11.279685721002252,-1.0003022537056658,5.027267014876078,-11.209020598127427,-38.80432321408837,-56.327829758954344,-80.46287920973636,-97.40597698174807,-89.2570229945548,-103.26248401942168,-121.49964368126469,-109.05123877510943,-44.150245820254725,332.6954022000183,943.5119497757655,866.8605616742807,-81.58136228216378,-611.7497037501403,-259.25375337188717,-27.20738433847029,-173.86026388962614,-132.3818773919734,-10.950169485476408,-67.77723433154425,-72.14128865185293,2.5810200680248077,-6.916332661540309,-19.13567369108929,9.497036325357971,4.578273408115987,-4.313315666394425,7.268911911226276,7.377763208499569,6.497246965099967,9.13929168053817,2.668629559120811,2.0974218234971076,11.686007144000428,17.373418018651765,13.29648671622169,1.547793434911485,-0.8147930609294161,17.419369348464866,39.23496529034294,53.86802937079386,67.36629086764084,76.39251597676319,77.03977248640844,74.57122752411412,63.494148731778,26.59999161968601,-31.03833277671632,-71.37478726920173,-76.44440673848396,-72.77269423274849,-72.06383012324315,-60.645732472526284,-48.7390993971958,-46.47403529153864,-36.82398124790203,-19.925173880335343,-12.622385909663748,-11.144772852344525,-5.647175377528054,2.5966258446982717,6.978098516838687,3.15198999807546,1.105374060625092,6.888553995817745,6.9102378818425265,3.458338368181547,9.888910291333007,12.626531057368172,5.708292087928081,8.054493861970442,15.548652350167135,14.462697540369074,12.26279033379339,5.135994977004432,-14.539239646368944,-27.095113225983628,-23.30285231264891,-18.134207010101914,-13.160877992503973,-6.846519032696072,-8.297922113624683,-10.132405199285191,-2.0117146465097164,2.4519302979371655,-1.8299184278210898,1.5583018590187283,10.848825738521695,10.885218327807161,7.076396173383661,7.983455081545056,8.414789859789446,6.08098346202167,-1.0101618715499718,-13.336521101989446,-19.492004445585717,-20.341797658706128,-25.443962086049265,-23.159018918420397,-10.030382977833233,-4.0349135217412115,-8.759372143354957,-18.165633429003826,-31.478987299708002,-56.00346942293889,-91.8162463879288,-101.19637266003153,-88.44546241939275,-109.2006521056077,-119.0541809200088,-82.02714583434191,15.460928416860838,413.2733303502453,958.8277168468006,749.6055642042065,-218.18632593072223,-626.3564216753581,-217.20026398853582,-46.26817372733412,-216.9844440512237,-136.94570092604968,-2.6504299662565103,-65.55874758106283,-63.650707122741345,5.634232188801896,-18.25497241921974,-24.893945496710206,18.54330890150955,11.50948914025263,-10.535873629126044,-4.848480334133807,-4.486113432508285,-1.1077705137767033,12.574538641370747,6.278644667600068,-9.199120826962213,0.39920609213317526,18.109086932770538,12.119356606498819,2.7983060121073073,16.387945806227897,32.00393221557414,36.90641524607773,50.57704444662757,71.43978854494165,80.39660324349323,74.6798943760886,58.954668740207865,37.85226353427631,13.800425672703037,-13.99634215246214,-36.60005497812679,-48.772966182901726,-61.460410494208375,-71.12517759845262,-60.7828771866002,-39.35936743956792,-30.73133848347208,-34.69057080394158,-32.73895553534597,-20.253817181604415,-8.557199984875577,-1.1079311051619332,4.58500086239878,3.949254869809689,0.9779582053348879,5.425080237950616,10.719504316946763,12.069319829344057,14.48576897918673,10.808564935331724,0.43550007160427295,-0.15907628430634957,8.052534607861897,13.161979955186027,17.00703379240485,18.806599953889155,10.329623671508704,-7.948307685452134,-19.139791419585702,-5.016128167670967,10.406466174575765,-12.08833897115675,-42.508273214557164,-34.64118473614866,-14.242111608080128,-6.700949972795723,0.5346286792182653,-4.948021238953082,-22.27267173168309,-14.394455242190546,6.216896753661343,4.941953597360252,-1.481766548408924,-4.051822358034173,-16.152587476009792,-17.22173148325716,2.5379443586611856,17.67544901815168,21.790069677201554,11.301775348635083,-17.767038430008725,-41.159385204551484,-63.59117746526179,-94.52337013568692,-101.08747261916876,-114.57949433129815,-156.74806141979283,-151.93759151041576,-113.53269666320014,68.62148914516607,646.7659350925326,1069.5127497767405,460.05263306746775,-493.5577497141398,-514.703939767537,-62.386697640909446,-83.0631555088225,-209.1953631558457,-67.00995240170475,-23.03108605194103,-86.59634785275182,-28.13089512313789,10.426701639511695,-27.166344958406093,-12.685083541474514,9.361093727224425,-5.483197345116933,-0.3250771048159251,7.901709453697716,-4.057389947205426,-5.142035400958083,3.854898089164539,7.27011877638016,3.1806130924074507,-10.456597842255604,-16.87252219412069,-1.8274794381986101,19.796697229200657,36.75447075896608,51.803567438919586,65.96209918567365,76.92061365037671,76.1665705940402,64.48663956546298,58.76792029573507,54.917380675952856,30.644671149330943,-7.751430825005985,-34.907558116177135,-43.7967133739385,-46.295358896793985,-58.459270576405075,-79.56565701429268,-86.73726667325631,-70.04469555237671,-46.41214268446007,-30.041112893527348,-21.857819694243393,-17.94430030806162,-10.506777025192271,1.8056590033690405,9.404285005133683,10.277376080605269,12.645915048504769,14.016240619866535,4.433979056502782,-8.742330809069408,-9.75763028618229,-3.342561758658624,-3.2073513856615143,-6.868499971975407,-6.766952052790909,-3.9740572280166653,-2.1732461460958543,-3.533669436274973,-4.886159664376045,-2.431419200645869,-2.238045213853635,-5.116297852614093,-1.3161474911724795,3.638537394651786,-0.8929594370182432,-5.197754982387165,-2.7107506478694736,-1.2032169517936318,0.1210736005399391,3.1472098657779393,2.421044665802114,1.2923519638292236,4.856272199621079,10.00738478564566,11.684243541748504,2.3934611939840487,-10.791068916043486,-6.3385088848147735,10.117843973800005,19.400609757173775,16.465033090476894,-11.374969823288003,-51.600792269162014,-70.30512145585718,-87.01473142851852,-105.64432511996885,-98.46250753891363,-111.60133005750144,-140.9132982694204,-127.57804002979464,-81.0776404289477,217.4167676637449,865.8694134125794,1022.6779455838117,153.03465553817907,-592.504146915561,-350.0049510720177,-6.221867102826067,-134.90278043182724,-170.09010298911264,-27.04338295445207,-52.60986470184852,-87.2127811076159,-7.207972674336544,-2.7738402794618793,-51.11955164611435,-38.31584308670563,-20.18399285287883,-23.30910824378786,-15.734514354864274,-8.492450554773786,-7.581347791497638,-9.438317458244335,-19.08441714006051,-24.080696055245255,-17.449599207272946,-11.583847221766373,-6.497276834011289,6.104374507044396,21.385494682028316,33.83369466048103,46.63966964913495,58.21902043630474,64.86422121212979,72.51663740947784,81.82800216334395,78.38419606507496,53.50680464225689,15.597184941705027,-20.305168064658314,-44.17794580609958,-57.354084966231795,-64.61033351971105,-64.8857210768585,-59.732644666580356,-52.973780391897925,-40.35486402688253,-23.185740898826555,-14.965766891769892,-15.821776648238917,-11.708850741994668,-1.0860257081891582,9.391030788002759,16.74396619896895,12.558690127816428,-4.569695846495815,-15.470115452365818,-10.275131574995905,-1.324858576789322,4.167368898379323,5.806504410118371,0.7816802641020111,-3.1590160759324792,2.069989960415995,8.53519255241923,11.361281746659134,10.195238287010413,-4.008829415874269,-24.460730292485618,-27.68707928176211,-14.655309759051853,-4.579504431047258,-3.455676277105333,-8.437565324080268,-11.470267200418013,-3.7723643337423933,6.059296520901375,7.298432724401662,6.402059550424959,8.150945204561296,9.928991879697143,14.479301560072432,25.04332602665677,36.942093467969066,35.034782008944475,7.774479966573779,-29.425028469300045,-49.35857213965798,-44.1141838161262,-27.632811757457628,-18.290404101866304,-14.118276708191878,-10.99150906289978,-26.33255442539776,-48.612018684441765,-56.03004637247512,-76.45705457448969,-103.74416501630847,-107.37489425649454,-119.3662722643929,-129.7590541552492,-125.32338605365575,-75.86220775666136,321.8464151496606,996.7303392041717,965.6727725730883,-1.8487807345287592,-583.7000451802595,-262.0640981679695,-36.62460532265548,-191.56851941341804,-157.74850803095282,-25.925865636216486,-67.6544877157734,-71.82998412457609,-0.7990946614745447,-3.921584684488437,-4.865091327144211,28.485790385726663,12.933949019177685,-14.792411700059425,-14.626539338822994,-22.118145491594078,-28.877448532119224,-16.172005932606528,-8.61951166149926,-16.895269790837684,-21.879248493248426,-11.760179077562313,3.6636359577884674,17.357079629288258,35.60118648124316,46.694866578159704,36.332644292927306,30.75318668444268,51.9987864242247,73.80936999352402,72.35502580736481,56.48422206446799,35.06245839099827,7.4535929566167,-21.160144357594596,-42.13783601628546,-55.27612896311447,-65.21785065528864,-67.00797313040803,-54.67290235450094,-37.553018209008684,-24.66147313948419,-16.342073366861456,-18.70815098963957,-28.99339249185828,-26.96266234566202,-11.017368248246225,-1.626052318451043,-2.813462252965369,-3.602227453319948,-2.2305209198850395,1.0017442421938583,9.568966948138065,15.85662246559313,9.908139260282947,2.1686542098772765,5.157732806105008,11.728847210876577,16.548003732820817,16.76799934128126,-3.446149159590755,-34.87069559552655,-39.852408963873884,-20.47716861775252,-9.860053206375119,-10.175032898718154,-10.536820354132363,-12.515135427974144,-11.113343340339613,-3.1208999331982348,4.316138870780215,9.044065005088697,8.527988340154224,2.615696525337998,3.0534394963444704,7.438487851821948,0.5255982568301008,-9.533644814591206,-10.186514986289541,-11.231236628938204,-12.844706327914905,-3.0142322079376624,7.849747480953589,7.864642809617133,4.898065374179973,-1.6931791437633255,-10.507756653575099,-4.291401813718812,9.88657332709007,17.332701634718433,21.81866431922137,0.09678795301322296,-52.70455165619579,-82.0373794282374,-87.63681078434256,-104.34382542010331,-112.79960218252856,-122.96025074569656,-139.7842113102051,-133.74839513364594,-109.31547090162445,156.80165980484372,818.5024096468962,1096.143479040564,316.4343388486741,-520.7777687024824,-395.97879996679796,-35.28436410544033,-135.0878842234145,-207.39779740552774,-67.84655730196658,-59.439316213711336,-94.98605893814855,-28.33569897897832,-8.006188092893012,-26.273775558175274,4.914584405162861,21.70065465793789,9.688400831370243,11.662585936016168,9.231679911523871,-3.5803723911600507,-11.341815145349605,-18.011535267856125,-20.075697827200997,-15.989556818727001,-14.14249652992866,-10.551967142154583,0.22854450157860295,14.595453199724268,29.568944724994175,46.98482315792499,67.04279339444764,81.01294189129382,88.29944610525959,95.53943148497902,83.67637531450958,41.09632023647663,1.5601232942290413,-21.255762047095978,-52.321259330209145,-83.86564357927182,-90.32449270713103,-81.17882482969868,-72.04489150335456,-61.74995117101323,-48.9184323032069,-34.91167350479368,-23.5135659167384,-15.519292555710624,-5.828879145194804,2.399157611006107,5.241380832662191,7.625327616028173,9.711112546952396,14.467787657682809,23.619685992076903,15.643696389545902,-13.276836458504459,-27.55145619052663,-18.590275326925635,-11.721226512974008,-10.219477223389852,-6.837081262866427,-5.839258091615694,-6.864751390811259,-7.987220744997339,-7.007384670630186,0.43679707999580764,5.0784059964279855,0.9536165376673988,-0.47365418396803616,-1.1549835961860353,-8.531468130328749,-9.901816908291906,-3.237791811030143,-3.3065186890944185,-7.180395711116219,-6.041573832135358,-3.219399682536066,1.257275239682218,5.9139967685837185,1.8547155491537968,-6.460208107740584,-5.782613462270265,2.002277597553186,7.652202846344751,9.13489222863958,6.372405774357432,0.8280678298656143,-3.952839664303051,-8.184143698925697,-10.025702123688035,-6.043833090261955,1.8086899248712256,11.015684102949763,9.80029372147929,-9.055869145648561,-21.850785274314525,-30.99362656343225,-67.97295150806742,-106.83313003290559,-124.2724779125591,-137.0002353139455,-135.36008012569732,-141.23193185578626,-25.143406354289823,514.5003546507196,1056.6150689027197,647.5516906639306,-327.21891540699903,-545.9425329749572,-133.9136629410829,-67.11655209372717,-199.85152632187234,-90.13589031465423,-12.113013648990062,-68.48291727241006,-38.74214961604757,7.914687315372612,-6.477097258911449,16.309387361894856,44.070035102068005,15.820892494994652,-16.97816773965861,-33.19193687447759,-40.48224056255676,-29.96534281806227,-20.112190806867126,-22.8886319968047,-23.912286300248184,-20.065417061787446,-10.307182455113718,8.594541330745786,26.095731674923915,33.724398127523905,35.01639687968854,36.896374098086056,46.70777885408509,63.52761561127384,73.74913744727147,67.57849554894364,50.014178676888555,27.589258393868388,0.14755871991399694,-26.289526559002766,-43.095276522325356,-56.00696444009852,-68.46120220259698,-68.49012978913777,-54.96395510314238,-40.065868040761984,-28.243327649012983,-22.72157511228263,-23.879172869670988,-19.886641235823667,-8.790652132690738,-0.8328914427452503,3.424006939372049,3.887534451521253,-1.2759166690818713,-1.8327778794914424,6.760223551048126,14.626923443303287,15.192140643322258,8.628445569390014,3.586689714901814,6.903637446196093,5.405086956596694,-4.897066311345124,-7.104708809658375,-5.208856234613384,-9.51779673884861,-6.030343561540807,7.885215110019795,18.172583707098816,16.689024961930254,-7.016469281612199,-38.45707652307355,-37.35513726398171,-11.707597450681861,-1.839543233144445,-5.998742925453689,-7.793958079227497,-9.580311743192642,-7.510831111095596,3.709854849827769,16.934955995854324,19.45877806108881,2.4500936861958085,-18.06473767138499,-15.252874896768837,2.3440395287382847,5.040834551322073,-10.714205571679344,-24.455388522540883,-21.690365737156228,-3.2351969951577173,17.271983247987453,12.922741504290128,-21.719827637401632,-52.66098415568214,-71.05694409348415,-85.27959091658052,-77.7710348886303,-82.88297485516414,-124.08010785732839,-132.23553972109295,-101.45997688918834,84.43721670262568,642.2961936184695,1029.3745924631787,424.0788383448156,-499.1903294207336,-519.4079296633233,-76.15596967711397,-72.02794254563685,-168.3757059037125,-29.7610834478833,-1.3234421103568081,-70.0100477857197,-17.126584131449363,14.941291736430589,-21.653419952638103,-11.296547062495607,-5.477764664750152,-28.090428428566113,-11.345634669202717,8.835420884240559,-3.5082995864304625,-7.6909034149387905,-3.5931680368938554,-12.64788641660499,-18.984552642747275,-13.450148359386976,-7.022582985842047,-3.100769986872204,3.9756086241261386,18.64755147094281,39.70015115190794,61.158827150495064,74.4561755924263,75.34184694734287,72.51045603299038,75.63836775533053,76.24115515401459,54.55772042253939,4.188687322705086,-51.503260455088345,-77.4152911478037,-71.38131406390484,-61.63158301848186,-54.885225330421164,-42.06886791885898,-42.24488117744684,-65.10665754996201,-68.86677369656374,-34.27035273574735,-8.480639896351597,-13.99019591700133,-15.993141426194214,-4.545912020427899,1.1461232918907598,5.869746787137171,12.099843789039507,4.573967472783373,-8.000853855799154,-6.701515419760159,2.0802969478788675,6.296694486105986,3.8049683101156315,-2.4779724130110736,-4.566572922676652,-2.74442795950341,-4.457172742866784,-5.931149628942318,-3.7690122297251296,-2.1847953780447247,-0.7667569116443174,-2.592964965420321,-8.393227678946282,-6.1409769069231075,-0.48489159225507983,-5.011682017929483,-6.307680419198224,1.4403313421467745,0.45828537161953076,-2.641619338784965,5.632286525178258,9.394140843340281,5.3247473232752185,10.559380070990489,14.738117776495999,0.3113429368696963,-12.218717031999812,-3.914853364011204,2.611552125932683,-5.18388790046185,-11.031596009652912,-21.44577385332763,-40.6268483824382,-51.927415681916344,-71.27427464728099,-94.80022424782544,-92.84831966605091,-105.6069358177092,-133.49051404540188,-119.43727618312172,-44.76740383486239,292.612242322632,897.2794775875703,929.6812634159314,12.667717798565135,-643.7003665602689,-320.1826785038471,15.985893686440985,-117.54236108051668,-122.5405858273809,17.39897598906009,-37.98381000519933,-89.19410439450826,-31.319164217132823,-38.84101876187472,-57.88376303305401,-25.340428438490875,-21.485491912298045,-20.032979174194303,4.17247295982574,-6.291360129043639,-30.32313105422805,-26.991827139887775,-20.2924410485052,-20.372300163664455,-17.513345097536856,-10.189584163349625,4.225540689548747,14.925397156216754,20.412601679818096,41.126592254959974,63.13079956797602,61.33129025155354,60.55570602040573,74.92771091902634,77.51622329161164,70.8357412929312,63.3459831891526,27.051535241103544,-26.878062274361312,-52.25743300886073,-58.613904507585005,-69.47807117270625,-68.34121565672166,-56.748748873765685,-53.93421297224255,-49.75036947874055,-34.73887466347635,-18.02978871790758,-4.3815165665040965,0.7154799615091356,-4.683854324868282,-8.411973584886798,-5.4547633606142085,-2.146236786535395,-1.1733058516423185,-3.3479466813590477,-6.88270182985109,-5.674824784401265,2.7652722718204115,12.525307027485576,10.577678538156505,-4.4074539142947415,-11.614894960829776,-2.2583292110546127,5.7149298712110035,2.249707565179709,-5.026782057480345,-8.876772665355269,-7.2655570424601015,-1.7118384332243899,7.948200190317845,17.868118661289277,13.602496828350052,0.8313823059275078,7.794192689990501,28.165870349201207,23.13649181865061,-10.569498708607128,-31.942037319701985,-18.536181227116675,2.2917016658826777,7.9476720454512,11.198835228702196,4.8617577931886,-31.960495509678086,-83.75746220687897,-126.59447306502054,-137.8116006840531,-117.81921272050283,-118.35122618675145,-130.51184700602334,-115.37352065231605,-49.616505554734175,310.08166428297176,943.3808411115681,949.2215725760702,-16.355394851521154,-678.6328385636679,-344.6966393473376,-23.396703725377158,-167.7001033550839,-154.20331153195187,2.911593344792081,-50.02095158088363,-81.85690067955888,10.600542259860203,12.475696939717757,-15.347604127327955,20.161564844678104,17.963273576416892,-4.475468814028972,19.59257323191091,34.16773782008664,17.51084226920056,3.656585179365262,-14.888033529336894,-38.66209614608568,-41.18317471108242,-21.831874176249826,-3.037867228641339,3.7744541612956954,9.662098549201776,26.671521062255273,46.925350298606475,63.13228665020334,77.6967903276196,82.45855639785958,73.2832150471162,62.08918641583787,46.24984312709205,14.149184945728495,-24.360277019508302,-56.37492966099135,-77.97558737729337,-78.76139407174335,-61.21975233664067,-47.55910927209207,-42.186528156659854,-34.06934253539988,-24.178711164069444,-12.656362429828196,2.182402398035787,4.139037226390105,-15.298637775284487,-31.73379171103052,-23.868973218366513,-3.952445358750637,5.578478913251118,0.08140359649092233,-8.588744862251637,-10.375760978073453,-8.425360715230926,-6.103795300464528,1.781320379348692,10.781627401019819,9.84834654232088,5.267563977371504,5.924355119896958,8.429293527670493,13.86427362721422,15.685240579309605,-4.028855043770967,-31.375018020559676,-35.03519787493939,-20.961032355682256,-10.16922868065492,-3.1103296793074513,-0.4942454322821135,-9.481002539807864,-20.279374410809197,-14.82404550710661,-0.2501050081078251,4.389581991655754,2.1148661889450118,-7.508375273645068,-31.199130275286816,-48.87823677328472,-60.14740981814942,-80.22672557458483,-90.49184076532129,-111.10408952643597,-148.07252299503807,-134.06747891435447,-90.9780840071868,95.99507308632278,679.7934388722421,1094.4225176292061,455.1990922768073,-520.7788703254946,-534.886423047594,-72.85126175076785,-90.52064933335951,-199.441996497187,-45.58958626335816,-13.91357657441256,-82.61352193990044,-16.57301826827493,18.969956877189958,-20.851238940690514,3.554582035448613,31.151823267267382,10.118468118485575,2.38478154621719,0.7465565223896633,-7.291723343753832,-1.5022010620827049,0.9084140561455183,-6.945259155840272,-12.910043298052097,-18.164581010092473,-9.805546926360792,13.91661958607694,23.287365045234804,20.333046884927096,37.368823822452526,68.98174176452368,86.10427423573567,89.95328235263239,93.08953768515481,83.99784107492383,50.93984403005339,5.949738297276262,-31.626904987422865,-52.442236967061774,-64.38992559531714,-77.54884630691691,-77.73061167626682,-57.087867807649815,-41.493467641716975,-36.49449921449029,-24.743106756854054,-25.51094585931368,-48.40686063254306,-50.83693197634652,-26.253908776128092,-16.65673331460563,-20.452205261728544,-10.862493920005406,1.529534413132172,2.4484531858640786,0.8897331709058207,3.5688794578180616,9.49235331329503,14.64621800249308,10.813385023064635,-1.5054712939020494,-8.816206768068742,-5.498910113657207,-4.441608423503736,-11.858299283882616,-11.50093837021523,0.3207230084432364,0.2967431666649638,-12.960554469981474,-12.242556056163993,1.607797454083487,4.01127539685642,-1.6861964266062692,0.18622483304645954,1.9283846312405153,-2.1539376987442367,-2.680916857981078,-4.696408273931796,-12.46522318011694,-8.023023014976367,5.745649502168349,6.856398678007771,2.252155685907514,-3.7688479595366315,-21.066699729894715,-35.63994332940279,-51.178234193693626,-77.6347657862961,-88.76447875720746,-106.19368752240707,-144.00494736003748,-150.19147653384266,-141.60570066666827,45.20283825125554,678.2287255748354,1130.0045132141292,484.23892144922024,-505.3057109493811,-524.9608765999124,-73.39981470175854,-98.91875455486537,-206.21456123862748,-49.772658867438594,-19.835799278872997,-94.25805962416798,-31.466921263235218,7.880122771653713,-27.533431483181875,-1.7366599134536642,24.361635482440416,0.0923530699338242,-0.4962259332192813,15.507716025541377,15.145861748996412,18.340201167530417,19.676701824305752,1.8748811212315228,-23.446157454449917,-34.61191720060055,-18.740269213548785,9.887073874569758,28.72745364515497,39.28146179163616,44.45495711501854,43.274666226381456,53.086180887283405,76.79110816419521,85.50345409677546,68.33369142735867,41.88044545140323,13.948505835690124,-13.731754083261361,-35.79048026340259,-54.30267969212074,-67.70446892421411,-64.7012690998171,-47.11604158645925,-29.664928140124907,-22.20173459022452,-27.559722764346574,-36.59541954607533,-35.65890621378437,-28.397096847749513,-21.580371988144663,-10.724985473062471,-2.789056870200696,-7.158873423129339,-9.678910211423272,0.7951372324860255,13.368453454694608,19.05097245715581,18.76605819056389,16.60634599398457,13.26183334552173,-0.7031272350726141,-23.00754095607713,-33.34638527606691,-32.30423224047102,-34.18669053697341,-30.19124645809491,-15.021846675069412,-5.601163337673061,-6.804352180356599,-9.536527083151672,-10.543016073454872,-8.473782394746966,-4.498972742127915,-0.8570799356888976,3.1523156690319603,1.4317353448085495,-6.427556945705966,-6.50216483449748,-0.4686543907455789,-0.4067521257764408,-0.9562594375787521,0.3293051777848115,-2.392309684624901,-2.5351657118014397,1.6513285925165384,3.917679322233692,7.592017687438068,8.681174729761107,2.706766913964466,2.3060519116546967,3.6695488668483396,-2.9770077847797367,0.9075701867667485,12.021836641333927,6.341245288123906,1.6455763538869097,4.903839517281147,-10.68938031246623,-38.020968037098186,-78.38119937786774,-134.08258100079848,-144.2892198288797,-124.83791515202891,-146.98140511556534,-163.6053303897573,-161.92021163101668,-30.9932801811577,563.1698822430619,1198.2797646011202,793.3177416763333,-291.767807078558,-580.3422800803061,-148.15645418127704,-72.28930802709885,-222.73498400917236,-108.64796664885597,-28.9120737107949,-100.90931425460124,-63.88750414841442,3.530279099115212,-12.780301656172334,2.5306783891795073,35.06603519435335,17.99413299781785,12.781736480411304,23.35588634311056,-1.88283507877801,-31.06385506612866,-29.7286165095599,-22.846904078852138,-23.288168509688827,-19.896692555178433,-13.482422707817701,-7.614705197540291,1.0564034564542908,12.485276236492508,28.11452688196942,50.00501650062625,69.68601024919545,80.08576050799994,83.7898790575063,81.76119909204036,72.95173814101065,54.656154986993045,24.12704233272185,-7.998881156492558,-31.359152180714545,-53.11781505690816,-71.22855591166065,-70.8749736634883,-60.31980522522072,-57.0440373410984,-54.31874995008903,-43.276638047751305,-30.753468906769328,-19.0699911845525,-7.6795683491234,-5.008907344767987,-12.157762889872565,-17.28833234372734,-13.298674510295456,-3.4531920683830624,4.4766871764144565,6.746388194053349,7.861121936952246,9.037687302959359,9.507289689864862,15.737917974350005,18.125656588174124,-4.367398965270489,-33.45752365251521,-34.61619031966229,-19.928181255557707,-16.11963639240385,-17.813035770199395,-15.279433772234132,-12.33919113774623,-10.999493973656907,-9.518428310751059,-5.70203434411995,-1.4951206037122358,-2.21133105408685,-3.9404203675135108,-0.027125157951507717,6.43344762041561,11.12453685386749,13.008488031268776,13.257234082867496,14.573227765527264,13.53526616591607,6.988248321867072,-3.5924864176581384,-20.915851355995184,-35.48421295026976,-29.021534986175567,-14.025042409287355,-10.78587490088524,-9.033546029148745,-3.5005513328200095,-3.6177971801071873,-2.144754025357324,4.848472856724463,7.066930453915738,6.549149690840432,5.074172531046774,-4.898859403869286,-14.118683475765419,-10.510852460443468,-1.8716533580347352,6.953127081616204,9.57151040703669,-12.991727605340675,-44.69318541916249,-58.185975691767624,-79.40582837009433,-108.25540561750842,-110.84266549241443,-125.72849891495129,-157.9530757068123,-166.85078317447255,-159.49881616198036,119.6289640800403,865.6453718868715,1246.6659559490581,468.77288558368986,-477.26752640028076,-433.83112787684473,-63.349826639837126,-145.24548009723236,-224.35753941483875,-76.43560122502424,-64.2301085955367,-117.3299694511266,-50.848712348746325,-18.92877118341206,-41.53084284613912,-12.036250206128358,11.038359844593248,-1.1466215572718372,4.3164839988798995,11.227603101671981,6.356891309434658,13.559719553331085,22.832980344397708,20.376372846386992,7.357752781317352,-16.020180172539913,-26.654796895679922,-8.988233125761253,8.023206770439074,10.187211699185708,23.147442032651696,52.0572659104666,71.3762835205444,71.25843546899846,69.38615903357253,77.77260569728153,72.21051711759661,26.114215536173912,-32.21917237162569,-59.676674318518984,-67.27937481477908,-80.31994444733252,-87.87432340274323,-77.83009030617615,-58.93273156007395,-40.49031970801691,-29.396444990501877,-27.437875005907202,-25.14468585099324,-17.03673271265967,-7.160388844430862,0.8858182970774386,3.0108881902591236,-1.8294284400540448,-5.949680909892059,-4.3359883172195595,1.3294799245839801,8.832873348818735,11.313295063712447,3.7223102566057165,-4.815129398093317,-4.876236792928831,1.1334413471275244,7.1228965291517845,4.758437845780605,-8.339771400536991,-16.757286255956313,-11.10870463189783,-3.7828402366462868,-1.6166374845235252,-0.9415378847288309,-4.93861945173256,-11.49410482738635,-9.71002190556265,-0.5399010580111048,5.669652462144326,3.5258262424982494,-4.2710778164109025,-8.921895509333352,-7.112850149977168,-2.5754722975664346,4.083711628281742,6.640147021276645,-2.134260423509752,-8.759215500193513,-2.1496965928580427,4.441035136865397,4.372286310931999,4.355830162787852,1.8880228831409231,-2.7356481687438934,1.64119973699384,15.460080629875865,25.088682400808246,24.173238996454195,21.877537738183,19.71174934042145,9.249238804716601,6.2565447087046975,23.016665246655872,27.347776455273717,-0.021818143650250477,-41.14738546031772,-80.21095796457604,-97.97384205759975,-101.37217847270382,-119.82783672057788,-129.94112600399978,-128.04502830451193,-142.74361310246456,-139.06032859234958,-127.32607037917644,2.449030320700899,561.160068366998,1127.1405786023965,704.442328967132,-303.7784272139257,-523.0106951345308,-107.62797767629613,-64.42381871928731,-211.97899518018443,-106.04699465783567,-43.797115043793895,-104.18509095445162,-60.19828210751547,-12.446509182406178,-35.3356081841698,-11.284149113500394,18.572784391539948,-9.486147768925047,-29.990264253596806,-24.99856822738091,-20.321874890815153,-11.516452840718406,-5.39576864169714,-8.90687945974072,-13.641761775844213,-16.111902563547048,-11.375718077253428,2.825596584044245,19.505572542437424,31.017314816200887,33.16341479251756,38.1490732703412,60.670130817671755,84.87950010203845,91.38244586924974,85.50818669764057,69.21421656528912,39.59621950010777,7.601139942886862,-20.090323054486188,-44.92682718809802,-61.90316991256834,-69.11497410183148,-67.8323010930757,-54.46853796544512,-35.630189184916965,-23.83115882709122,-16.439234044858058,-11.390210662707538,-15.852580115642407,-18.454554905551074,-2.9089527738063232,15.060993737795462,18.695039427291874,17.469653995413143,10.306894014536786,-4.672422585448224,-2.4519251187901325,8.287794495361904,-14.431334963752057,-47.30623643699921,-40.82279689950057,-19.32879726035385,-15.40524701588108,-10.87745903841056,-3.8798034223531133,-9.998514496699356,-14.572694144824375,-7.276123996770685,-1.6776160028471523,-0.8020927568367906,0.19911180655524774,-0.5665639859431444,-1.451089454079904,0.8686344540858757,5.300892052621033,10.320397730429649,11.683943073373158,7.087517239814921,5.742707616710789,12.085532930816257,11.036459602311044,-5.844322212535323,-21.573345460387323,-22.595882280832924,-16.79528418050308,-11.482284756657632,-5.705946101091589,-3.034341893847218,-5.4826946389173905,-5.437697907390265,1.7122452889308644,10.715976994802082,14.521338228351382,8.950142398972467,-1.1116617028981857,-2.3706399738736845,4.439781152901505,8.629541257060286,11.520631300625745,0.09021628778958402,-39.35780242749347,-69.9816197190378,-77.61218783552415,-96.95664852391674,-109.69811434025084,-109.49036658608635,-132.12599160212181,-135.57099006583672,-114.82904869078467,-0.2795263744671388,507.4930330731171,1085.7515908715416,727.8537277867588,-314.47435270005053,-613.6353327520985,-158.49630586070256,-42.297774490708704,-198.99254881431938,-91.99804117830269,2.6480986368417945,-78.06326176705892,-68.09857164967995,-16.16890920172327,-39.68102766851998,-28.894162967611408,3.985562338721497,-7.459490707665669,-8.314311021044922,5.050792245017359,2.4452370903232863,7.07827019596446,12.757904344766795,8.228476859273954,8.038128333147622,-6.244200403230888,-32.028068090956516,-23.75018998340383,6.932816200259994,20.186888525077677,31.52325423790001,53.483370185665606,65.53995628244809,73.10761528454877,88.21145457340563,89.364397839682,65.30958135877158,35.320393575512895,8.064346599233065,-23.70138996363677,-53.01970944164637,-65.49196403101854,-67.1311082649066,-69.6592581476407,-64.43934125701199,-46.87186341641528,-33.80704393527344,-30.97760383358363,-26.55454448265727,-17.491322092844143,-8.011233314680416,-1.369016751587635,-0.13582741146839616,0.3186049873197039,2.5768391570468436,1.2582424781303443,0.6035710312505973,7.042217094957168,12.375636585156803,11.19440824923914,8.015217524455544,5.717602909510381,8.473753732658354,15.668841780782067,18.315656026663117,17.156995983987965,12.84124502214712,-5.350523721497947,-26.091193731799283,-24.389764861345498,-12.450559937706407,-13.163551160367048,-14.26675051024185,-4.537365642971161,4.820000274852295,12.504274816361956,16.944905603371087,1.6761939041356904,-23.241236290480856,-23.649759231394906,-2.3718343806136204,7.801633661082605,1.7528082720931657,-4.24769336111218,-9.263582358395194,-16.22628944855218,-15.719179538474569,-6.9329323237836,-3.498059469498113,-6.438565119802313,-1.7848215703309354,9.908409634214378,12.954710495410701,8.873074915239775,8.647985250292107,-2.03628098227302,-26.007042425952243,-25.994754263977697,-10.267266267510152,-32.47608075048892,-74.82625522603549,-97.65674320476195,-114.68814178881374,-116.70515326141005,-108.86035400571888,-127.03125890058324,-136.58412228831702,-134.2010815791087,-23.484492245976185,504.7942232150443,1098.7888485664398,745.8578151656591,-288.59343997085693,-593.2481837746354,-157.48837101006353,-44.02751673871559,-195.1013894841983,-98.86332973003562,-15.547976031471237,-90.8189996757722,-64.456128985738,5.429399545096265,-12.423538164584293,-10.777651350658884,12.525490602838055,-5.4060637832470455,-8.466837808522062,9.806925474697351,4.456142974511626,-1.4310528474216788,3.791783908245385,-4.809339181443008,-17.275697892066212,-13.449610628819734,0.07875946560671387,10.707251877973698,14.623814449404993,20.682887112092573,40.157005724981005,64.81254583712223,80.73221345537505,91.91172908671868,99.53911256276379,88.34480731167055,56.97856758386712,25.00918788551069,0.24766273204235256,-27.012928189825335,-57.55481219019478,-77.5396826515267,-79.01682472450192,-67.87680125642983,-53.0052975617183,-42.70772462464301,-40.695262943641524,-36.171128528475016,-20.661717750155102,-4.676126648614165,4.7904070212558665,11.07931594233867,12.599345680789945,13.890576268848701,21.62337271926786,26.52259679355995,22.253518549492544,7.53474598374425,-22.121794498691195,-42.78081876549081,-27.232688000225572,-3.533448376600834,-2.248309284946277,-5.634199547028986,-4.1491226509401535,-10.242900834844367,-16.515526266286315,-12.301677264122043,-5.497532805809392,-4.7037569546445255,-10.949804873304373,-16.868416531725696,-12.00725423532793,-0.7708049494155329,3.7118405303604955,0.6183240660143206,-2.2571868341819403,-1.4689183731152609,3.338695031391709,13.157334884739724,21.568640307291904,15.545244852013791,0.0881361019021476,-5.595154671766716,-4.939059091461907,-8.958308107541832,-5.99004256702486,1.2182757696385238,-9.595297832008498,-25.114696711641386,-21.985215084549374,-15.999962974404031,-18.123761518739602,-15.331002706686244,-7.27818041459969,-1.1011239918200708,-5.291890416153315,-23.14155736772271,-38.543663505365714,-56.9816183575087,-84.96261954476316,-94.16726036902334,-111.70003144579259,-155.7318648276291,-158.07881054729103,-135.0537396636698,24.986591035111843,606.3058672795848,1107.2770637944013,585.8590927088934,-403.96763194937523,-533.7900731000816,-100.82361550607628,-74.84172831339465,-196.66032873249384,-67.9275393465627,-16.26118035865619,-83.49217299467453,-35.47452486194783,8.430456357044534,-28.850094711827197,-23.920046254832805,-2.8900912257090035,-15.075198950719466,-10.681129983769887,0.20733772818235607,-5.043880906106782,-1.7292702149119084,5.28298470966206,4.905275691979931,5.540933465506073,6.751694784800684,15.368802123725029,26.541760831059584,14.771935902055644,-1.66861408579493,13.098308000422083,39.77647936863704,52.82258065784602,62.899928819006085,73.1780860854853,74.32845490978877,63.80510512016804,38.62414419420456,4.3244298534049666,-25.61730590106537,-47.816237593179295,-60.726213040936514,-62.25801190474937,-57.27795621343569,-47.05379879474205,-36.15805156684581,-36.15212683087208,-38.42092786108526,-26.418576651313188,-10.430169407421243,-5.6201085066477745,-5.99396559582947,-2.9730637981783286,2.6470140356135925,7.756078335764265,9.463347097364029,8.271303762260413,8.70538215753109,10.979821656353263,12.252699105419413,16.198744305072065,19.547122522123892,3.5817513076046943,-25.32803330767424,-30.851922512417964,-14.801294818396393,-10.520211484783902,-12.665822681539995,-5.9178800747423885,-4.030444926148622,-3.4920179287382127,8.84260329907054,16.110581660948945,11.080037670557251,5.796859096451005,-1.8696626586775507,-5.973504782719116,1.5982840977908257,-0.829208399914215,-17.03939079563545,-19.33207312295302,-10.1687488449389,-6.970532484049601,-1.713441731592937,3.8238421077730482,-5.917480606749049,-17.022963314686024,-7.611588406787118,10.011836898044615,19.402442890288683,21.86977830305301,3.703609409326239,-35.16024327919048,-57.07083936539376,-68.23900117500729,-90.87136427849937,-93.19644335488161,-99.25456722993303,-144.8963358890977,-169.34958833154133,-155.49373653791167,40.657724387393245,647.8602432337714,1085.8007882005459,493.1954778610705,-444.7680115937946,-484.84629700549453,-64.62814546072022,-84.31365319053394,-201.15179819600326,-75.72158149177389,-44.05361562590639,-97.0270785278183,-33.505598515682706,-1.6637717140742794,-38.19840600973543,-15.244457150422681,7.146221968772152,-17.344088039966966,-13.199967730926659,12.389868626968582,14.802901899048669,6.2208631080406045,-2.9967405782101637,-7.751626618201066,-0.7637295802649371,3.8403725400949673,2.5360986883033796,9.052613380081654,12.86477785962727,6.054897309780607,20.874563217935357,62.999673694449,77.34399378816903,54.49410276731829,58.00343344787102,87.35640444086972,70.07041767613208,14.35615268577187,-10.252280830538343,-13.214794323877065,-31.2805935114093,-39.57739330189345,-42.21392517770008,-76.46319743282265,-92.27893758765498,-48.14680421476969,-23.505481495994005,-38.165146764381376,-9.037959808509216,29.484560967734314,-1.3282424223936715,-24.11227346530157,14.031987152261156,17.977310905984496,-26.908682535690694,-29.874986639514177,1.1887869185841708,6.4985928983439765,4.53320593536041,16.7294237984164,13.70873176438723,-5.267294458502756,-3.9674456313621196,13.717683093095761,19.8208160794715,26.672244207996464,37.02336398831421,13.744976465107742,-29.18474867652712,-42.55740750169883,-32.65774467000423,-16.346288023566153,-2.14729330847333,-14.899188456709254,-19.012780026640836,19.260452253421757,17.585300767220623,-37.876437103896066,-32.98084604373635,16.226614735850255,14.274162404041704,-2.008906810323899,-3.100026489402241,-27.413369228325212,-47.09114303183589,-58.643563209733856,-95.63815847147637,-102.24915336766124,-80.77019304353749,-101.12369219598978,-101.63731378875153,-19.17718552306559,203.67968499474617,631.3850179570633,816.5626393478622,244.9741788836455,-443.07124630832664,-384.7631661786193,-53.594877616813214,-93.07197472911359,-149.99404370597333,-18.794490143267694,-16.73871436218232,-90.83973250646986,-45.943135640613306,-6.607422047342904,-21.273265441557168,-9.457639121592152,-9.49261526839945,-32.37278560647782,-29.513746760228447,-22.610419284613986,-21.88142221055827,-3.122339022094266,9.604698234826214,-4.749092151265488,-21.674686109459863,-18.79146804441462,6.018723338908657,27.718149458738985,18.525540102075116,9.508655579152876,37.52628613528051,64.27017302128988,60.505852273993696,63.88538426920068,80.60833603457354,69.90979466431953,34.100746940191335,9.856613445064852,-0.24044688658861002,-20.601416368112368,-48.887757989758555,-59.83819772154908,-55.86056693912982,-49.36490617378551,-33.43904271386417,-26.833983984295983,-45.81155908145459,-46.6100304100274,-17.96695921270218,-10.39505630160377,-18.530011270646902,-3.0850528458380655,19.33117637115513,20.180486094048224,3.8763637375248,1.0879386572561947,32.66183672186018,46.488408161856015,-2.762433913736679,-45.20407139036302,-26.947190333637845,-0.923703008114316,4.25421360567408,6.958235292685327,0.5968389682034871,-8.416633577090765,-3.9978556350279337,-4.867143549289651,-15.47350518290759,-15.683161732123784,-10.63804787407719,-14.935868789505086,-24.455012603273538,-21.523161730228445,4.543170582317025,28.17551124236014,18.699049808804123,-12.360907894982379,-38.476561444339936,-48.86570662128959,-60.485996735798466,-91.0678366157337,-100.083293002732,-81.72932272456988,-105.98761778467802,-136.92603124486516,-114.02555977514224,-23.84497493569944,351.9311290656528,913.2454641759886,800.1361466388284,-104.71735724504796,-565.6831232778638,-205.26650563766609,-8.031167175098595,-174.99793803516528,-133.1495358223286,-6.467803105473962,-59.285412579906414,-60.54036128007776,13.77978983267763,-2.0750331013974908,-15.513669126187244,16.238122314601107,1.9259252491250116,-14.687861988386343,3.838972644519415,0.864078450684683,-9.221678880776494,-4.525655449863544,-23.488080492901787,-44.539223206823465,-24.728015752002154,3.230257113881853,15.848104750489426,27.13431980548571,29.74922938293138,39.15355156753168,80.35855474165885,112.92127376318653,112.06634513824262,107.58161119718517,88.41073527775312,43.59016160522653,11.848938294031814,-6.209122148936126,-26.3009504712594,-36.33475012953901,-62.7550666001127,-106.49773044571177,-99.7748567153707,-63.98644586978756,-75.02168469476797,-90.21698179513191,-58.59982314990353,-29.917671533997037,-24.20392053372551,-12.648362763299176,-3.7339965557347483,-0.981619777318091,10.087970285560466,9.444842063508242,-7.476384415454639,-4.610517916877278,8.618059775573812,-7.642147467096734,-26.486411210971045,-8.088052809023392,10.09597622039263,-4.643548276801717,-14.502202576805455,-1.9048058555823424,4.634532316803881,5.371404545747257,12.558989435361045,8.559793351464622,-8.72330710586834,-13.540228388095485,-3.234486284270906,4.8986153998502,9.589959705509816,4.604223135532926,-28.204974352799926,-61.94119070874419,-63.031159536352824,-69.42491955161854,-91.5166338383383,-91.13225240793241,-106.70208897411437,-141.01450120726784,-134.304281422601,-92.18082070196306,191.04111345763872,839.5337356746375,1048.4692675076471,210.29428749397476,-584.76040672421,-377.59381681053276,-7.9788936287621475,-137.81371098911356,-201.22886460407176,-41.94216968518374,-41.15051510145146,-89.40550935448935,-23.50767397962281,1.2000013884447256,-18.477875161702016,-1.625828508236066,4.013742116868424,5.803261978804089,33.48566868258314,35.30990060564609,-2.9271442481984646,-35.65468449064504,-35.12386165250028,-7.64007971337369,12.418198691032835,1.5178334885725695,-19.527455630434016,-18.37649790226804,8.991240488154626,37.0372300229223,48.38459552862278,59.87917556578158,78.89435425871164,82.10488019223126,70.39889770066775,65.2876838818334,53.78141276805353,21.705948936113504,-10.513050415391742,-39.1415027329633,-71.9662463821216,-81.61085736353985,-64.1422963730012,-62.2931921230342,-72.27632367170108,-57.145299979066756,-32.954468747426645,-21.873458938004077,-10.115265363154464,-1.909250950255526,-5.0016777524831255,-0.7322936759292595,9.017087793152921,13.09392474350835,24.543363286847736,31.42277710754204,9.000306691096648,-13.948842613426585,-7.191802148681877,5.783895758003542,5.017803717394697,-1.3424492135792132,-7.640717231465199,-7.970896703816708,-1.0532701682762742,-2.953911190866503,-19.69323414437641,-32.24572192747293,-25.669080278302108,-11.319172419003504,-3.2848507197526295,3.330159124349292,-2.57473871745243,-37.466851773005416,-68.19549534970696,-79.16865537515,-96.40961931741575,-96.78689511545741,-92.63103212356623,-136.92868485130282,-160.30228306600353,-142.05072763965637,-55.628215991318484,415.25941547250744,1050.8264831645665,827.0270987976132,-160.05902348344415,-521.2256528969356,-129.90177056989003,-23.73633249724001,-186.65168234364853,-111.43930672030382,-44.19822842659781,-118.01295248497652,-75.93826805543716,2.8585027367205065,-15.444438884678629,-15.724775827390356,2.8201201409257015,-14.331843528480647,-6.02706969713044,17.72005235019948,-1.873679333105784,-35.193071435023285,-43.888724029512076,-32.16279510880404,-12.45664155129416,0.0077686046935647735,1.292264962514043,1.5363786363623886,7.91136700169233,24.740530016140223,48.3956661153609,64.946947934219,67.54902845200391,62.97515697001397,62.638994882718286,69.45058947803611,67.66605743164554,38.63171427513566,-8.955374882893004,-43.661435976537526,-51.72579409068906,-50.20003554812857,-52.362927331120936,-51.64624810748204,-44.95567021045484,-35.79966731287659,-22.744014870331913,-12.125225761657,-14.783316041169606,-21.785486349187703,-18.534263582160534,-9.563766965377152,-2.9099067805974386,2.3756677599521883,4.181724281676912,1.256819571372013,1.0626571592416507,5.196780825989969,6.6629912591003855,7.064825464411908,11.869388147959867,14.85446127375755,9.646190512658215,1.7954577011130288,-3.062091138172093,-5.447985145694165,-7.960959481731258,-12.947869549645949,-14.744416052834678,-6.44763646709534,6.806886087507717,20.201488259876868,23.753415045531042,0.34890834829143813,-32.26211643795324,-56.440417976100534,-92.27311132500145,-111.84864840406367,-95.51801542828746,-116.3990533334926,-162.47785959894577,-181.39094701536519,-169.21247736427043,160.2685551907258,884.177203955002,1079.9007022873225,240.00554794132228,-473.39634891072006,-275.16935172220434,-13.138685936805237,-166.72855850665826,-215.88817036929078,-104.10215229122579,-115.27343892125228,-119.67420458426383,-50.99509165304726,-42.80614604600987,-43.62200962140018,-7.552430496511146,-6.777082806379941,-16.744756338616625,-1.0161125613674642,-1.2244854701106895,-10.881717679889945,-1.262391539872155,3.3785255031369124,-3.504254220154784,2.1546198758816915,11.93416129422347,13.309023325056824,23.41857915891214,38.01606255072816,33.94360819212733,26.90470038834365,39.312781342048744,56.11973367555719,63.608123851505866,64.44082659927881,55.8167960958165,36.47279820338456,8.219954085616603,-24.309159264652198,-46.819678699675904,-56.92903112771161,-63.673232434355604,-61.80162184595629,-51.290405985664705,-45.034222520513545,-38.076083608486,-22.508808506379705,-10.378071256647367,-7.876562224039411,-6.815735293297088,-2.6998746686610957,4.965656242326199,13.877693974101383,16.550951463149516,11.627382377053998,10.934253168331105,20.811484855799385,23.82556822128924,6.076396796258155,-11.66711285446203,-10.605066194617246,-7.88739158369571,-15.018478396854675,-15.621499111227761,-8.49647918770412,-12.211456507465765,-21.045449797171226,-15.09499169858923,0.7711282534116313,13.734915756924229,13.215842164187414,-15.333427561743383,-47.523385883325545,-53.60911843472932,-65.11129406495121,-80.47057284591352,-71.01000874885725,-93.06058116350962,-145.51189162754787,-163.5979292091013,-124.45091348814262,214.3829454833202,888.4664088853598,1015.6577089002836,155.98761484587646,-518.7704929124336,-283.82486824515894,-24.34711200413092,-168.27621080636953,-179.71082610779828,-71.7060339790317,-115.33770306237707,-107.84972403600895,-20.415905435143177,-36.02136532157482,-54.709900296408364,-11.398565908694597,-9.954773459288702,-19.00518363600282,3.242850976569269,-3.762741748127425,-28.963026356858137,-29.29324015593273,-21.86821555472883,-14.077669490353767,-1.3245149037649622,3.506295413787206,1.8107510811682577,4.662582298868803,14.893375467914755,32.32306920806287,47.25096910598811,51.59116662327867,55.73875891224513,64.72584249654389,66.26326543073085,57.05386076494046,43.034198617056205,18.707996263322592,-17.820900734956222,-47.77453094752836,-54.507868661113434,-43.129119938311455,-34.49090474418689,-47.77813223162156,-71.28222866591554,-70.32760239896012,-44.13205868698937,-23.593092281602804,-14.93531051585812,-7.870548608510006,-6.526115525804613,-9.35794284178893,-4.038157159518622,8.632144479371153,16.04958359301679,9.879826392435472,-3.386672594977396,-7.31504327776813,1.7748828863257806,11.685173155403469,13.137956023721276,6.579551092345472,-3.064317979747857,-11.17584999964551,-8.051223826150258,14.463142058905369,32.90301154835678,12.522091467522639,-34.86968136175621,-66.13514788243269,-68.94199494526721,-74.57255971626505,-95.86670037905508,-99.6845674360745,-99.64754318978952,-129.57869689198458,-141.324477196273,-136.4928993649117,-43.73398121814273,446.5668449421652,1044.0719790249727,758.2532843313684,-226.46598976170202,-541.2348752420437,-130.09406189182695,-39.14090455267789,-213.63976266418547,-115.87746689085256,-9.026766736243573,-68.7277850531793,-44.66821946600665,5.468648203307833,-35.169087119902876,-35.56118660031809,3.2667748717510534,-1.3466799672628271,-4.987174352200903,-0.5765589420290453,-14.552534139164843,-13.695761991011999,0.1853709610252039,1.8742613028655013,7.947612949408325,19.045658996750205,18.77432944095878,23.688379001603877,48.58333646108329,69.49514176209897,59.286016885715924,34.31110672637771,32.362701401792734,49.168714477983755,52.64612500823608,42.65757670310972,30.833159386598574,6.516108041276538,-30.388121511710214,-56.9513742818596,-62.76726453335501,-60.58108848247032,-62.542959259289056,-64.71435333525312,-60.179548052224625,-49.47518603357477,-31.105915346645922,-11.892419617058739,-10.082253802731167,-17.731666181982177,-10.310494382247056,3.927575953038321,6.383273355171559,5.001965864317171,8.782626757694853,12.829328884879843,14.96999910624333,17.581601166626125,19.98640265345027,18.185185952254617,15.042574707565663,17.935080683172092,17.17179900727312,3.054644072018256,-7.003091694904175,-10.324974291245468,-30.5452265842917,-47.93080578454624,-29.537874510084997,-19.044784393342084,-49.4219735554016,-71.32599175863092,-83.70246052385643,-113.7587441992192,-109.18102095419965,-92.82905397467427,-134.20880239005155,-154.15843269566375,-123.74197225666128,28.019068512450133,586.5400225267712,1133.2382775419871,663.1444286784088,-375.64503084706155,-552.3221066427374,-90.06011752061275,-65.38733323541464,-223.02968067928768,-79.26170629834915,-4.801703003170402,-85.19685072906572,-44.560126103495804,6.902218750625675,-12.40175583066981,14.839818883027261,18.790608244685977,-31.948447948660657,-23.56004170554324,6.919653824060715,-7.24568643439196,-12.340692272115364,-5.136354568861497,-16.047969269864044,-13.22078046231793,5.525668527583731,6.951707326049128,4.193041249046798,18.78010978912964,35.76162169619997,43.11806674196802,51.84848537984479,66.78342886015481,75.97368445290846,74.13939363258555,67.8915586801565,57.26073670128492,33.368571593063734,-9.189887849424682,-53.370172962518794,-66.79604445633333,-58.615637627944636,-68.33677037166524,-79.90605067358457,-57.71400507581733,-29.703763315942638,-24.42239137421089,-23.00006041631292,-18.46212099897302,-16.693179373326934,-10.568309909665203,-2.5926131873676255,2.2139163874939314,6.851304186497622,11.285203928073898,18.590820389515223,15.86609237846165,-14.97902514044582,-37.53836240754461,-18.892351711987153,-1.7890766417165622,-11.798434905907435,-19.925690818848445,-22.99706396088682,-26.955994875193134,-18.41122907033302,-3.1357552140290874,5.33560409426471,-6.00449166751066,-38.76812950796956,-57.075829898167996,-66.78231185330469,-98.12918404239116,-103.30382570288538,-95.10464495570336,-135.21215012561197,-147.98575943533905,-114.5854564334901,37.00376748523857,616.6763537877523,1189.4746395159013,685.0685067489511,-425.75029891426306,-608.5041741318578,-93.57414603902714,-60.67192930299322,-258.3850591373531,-125.83228670923047,-29.6035602090203,-96.38058711453353,-47.86353385340364,4.910833571053011,-36.87325587268984,-20.332088724204194,17.652325046441174,-2.675336225889435,-4.104015978388334,12.245875545764541,-1.1331494502950161,-6.8826515373836665,5.840489208475348,12.216017703851188,16.35118458002899,14.598844202296064,8.41959316042557,20.569522777638138,42.61424545073517,51.124150008861164,50.99526349499571,52.135360965614936,56.43015982975449,62.50156564776667,58.45843167782754,39.74842809027656,17.697064839925254,-4.557704141515384,-30.93503656101913,-53.48636527463543,-59.84854875707272,-53.8912574830169,-49.81099984576354,-43.37992171532618,-26.318578426101936,-18.05230022471484,-25.667754591619968,-22.89022013339178,-8.867689498103157,-4.764651136399866,-5.8449512735736775,-3.0741291493755707,4.61246724236838,18.99730469640873,16.979841197376523,-17.939295147920667,-46.16082348735833,-32.69412466387827,-4.094348665485192,2.2935246808523857,-7.9442847510943295,-8.853199367360883,-2.4656328836608203,-2.6428351147920353,3.6661866668767855,20.683100850018867,24.347197775819563,3.558847812428315,-32.244928424143325,-58.970101600897145,-72.42475577238133,-106.45984227611683,-135.74964652592263,-126.00314703059237,-140.59608911554724,-163.29705741045677,-140.93821862918662,-82.45529232366465,292.0184666316608,995.2843768444226,1006.0466448883703,-23.446587844250942,-648.2586595164232,-238.59352264408165,26.71899976512863,-199.4122233028059,-179.4126061161537,-10.09291401427005,-66.52144075873952,-85.25816113556009,-0.5577331358052575,-17.216456202832646,-36.5021719340064,13.856143434768725,24.64798089108946,7.6728322138936615,6.753217727045994,-0.7371852587275689,-9.46845767460657,-16.7646464955172,-16.680865466218577,6.934457506980144,10.82086015854686,-15.209127342631971,-1.270505541974451,39.90326739743132,42.418517885472255,41.951324298478134,69.97091007077256,71.52933570221431,51.79183411711498,65.19553021819367,74.12714480696988,32.887366706976096,-11.569226940486846,-31.626013894822478,-55.23784776660204,-66.48507475693809,-44.63737165810613,-36.831309410427096,-61.11692586097875,-62.61202998776425,-28.396732955911027,-0.3142503569776345,15.101009510856473,28.78810569704944,28.378519980421782,18.91205654879468,21.965543445536703,29.30121949023216,18.854064180978565,-9.145519991274618,-37.771794414638386,-47.39989503107046,-30.209633831803867,-9.688038900875508,-16.85120321518038,-41.19972711081127,-48.62021617657939,-32.51396596433651,-13.368323900738076,-14.271443695467223,-23.972757450234262,-4.818600531775878,10.00997900729913,-30.422399460548945,-59.1942040620407,-48.8677233760471,-78.71395852438866,-106.53620853424665,-87.89625296334255,-112.34311323676361,-140.75510331935683,-116.6162552308407,-13.520200747790312,458.05467914616725,1051.401749324822,727.8933238023628,-312.31096682360163,-579.6755156440611,-84.1974959333588,-12.92094681188761,-236.6943987115368,-121.91751929602934,3.397986009678732,-78.07551652962741,-66.500804494482,-3.5418740642315782,-29.956395809342055,-17.41444993332719,26.261583282638046,0.9985095784907223,-15.956156291388782,15.379784503847183,15.083595213496857,-12.712153612461604,-7.73555590974724,10.471480744677075,7.783432657147037,7.554889875466831,18.5219555106792,19.333604510158345,22.872944639666525,41.34627202159837,48.85107466925893,47.76116297625537,63.837754977476735,73.37527840170517,50.25453919023458,31.790660516633825,41.672085236189346,31.92051051995179,-18.14337553903263,-49.99254643770934,-44.03985105974571,-53.37790623706478,-72.21158097343839,-50.20694919134252,-24.20299434081327,-34.21012699815313,-25.29454171548045,6.858311417130583,-1.8753789357814483,-16.722204088834587,14.109755868570744,32.30500999077371,15.403048778382773,11.447484495062895,4.687225157578581,-20.651252911954856,-21.776287902806338,-8.852554952104313,-17.153185510358913,-21.953693628891905,-14.971766877880597,-21.68649083937637,-30.38488415025925,-24.69694104357071,-12.007207744435645,0.26084468572150854,-10.671851331041758,-45.59274089196532,-62.77252109977977,-68.43146506480127,-82.94989119798394,-82.81565090718186,-96.30947565330216,-122.15643832478902,-96.66468057208736,-77.01090224696767,68.33850711532386,618.589045999402,975.2149333071893,312.5376750258463,-550.108711086786,-436.7041838015999,-0.6705846629244974,-97.1236271876573,-198.38958719262442,-11.607601386675476,7.14781412255013,-89.955076570691,-35.95526543485455,10.11649074464977,-12.886382645195589,3.5837261894977352,11.051403313366638,-5.77372444295839,4.296520908256759,6.417037150190642,-3.3056280028707032,8.464873593844896,15.952322668221111,10.69318817873014,12.70272280983385,15.447158957859985,24.17031365920218,42.59731789808107,43.13387868710454,28.534636372718968,29.12674691249484,39.30650671506837,43.99131403596882,51.18196822343191,55.941208782727536,41.24922704241305,14.703784075870734,-9.220772434646285,-31.394944826701067,-42.734375366182356,-36.34418386312676,-41.903474983135986,-70.30265368311191,-76.16710376263993,-46.579145704862945,-27.069878182189143,-29.558010445992824,-28.79022196056323,-23.46536952605708,-19.380278038038867,-9.44265416214522,4.8226967220462935,13.041404065581638,7.30106864165727,-3.7792618744899986,3.4451893792640886,23.78001293221135,29.4994119201562,25.588868089909703,22.723435396141777,7.946353989287431,-9.204933055303401,-11.803443167818568,-11.002201489078171,-11.727183464160927,-22.547789781955164,-53.610721743722756,-71.41537790352012,-69.81445926706388,-82.05302718613257,-91.0130104120359,-101.51625692518478,-123.7372983089405,-99.35510107336425,-69.65771432838213,39.412134995564145,525.810907687202,958.902560716627,442.8317677807234,-470.52382433127326,-500.2448161025781,-29.02884226806804,-44.82257171605374,-201.78166348098716,-57.338348125357115,7.9194883411209815,-73.83852943734652,-33.99856944653729,16.898392604739442,-19.60358825194367,-14.013761326625957,20.907216417337718,14.795362979391246,2.2417274088663843,-3.99022243199219,-10.441840505263652,-2.808941619525582,7.870953107136421,15.600696236761538,29.906392964123707,37.02192350436599,31.23051504424886,28.05515344932393,26.02995453747141,21.4437926890523,23.75598955924663,26.725860889364526,21.94065423171027,22.47074273707483,30.30064884718024,26.94872553196779,7.284627346864497,-16.337116119263364,-32.40145264059383,-38.74481910958971,-36.08519404635461,-23.01982591930902,-16.98236259749205,-37.42523466767863,-55.62415548717371,-41.29985128812987,-16.27806011452007,3.35826010918454,14.991326479290784,-1.4113061381952896,-23.77095121037837,-12.028712310497262,4.577438934275362,1.4384344942708083,5.661339858893931,9.827880644936556,-2.7284377837828764,-3.5813594221006833,11.046881984313359,14.75590527785054,9.299715227056442,1.9460294669514937,-3.0068916771577943,9.584781039845264,19.04992821841489,-8.955511304992827,-45.19302898777001,-66.04064548388588,-99.8841032606499,-114.8690813197127,-88.07439105177622,-105.13128541492341,-144.1493700800291,-123.38414663767179,-87.62347052179821,170.27104825726263,798.0224144364419,972.514014291924,124.5236272143162,-599.94180263251,-330.105655083325,8.498210296042295,-153.84911319426038,-187.25204543412042,-20.286490084703402,-51.176792078073774,-94.20654227616373,-7.148671829938344,2.1451633581373457,-24.2865802525073,14.137468558443711,18.369565771886705,-0.22496415248575374,18.40831592529775,14.124120399670602,-12.028566470348037,-9.875081720012798,-6.7210831766827335,-12.511125686298747,-0.5569966878920942,13.28613194432538,13.997442331264928,17.092145141367958,25.06869391356475,31.9003010046212,40.00894176166043,45.674427191467785,41.098209766623626,29.45249916168024,19.94131836094694,13.261953192343444,3.1944325191430245,-11.860016809568782,-26.84706425778169,-34.94751581529396,-36.11015025080641,-34.76650359072741,-24.939772982297086,-9.482930239805572,-16.176818052863155,-43.21362518906099,-46.59982264975084,-20.415420385324367,-2.5538070668450246,-0.5951244932600552,4.416270118900943,9.837650551784932,3.6211879923268757,-5.498401257000312,-4.064735710765541,1.5465834201556525,4.742290489278226,7.974450656292413,-1.9691790851020627,-23.549300437470823,-21.980623313799025,-2.2961183810577896,2.7182401812728827,2.8863593757888895,-0.9942559764934948,-22.299134481796067,-39.877560497518715,-60.226901870869575,-86.52169678644863,-85.12765080474706,-102.56718062350907,-152.36450335662167,-157.3477898939766,-130.49047983865069,107.61139261063963,751.4880978456812,1047.732405651354,266.4323541354543,-572.2715982134384,-390.78728836153033,13.931778361723794,-107.63108917078418,-188.40423635626962,-24.705472682044395,-29.84091864137133,-105.84072719301972,-49.428735450886165,-21.228259481814305,-43.141884537667124,-16.87371872197601,2.609637370531117,-7.232680210096563,-1.6464669490026047,5.428428872972598,1.693512900814223,2.7980056539380085,7.614108937545437,10.11100052671759,10.40044263659761,13.994588261727392,26.59654166517484,36.57849693424575,30.2336843451959,19.15333927067472,20.406800726099355,27.65320267047336,30.939630836697738,35.42289213800205,37.657620461124125,26.904722667508253,10.00494502214931,-3.098766997653314,-10.776595712141825,-16.457052436168592,-34.933867554042784,-60.18227849387455,-59.08724502485252,-35.34021093760144,-17.15421726029927,-7.065630267827011,-12.92490353604169,-34.17701492342187,-31.833400960431206,-6.755298606428632,-1.1213883929213466,-6.292450204850224,0.14243666959793444,3.3830260914195165,6.113259781301063,20.06602182694275,22.491761865036167,0.9404653507347973,-19.282031284612827,-18.697558255943143,-9.70091920089381,-8.145904367188464,-7.940964683622699,-13.871181723382264,-38.68057866232358,-57.247095241925784,-64.56606082924174,-84.12073836087728,-84.20899854832861,-75.16733679064018,-109.67116310620361,-126.75484985520112,-122.49776879366809,-54.91882581939939,422.3414551539171,1055.8251891749542,774.724022518028,-266.99436743222594,-597.9147621780221,-140.02077476693643,-29.78186535656875,-227.23325521380235,-138.38402517472312,-24.07599515132148,-89.55238100195137,-71.83091252857216,-4.987719659750837,-24.966758117428128,-25.166668969916728,7.560530201957931,6.442772614939081,7.740078582901699,12.870996714287733,-3.5022437045820674,-9.088847424726367,-0.11276746603248833,5.02720599867091,17.41955510695125,26.037899290001466,14.536933806152941,8.63622276422595,20.538118385879734,29.72995508549552,35.05303427963109,43.45156981250815,43.39270368670587,34.234162182861574,30.904398434690073,36.41869880583375,37.90035643820407,14.38355895684806,-35.79584400976477,-72.72241802664571,-66.94472892810919,-45.68987379954474,-41.38147260207925,-44.71697056150808,-36.552173111735726,-21.0206837424522,-9.92036252311912,-0.19886042410389848,11.946080718735898,16.61781091297407,12.170134970860838,5.211699844746544,-6.591646293531072,-11.162330305346034,4.690959455524722,13.551983899564377,-0.5030397723806601,-8.848663968570529,-4.590031298105462,-2.5076947126700624,-0.33623036356848424,-1.0809587282987758,-5.619132618773711,-8.258496882022555,-18.458786153625404,-32.32513014010185,-48.88903520318865,-79.20135595711596,-95.76524405893821,-107.81283169884503,-145.4032377034683,-154.20341023081852,-156.35046143974438,-78.84875928581891,441.0514479276753,1076.7661270465399,765.924465871873,-233.22148966474637,-509.71040638691613,-104.86092968630086,-54.69538684252909,-220.33788747770694,-107.2291199756761,-20.53749941452851,-98.87915711958453,-84.96751028161862,-33.26658021273035,-49.252352241711115,-33.05762402939911,2.3637412417170776,-4.830520137491671,-9.013730662337148,1.8316351740079906,1.4419608509545943,1.9433900814393668,9.831845060640763,13.399095986882116,10.201036631526168,9.594852134906933,20.226109772266064,30.17607744360284,26.75377872732399,22.723297917981377,26.444946542608008,29.14423367602331,30.876977894342268,35.20782995836663,37.29751453746301,34.43603640402205,23.34704747827443,2.477495459019475,-11.17796189544281,-6.207955325958836,-7.245383472626838,-33.52704601091321,-61.59686742840819,-67.55572637325774,-55.66463749781139,-36.132979479448274,-20.457848945046965,-16.430810013435828,-14.533078649426805,-8.376431271061428,-2.243733728365985,5.425896958974804,11.396723207888387,9.831178492886238,7.702644445875676,6.896903445741358,4.3764889887221905,5.238114509186431,4.826106278636658,-0.5587197006690383,5.944220289758539,22.602570745955383,13.919769420791175,-26.261721937698773,-56.880443293124294,-73.49942840774892,-106.07464365424693,-122.45706754741295,-108.7638382623105,-124.68701057117545,-149.06355739111768,-167.90311931114266,-164.13627001638153,212.6028998864448,961.4569467851845,1053.5550486787895,127.64708863217102,-506.8467734384848,-224.58384957800303,-2.0514880037584327,-181.3722961269848,-179.10430650888708,-50.661087277776105,-99.18083890625914,-122.50774802312554,-46.775122908293135,-34.12579176045836,-40.592477763820156,-11.952136564759938,-8.451484548351033,-13.82988223747559,0.2373823225966909,8.222204396320528,8.786470446903042,8.49444278480905,6.055289859041029,9.678675221221907,15.196610607203986,17.687620040209595,22.593002157278388,25.450815877129074,26.558423981863832,33.3305760742035,37.37028133188252,34.714214561767626,37.25973775812434,40.932947566702815,28.096672797524047,4.111479291567417,-7.618027835436729,-10.19192638741983,-31.613603665191157,-65.12719318225327,-71.79484879510801,-51.91652699926616,-37.479393250582945,-31.667438376746926,-23.36028356938384,-16.097083571511284,-9.494347668400263,0.6069664349956589,8.10238442330806,9.358163650772209,9.720844830906568,12.285521053102865,15.563564054015647,19.32922761233872,18.347746156818022,-1.0463980537593862,-30.568908182555553,-37.99382981363321,-21.772593759813958,-3.453422237038957,10.674882808054972,2.903186472628782,-28.161810334254838,-43.90164900554835,-52.39117448277567,-75.42501462224871,-91.64059936529611,-124.98646533074879,-169.684325963773,-182.7805101508835,-212.59179764686098,-35.41494694411435,658.1088284383023,1154.0555580311723,540.1412481690081,-364.2986113009217,-362.3488456500488,-14.170195109469539,-109.94596122733465,-217.0693425713979,-79.24227785053195,-50.60559500744098,-94.15339290144689,-39.55103020857106,-20.66883955077226,-48.11131231513026,-26.63990588476289,-9.39482816182253,-15.094319178179642,-3.4517244319662517,2.773984922482395,-3.0254957391067983,0.6095456478164216,7.515081565697828,14.511513365769268,20.426619724243498,20.015868050620163,22.404929023493853,23.22101844855026,12.907973367879961,10.243013757564057,19.102672618893173,16.471939301613624,9.168332676234218,16.497933864258773,23.450728173025954,14.94296256979333,0.13816946843866873,-15.907099818977361,-28.97734050312514,-27.86675014923149,-17.645307557381926,-8.196423003153328,0.14170764002620473,-8.811961365477163,-38.8676194382934,-45.89949980696925,-15.827586652206332,2.5751019044832155,-2.2379626700081445,0.4198742712905954,0.33720235388844344,-14.321084050145704,-13.450367921501758,3.2246349583822393,0.320062455859901,-17.63629694171099,-20.37204485383135,-10.206083002312678,-2.227292308315853,6.280711325338437,3.73828050274294,-25.769002772227825,-49.378085314698104,-50.08882390391213,-64.3668611335685,-77.34119948609751,-73.87292216314589,-99.88828202023295,-124.51832389081189,-142.14936081769036,-150.59907429469925,186.55171172922834,855.5053730266768,885.5725377891448,16.702134282181554,-495.3956014262566,-178.15489609557426,11.022127737545883,-163.29945207595242,-145.11867053605363,-30.096654725191677,-71.66635419076289,-66.91812489930984,6.707966748106319,-2.725579332846525,-17.860234459725973,8.390713724360497,6.451621011052105,1.7418736086753341,16.99977449444488,9.839256458178049,-10.594951162981868,-14.721863649458635,-8.164482137980453,4.238397673568065,14.426637856375596,9.358072165486794,2.1204332835787323,8.790995299803038,18.900235922850854,21.594462272071837,19.946791688612148,16.412765269926034,13.654326886259568,14.242808857060593,15.411818188180376,15.514481845323324,9.173209995813416,-9.717113655850149,-25.37543416584747,-19.365313304908554,-1.8087549469114403,11.246280049018967,12.36005821961151,-7.217442594415328,-37.68508835604395,-50.31088830843013,-36.58231977408349,-15.288356659421193,-7.529109120844581,-14.059544558265745,-14.026822225350816,-1.2993377774120631,3.258354661809914,-7.8971678554347875,-20.370986447887546,-26.994159776456723,-30.226302524810706,-24.41647535604805,-1.323400024015589,16.52605472509031,-2.0779163747202656,-34.60392514144098,-54.46892400338073,-72.90595276511974,-73.7965073241441,-65.93218742891231,-93.64350257636048,-118.95037680062947,-145.6085728286583,-134.56582612802538,246.2870246073479,853.6577894079101,749.2631688951083,-83.08468681423923,-426.9387057181019,-93.69350876954904,0.16502241121740013,-168.63152304294275,-111.95242170756379,-28.510812420927877,-88.2925451134435,-67.93166536546107,-1.0569329152859126,-14.400505949257855,-17.16101658913918,3.3147074064835946,-8.965633853772532,-6.687526950920901,20.627047911834605,28.319313768779054,21.421656292973516,14.292572260017275,7.834689433569993,8.493126461286534,9.508291370605455,5.636788396029563,5.09660436704454,5.546789120226203,2.898328326189526,5.29949137830839,12.246631272451445,11.990604727546764,5.731432722509419,4.704637565493822,8.024629648239697,8.399872999519078,4.873287163193275,-2.4978236878942113,-8.997257789527868,-10.183395305796642,-17.615250148909404,-31.888317177819914,-30.522832289893152,-14.345795412803799,-4.0885508051483015,0.6132441253581717,4.963190660968934,6.533322937262849,5.020351510554576,-9.47384557941427,-33.84841466540993,-37.317886875143834,-20.877847905196177,-17.723008008847824,-24.85118321463005,-24.573980225422165,-23.700687268230606,-15.409346382930382,4.313707614168976,2.505367672082704,-21.312369764450015,-37.697361031389,-59.231775299736185,-78.70946803405236,-74.94596886636347,-88.80518585699103,-113.1813920671629,-134.67051591322473,-171.37016346600797,62.908790357910874,701.4647312710226,918.6614178563078,196.44369359442737,-425.8440385618343,-215.64540883263098,29.25441096286184,-121.71416538035515,-142.33814306038437,-16.967569209831765,-61.50205927249739,-102.48543177402364,-35.01218418122207,-25.445350697965004,-40.104530256890364,-9.120135022792992,-2.5202182250962153,-10.699162085365261,3.459732290596234,7.169430573193543,4.804501994228131,14.374654034074231,19.60745431611266,25.896418869336784,38.7986272437974,39.320276425527226,28.902101252689995,20.942483283638467,13.717228006082136,7.101707298122282,5.311759294374574,7.091438647486668,9.16620673660377,8.615756082608268,6.763192521054661,9.26831050997272,13.397493757954685,3.113450544159747,-28.277491201401126,-53.98396927394063,-47.687720315025544,-31.883090923701033,-34.485818778680176,-38.226424318705085,-27.755025862102574,-14.69111296223426,-2.540711864689337,8.823688516850186,16.73266976842267,20.942594645743235,5.724184283922497,-24.788384266663975,-29.273844578209033,-13.729783019736576,-21.58576603155432,-38.213176351589134,-29.58506228304347,-6.965807720068984,3.8956237946503833,-5.912338785167295,-21.842130115222247,-38.952697503459845,-67.84046236339387,-78.68690747804027,-69.69706831463108,-87.09091622927355,-100.34154691112943,-116.17002008265986,-104.97467366522886,257.2852785945613,834.5646816892216,694.7453757144988,-161.52324545308284,-486.25541592063615,-107.40589283294406,7.342905211908828,-160.04801176100042,-90.80115896900502,1.088119525305018,-67.57768187414675,-54.35616096338815,9.000688734186808,-14.328548316910858,-20.62681042250889,9.386085747464962,-2.5484891219528194,-17.683582056494977,-1.5203542620532322,12.800526374130838,14.807344727237755,11.779840588110824,8.923379905007653,12.028832423716448,17.750795680071775,24.865840749585118,33.88086050095637,37.7871471429721,37.528993691808324,39.35460311681564,38.50194576617812,33.81523093385914,31.732507871064527,22.71238066014385,-1.7345223296486143,-21.13381459772556,-25.280755475060133,-36.408955140723606,-57.28506581877591,-63.65047704400929,-53.41349650380866,-44.32990106447597,-37.88223241747136,-21.454032037760875,-0.7977657119917012,1.225680610028185,-6.3925977508502285,4.793108292389896,19.278684610261013,19.61748521345892,27.904090224345865,25.738930607482065,-20.373995319813158,-55.02531686144799,-36.05350685317807,-20.12887450004426,-23.190463450228627,-10.061306759089412,-10.557744394503707,-35.45813772888116,-41.24113887309198,-48.04316654553101,-68.09018588208349,-66.96624917601262,-79.29020761275399,-102.61054026622062,-101.60271632155846,-111.85023500426503,92.499352869647,670.1976770610767,856.3120632747629,103.6830876814979,-546.6352033412684,-288.75609089697605,35.04624513630788,-107.79388127375856,-149.9469343602135,-7.159853664826571,-28.089872858555168,-61.564925200788906,9.888144040665571,5.227197461785384,-33.108166814048694,-3.266270322851641,12.362937467790374,6.958667573181384,26.30952562998689,21.664260566505483,-9.414700944353678,-9.901717037631904,8.947591324551588,14.675290342240562,16.420654273269662,20.77407688754453,25.32675374785765,35.440462476638615,43.15610424606941,42.62854787983774,49.52364197372554,54.118431513591545,27.873715145184136,-4.261219410682493,-2.2581530274269044,8.276080291414647,-11.591137323566326,-45.83751583828057,-61.48014375777493,-55.553146019607496,-48.78722085392041,-51.8253126697399,-47.09321471131325,-28.446500647061896,-22.287844471157293,-28.190346718765706,-11.869871018463298,16.48789740764501,12.758460028125267,-12.113142996616126,-10.927080507971436,9.649706794456613,9.097784625874432,-6.53651249338964,-11.128684229381152,-10.919264526732967,-6.320547153322172,5.801896921720084,-1.7985584953370974,-24.00839710626559,-33.40003576563299,-49.36213290345803,-61.5746884820433,-45.327250244110175,-48.144922371970544,-80.8653051897538,-137.49775530058486,-154.8440881308835,195.28111443541536,803.7534511924259,704.3624595279796,-198.69056763176638,-580.2206865043403,-139.24655650305442,42.997278707536736,-153.5246884930475,-94.0210091913599,34.8286338647955,-47.21186693895986,-72.39208353071558,-10.052099843316133,-15.990824355652308,-7.748265255000888,19.230994775524138,-10.352621805770356,-19.395014816368153,14.361902179687213,21.81048317426882,17.19981990471419,22.04146228702954,23.002217981159355,32.26627387773256,39.18312320821173,28.446696915100134,30.94587466042926,47.00232763308807,43.877028705287266,29.373288566504947,12.150614095638998,-12.9338739859222,-16.34865434791604,6.415693417824585,5.395200250798254,-20.0449181269667,-22.233537069094204,-8.094931152681173,-15.035030168048113,-35.585307102512594,-42.10111907976354,-33.12154344629053,-28.57147247249516,-36.63705003241808,-35.25999774578653,-13.952011756183566,-2.5179298464066697,-9.367350917859085,-5.2341087184785735,5.8317688094487075,2.0309277042346334,-1.5092502033582917,2.434937050142132,-3.594280086215747,-12.005859513304742,-6.362326951774449,5.183773435755853,8.934932132823134,4.511429249880845,-3.709233209301408,-25.46026917731283,-59.72683035111429,-87.66552526749015,-118.71705418398878,-130.6115288090136,-103.93451066734097,-125.99744239818054,-22.548813346317587,529.1107858492849,932.9827944437186,323.767808483474,-529.918516728342,-432.3954288008314,15.827451889267829,-63.361718236229734,-182.5142057713099,-21.432174877375616,-3.9319660874851223,-84.83533357677528,-20.86018693617345,7.767508755940785,-37.54325355156075,-8.584855130985925,19.326297140141726,-4.300351103563155,2.0298837960587157,14.59338203878099,2.7638807166589694,13.749504903269052,34.33383996289177,34.57896175108274,41.102662714914814,49.939783962435,40.12551577606239,38.24833848524292,42.58214028219301,13.54173332010916,-20.333332328815892,-10.226977142462744,8.354990870976689,-1.2256604785245049,-6.754826779962388,1.0104892431122678,-11.060794885628642,-35.97348960050909,-42.24782407405042,-34.16898747664864,-27.005855949575533,-17.516112211153732,-9.127526464672304,-11.940296052367263,-11.654024406679607,5.370108681094369,12.068875503814798,-9.465292024813852,-23.513970711365292,-8.138596397464976,7.168417031590646,4.543550414458423,-1.4454869154448282,-2.536981582649691,-6.442943945268027,-16.164429063111854,-12.650543529011323,7.650128525553722,3.768109356580709,-30.250429131062326,-55.424521568899465,-71.76364214106106,-75.82635359014229,-62.22607480474169,-78.71221322077706,-116.36323687239319,-164.01869425110127,-188.6392566135681,160.98842039401507,868.7827660995415,904.7324489141329,-35.95359698795805,-587.6648505126998,-201.28755962646852,40.46522353769711,-153.45451010519662,-133.21330907227508,-7.837453280955927,-81.2693731398474,-87.78996578578864,7.054042226710784,-5.104267108910371,-28.341007520048333,6.454569379188763,1.8351127271748815,-9.218695732868623,17.252572568130375,24.59573526286942,13.853161089820247,19.044068675866843,22.119683935033727,13.696920637756923,17.379054897027725,37.533877457608405,43.34543983778816,22.340350395657797,9.189691444393338,20.640457483234414,29.30623974415893,22.78870684263948,10.08532834795508,-2.5460381970354113,-3.950027403438017,0.6669375850614565,-10.72788970882544,-29.794636636972474,-37.647580123979644,-42.893915620536255,-45.57855536517401,-30.981662861170467,-10.226545566255735,-2.2306839004707246,-0.02151518579354672,8.266582573231027,17.494092623665495,19.784456686877366,16.441448766136958,7.233583375722078,-6.067990562545262,-7.145573405119524,4.481170613726627,3.620142529001697,-10.089254618650834,-21.65175395007576,-34.47734098818062,-36.421251342071315,-23.045507876532795,-25.13338592067059,-40.11435697486007,-57.40635032206109,-88.67972170781218,-99.7963520126869,-94.52172658913938,-116.88114009580202,-129.37088396939657,-162.7504348347527,-123.41911885417989,403.2828155095643,1081.5449835567158,772.6439102903958,-256.7724370865518,-522.8094235184118,-87.06232947640615,-31.764997391561096,-191.8916553936652,-69.99912979852333,5.146089353513446,-81.52931449803854,-68.9957065240771,-33.15374994534086,-55.14960288405257,-27.580272811001073,8.167340099041773,0.07245273462853419,-1.644155669359936,-5.097433602617077,-11.09784358310879,7.40092463696957,19.639954403079436,18.925823122978823,24.84434146191699,13.675474723333053,-2.5486631443879757,16.85820257963544,39.12786376669128,27.056018775817574,14.96751296529354,24.929644108241803,30.65511596016607,23.491036536451404,17.50576134929275,8.68809832580091,-8.786176592503137,-21.631173543312528,-27.097539383879145,-35.34278287018331,-38.91588276381859,-32.46441067336251,-29.011136856121674,-25.193584372236295,-9.9271883731067,4.554007793519534,9.767299258053669,11.974328419886453,11.019899691311915,10.165024139875118,10.941052682579839,0.5463779501659989,-16.129260576969603,-19.946928768728696,-16.7117133110865,-15.422332578853098,-8.730007714752531,-2.6406342537546585,-6.494125395103783,-13.561555745141945,-23.17754615050675,-27.28028921892405,-10.239157019408262,-1.033655596746236,-24.076547916699287,-48.05832765844656,-71.79420401714339,-101.81138461779575,-103.50788465825227,-110.51888404028935,-142.46380161279123,-148.47963911702402,-167.63468633197982,-9.43470991545874,654.4369353094385,1165.7320660379492,553.7430578126853,-414.4309649534402,-440.2207686915088,-40.85088337756399,-101.26497655020911,-204.55970874995887,-53.40230027507301,-32.03797658522315,-100.35866119332076,-31.790545997798965,20.216406263166864,-11.218675895000178,-18.161914431331038,-13.171393977157711,-18.663674543132515,-19.525470173283196,-30.59002793254887,-32.60889670000888,-12.83126724767834,-3.818910533728797,-2.2853512263378573,10.829134463270554,21.02500241365823,23.582001110271477,30.165274765097678,35.43870009793033,29.275539352122365,20.2440920746784,20.67085658409552,22.62463345600892,17.801836094585497,17.65977963199458,22.823137221067068,16.8758498637229,0.06325587525236376,-14.71986717746553,-20.680963899884226,-18.560132855829675,-19.71070076346279,-27.54140608098111,-27.4148786176263,-19.840691859725645,-19.00067064956606,-21.218942403715943,-19.921431433000347,-18.949789516971407,-17.579735735603805,-14.912062619890566,-12.471575945328121,-8.862752807181588,-7.405679346500964,-9.135137273927533,-8.588062694400195,-7.446462367039942,-6.419090006850697,-2.278932974463663,-1.0989089067350548,-3.793880349261972,-4.126788203008527,-5.952383148254704,-6.315696774249522,2.968791436209889,9.27739098093222,4.634722343757071,2.1703814976386315,2.117218975819849,-3.7172653544590197,-8.39162900747069,-10.056907844201575,-11.890655204989123,-2.621843307749963,9.463706342796954,-3.015564185927249,-23.31259557884614,-31.73192048224354,-58.37311479420608,-99.28208857537633,-127.1762555006767,-149.72736201230285,-147.55711166707385,-156.10389565903466,-156.2003479954588,223.8164535902458,947.1140515144255,991.3767832594704,80.29248528805913,-491.1610716348794,-207.17966821877468,-34.321696747249305,-220.26478388540238,-188.86620364902538,-47.92109693643533,-85.55827935425084,-90.62645103027856,-22.34604030999995,-34.24856360911541,-42.84633755148749,-1.5410731955868684,2.2818412566402237,-8.547971517961972,5.110678862754195,12.591418640405069,13.411692208362771,12.92140161749326,2.0675094928823388,-2.083336303768549,5.337390066472644,10.102996886806851,19.6157461682607,35.8132087556371,38.898420100466396,27.53898408336145,18.194589069020257,13.970529540482886,11.70927687371934,13.679322006494838,15.26181034666906,9.61630539828414,2.3302451315619135,-2.3255478255859234,-10.38827356350931,-22.039420643600497,-32.183548564187575,-39.872376061000814,-41.10129250256422,-32.765896837649365,-21.41030352581367,-13.273088307842356,-10.56583882482728,-12.691513988431648,-11.862999742215521,-4.771231687230552,2.232598876599347,6.757655095885077,5.345470014841926,-6.4336027794848185,-15.54948574115637,-9.182374284520126,1.469238569660881,3.3626384889862306,-0.4768430806046222,-2.8859123081712887,-1.2596471706357022,5.455669716431987,18.11534266118596,23.31924621052108,2.496644400388389,-23.331633683951942,-18.710671618758127,1.4174251879440245,11.61159390442481,15.836123765237808,4.038485228063541,-24.14747634209607,-31.240124214936234,-16.864721263728175,-13.436818174307625,-17.926415051136033,-21.962775836951746,-21.404067768643344,-2.4588906535162325,10.957052043656056,-3.992549466429841,-29.582074551627827,-67.51739580152146,-97.32963783073546,-91.03826683194546,-107.83292989306243,-142.1610012091396,-140.82147383615407,-141.00188609071063,87.45153235643153,727.4689934141011,997.8128846365768,276.89798737919546,-438.7604520617709,-282.5789958957598,0.41948070990497754,-125.65745377379164,-165.53452321770604,-37.94293965740171,-62.686117077950904,-107.93591940306186,-49.19521276420484,-32.51117819073336,-43.80705660455841,-14.490782207194721,-4.093982985336323,-13.686441019456254,-5.14747458614449,0.6919849377245111,1.1100912821411302,10.20493680653934,13.84166714687586,7.254619084797085,3.5055233962945715,8.491304304344393,20.07802179258274,27.96459126390382,21.449417919861972,9.491336328280738,10.74441756730557,23.114738801616223,30.80979817412377,31.40804836463531,28.064852494370395,19.880621989004005,13.812480549409468,12.807023845256289,7.113747815225741,-1.8432945308722752,-9.526056070880358,-27.641864734067994,-50.22994384855543,-48.63896172408612,-27.598104274205582,-18.68429363715916,-21.083103967351754,-16.086388262332434,-7.223190405244283,3.304492879868792,20.337027368000516,22.36513138040518,-5.273384902421842,-28.88041712463157,-22.21291037540458,-5.461847977706531,3.3176312102117427,7.938820249371455,7.5081057717227075,-3.2997517116235997,-20.13332630840936,-28.841131825702035,-21.790883307090624,-13.341218665180014,-16.45653488556351,-19.317490842562105,-10.888419188332245,1.3146501691514594,7.218940761744031,3.419945758911103,-3.5608403003270617,-1.5646804377887014,9.255174230963338,17.420213986748564,18.182119018701812,16.38039236709081,14.79846097134882,7.240951793871007,-8.858006299621726,-20.718408816773447,-21.700416924107284,-26.878476402680505,-38.17057573436719,-31.24244919549565,-12.386227122801316,-16.0496788482553,-31.63200743868231,-43.9026587746053,-74.17292972841742,-95.69451141249003,-90.97331786192161,-112.02561598263823,-133.38974243888455,-136.764067093262,-110.34369717592993,255.10834616613147,913.2649137938248,902.4621520128594,0.6349845081674914,-515.3176994872474,-191.46745294958743,-4.4303514523769,-172.69917009971232,-134.80934203692462,-12.32005791061188,-63.097693408799024,-77.21996377323532,-32.97924609005482,-54.59148562940955,-48.95802215636169,-6.335436756833809,-11.023646353992683,-15.161914167511853,5.2110590864073405,8.440258266872995,9.403608363934461,16.26433607528904,15.107919478752116,20.974232751847815,31.6297117646632,33.71366867205846,34.909018050187754,28.79727095905217,12.208863613373506,6.601551037752241,10.956183638520013,10.229711310709103,9.187286688147239,7.278886117514558,2.592220402864101,8.725590861252723,20.157768629560763,15.643408255578002,-2.0368571657274934,-18.605335609836498,-29.80926706178298,-35.24539234935209,-35.86661465693213,-31.631935318769422,-23.509802347591847,-16.187798729673837,-7.747854816629673,1.4751940344999213,0.23223809677700658,-8.864371227883307,-12.458103923009329,-12.357369044146157,-10.379251275095784,-1.8961848518331728,3.1137196276913617,-4.385184829636334,-13.158237394764672,-12.402982939583563,-4.683619420327394,2.574165199085522,2.4054335592156963,-6.476911990620884,-17.552319685008943,-22.122590114636665,-16.172354333607224,-6.313374739036599,-3.647589148476083,-7.4334666031057015,-7.433026736617025,-2.4580876305023533,0.6035915552253392,2.8756800992151543,7.5155799641755445,8.081914046502083,6.4373046762294095,13.12317786793598,14.499544525332038,-5.42322294344552,-21.640076734059683,-14.323655203898856,-8.740415252204885,-16.6904229578955,-17.71854178071219,-15.56271179516162,-24.141284551633888,-22.942197624203143,-8.719395425500243,-14.542247412119643,-28.90779817446271,-31.01974567478947,-56.89488029010428,-90.16319955598776,-87.79595963957547,-104.63686054766876,-139.20918699905397,-142.29613138797086,-119.36477828209019,189.09283678698438,873.137826079647,1042.4950398609676,193.5668792144411,-500.1932412482974,-269.53598983525916,-22.29240251817607,-205.46515059271462,-218.13340700536062,-57.23945487803517,-79.99004826686685,-105.5807995909119,-31.970803545890696,-25.414069366066435,-31.548494931002335,13.10836541391722,23.64811655041088,12.44442149797936,15.43149483118345,4.1542270294605785,-6.430056693233015,-2.142538120413784,-2.318345803786908,-1.0440478583597113,1.1309964669235866,-4.757302682638159,1.9059009058328042,23.272875618560036,28.540008051763216,13.011286940528668,2.2317850024556227,9.034520220374045,21.761556016868155,28.621107801815917,31.27159485737879,28.198192532131333,17.335872738918077,10.75273524088752,10.859328296426508,2.369814331381807,-16.398114220009155,-33.26038965214281,-39.21188064103653,-31.550964777929096,-24.961051255625144,-34.6289440731684,-44.82608268262851,-39.817515402667425,-31.705845876226824,-24.462717355958112,-7.8688393545871875,10.196966054127824,14.14676515844942,4.819776532591364,-5.035718912232118,-3.460219664519297,7.0577759259802555,12.617264935400792,11.198732364718902,9.073212593894588,1.406472749225049,-12.822400388150639,-17.896101121789236,-9.005513705581468,-3.667306905599565,-8.64544887331795,-9.81357361593264,-2.294738008767689,6.265840713845847,13.528748593344435,12.677112058845182,-3.8092328415240857,-19.338449486300693,-16.258962594347096,-5.834337368624297,-1.5590852881574353,-1.955906605132193,-5.755958365582342,-8.752400305252532,-4.1980573070255,4.6405010286721815,12.959880032073293,18.182794870410547,15.315009756742858,12.241236874173303,24.838037823880914,44.22769286951932,43.0950147293024,14.813871233738174,-18.450857709391908,-31.503193372053335,-21.910085881342848,-13.377115114819969,-24.488553957692915,-42.88630404303136,-53.54506361388897,-55.926775938826985,-39.878969898783566,-13.124464865938016,-12.335492898427129,-34.19552985009145,-57.531412914112536,-85.32964684923425,-94.39931590656737,-94.25282497437053,-124.96667252582651,-138.92379004278004,-141.93848341635066,-79.1826866426519,400.8252152602097,1064.8509398714305,858.5293489244334,-139.71823123096596,-533.9293360121648,-163.57843295250922,-57.00455855437413,-220.20179957283608,-135.2886650932534,-37.89088831640254,-100.4186047303386,-75.03052326092532,-2.1744096958360473,-13.726827364511337,-9.781329715876064,15.359014071769561,-9.02640054803623,-28.07140417474996,-9.692926970195044,2.0842523920603897,-0.44390442551205034,-0.9320158726709629,0.5878659798895235,1.4815224746013254,3.770131399531829,9.879595158036105,17.137264237940997,21.10849094162105,21.50717678214078,23.163141061267535,33.15341720859591,44.00429345313936,41.452288535244364,36.06742794235686,39.00779472174205,34.20601867080811,19.76555740554432,13.724304330350428,9.458189379126466,-7.847267667363036,-28.45471475540999,-37.659449979319454,-34.10025049420919,-27.200537142130386,-23.527421744949372,-13.671037430778432,4.685981069126239,15.07305180814414,12.998986001758324,2.0101326959741392,-19.601204806718822,-34.17893805252349,-26.758973526108377,-18.98302551962286,-23.777680149492333,-25.051318717990583,-20.051268432187005,-17.483817031200587,-15.440132718658024,-11.579980801330297,-7.465287518135952,-6.015674048827853,-7.1016533248544285,-2.9823844844009066,3.5920993584399703,3.098453507040409,4.7018597360286485,9.375181311183656,-3.0896638028043597,-23.37798530643587,-22.903427660063578,-11.023591659735741,-9.904384539460704,-13.637435920167198,-11.690334229099552,-5.748063061811283,-0.3908506483392582,0.5151696268121455,0.08989839840001679,2.5344335438484524,0.5830273928559961,-7.5693281380741215,-9.142126277800958,-2.5965888346915786,-0.9554901039861079,-5.501315895634873,-5.70370365655914,-0.22682010109271822,3.033360897860012,1.0724909328892966,-2.385524258100613,-2.3882038115637796,2.890863570226773,8.196068598639945,8.768050325439992,6.435739545724363,-0.45272222571206555,-11.263156356730276,-17.113193600765293,-18.86002875051933,-15.651316495929873,-2.85740544522198,-4.165964797595037,-26.9896242839395,-43.243250673526205,-62.837012050336924,-88.88461108629198,-95.0276224876414,-113.98009644046991,-139.9884155261564,-135.203526040853,-120.34514993854927,148.54542261680936,833.7336462303509,1113.3509690306314,332.25715644290403,-472.17967682846296,-344.236649892689,-37.35435385613867,-164.18404724776212,-223.4345749471449,-87.37692651160161,-83.95116260275688,-104.10938465672245,-33.30483859370157,-22.362019413189778,-40.961646202242044,-7.05052117609627,11.660931655557484,10.422764480249256,25.0936211553939,27.72593957280177,18.498390425815984,13.66316285839028,2.0541276648358706,-6.326714942466834,-2.5742693889331454,-4.667946064325551,-12.13327496226282,-9.212631457942972,3.0047353972897026,16.083101563882845,25.051021118755173,26.449890835313433,20.38509325359464,13.093804865623436,14.421657062499573,22.05614152134499,19.289334983458613,4.97514035549875,-4.519858187586856,-8.806829036486269,-16.988488831841888,-24.979158313607936,-31.923982813449776,-41.75687303975609,-44.305125441564684,-34.160551121365174,-22.463484506555627,-14.36218823315282,-11.21974818589305,-15.733956893031955,-16.51507787842084,-5.149115627475606,6.553317670520384,9.689462269825057,5.415970761086816,-1.9694324840010955,-2.048303528412333,5.65271905003752,9.866709188449857,9.677402965754016,6.102377039664406,-1.3182187475396097,-1.4159729630986524,5.383462638318348,3.8517406702209547,-3.33355031042701,-7.173312288539298,-8.797728697167708,-5.861671026178447,1.2572046734000528,10.171811439183067,18.520187441824383,4.909317398002338,-32.00906635157903,-45.590364364882134,-23.950288741193027,-8.761507594388243,-9.36041408137364,-8.154775074582638,-8.08121840705212,-8.417380265344079,-0.5299882405328957,10.567335237091608,16.10567052157812,12.327392051683956,7.852720725882035,12.987878238558359,10.832225008086965,-7.7505597892679035,-16.58603566640419,-12.64893376112446,-15.660375696924449,-14.299831982607408,1.348611609711126,16.185822111445848,23.934591317584143,17.01548962668181,-8.712739948274951,-22.43531341870128,-7.867682257133719,4.895834225345002,2.6035578101296455,-0.5970063974365623,-6.7114077332760775,-16.286420507825497,-18.543725967992874,-19.344844759989773,-17.760268889951995,-3.249433710321508,1.0145572238849656,-14.777808443712349,-25.60422635573886,-48.024537022172254,-86.75522389349018,-102.44559384595871,-121.44008725372872,-150.97530354190224,-152.9534727374131,-148.05999703465636,82.4344948230565,734.4854854905382,1062.472174669797,358.85276816227736,-443.84517389045436,-343.45605181587194,-20.49542496606008,-130.83810261002782,-196.31618848346804,-61.6023345409583,-70.91259650315023,-115.70821078350676,-45.54319972203109,-24.360372340263282,-46.108133541296745,-13.472640242575732,5.706720365312099,-5.739402442337877,1.2279958750224438,3.7306845851051698,-6.024778639628567,-0.6557177304228241,11.04201245973522,15.60376140400908,17.385316686726647,16.532312200311754,16.65922391489311,27.29775399001924,43.90123322409813,45.02229841936749,22.433243534916045,2.356623169819798,10.56720994603461,31.270317474150865,30.038281068913868,5.088291947593885,-10.709304793184842,-2.157018816882386,6.288115186005789,-2.0628220608845584,-14.45052948727673,-25.944378853853287,-41.41834807156198,-49.60472929536357,-41.93565152744554,-31.122207630425024,-27.325690875827682,-24.58881227310129,-18.766152282247237,-14.753004933893894,-10.732408704356189,-0.7104780571642078,6.6670336669932375,3.578244780007381,-0.08950512727012683,0.6806112504449766,3.3597166902686517,9.73399384129733,9.888537941363431,-1.7838585914404206,