ECG,-24.128169856554962,-217.45772469704326,-108.548837445521,5.94260599065943,1.3670552448082276,86.32985842215186,194.4922559776184,215.10905580043382,257.90762206796194,321.8991634477114,337.61897979118385,357.81677938970415,394.1786532508534,403.1135591263885,401.072020768631,407.55530971051587,417.66610652805514,428.1333751489261,431.703966292077,435.3906623795523,445.1178505129641,450.84868943605534,458.7574757746943,464.9554856918596,448.3919835722802,429.1736486124861,429.6177038063903,428.4510055144385,421.9447840533219,422.94930946728243,422.738092473748,427.14334776694284,443.858000387997,453.50070872515516,456.35143970703996,463.37887793793084,464.3935505515601,466.7207187348139,479.21735742715396,483.3118694844495,480.4812086732809,479.9481425743479,472.09716083655576,475.0486783509232,501.41717835435156,510.71252599837567,484.8486240252905,457.6163110631844,461.5312966293594,496.97180617534127,511.36662023085705,470.216436930378,435.9532614320068,445.7705341965451,451.4183790340195,453.38377055077103,476.76265186239755,484.5616913605394,467.4328210040253,449.7592402022194,421.4355059114905,393.6706534580587,391.0378852038357,395.03067180957305,385.0238804948327,342.3116162358092,277.40375091764804,299.907152946722,506.47204661178773,825.368506723866,1006.0948610934605,800.3362609573752,361.61972951432404,175.2278648099766,307.50082641322035,372.09490291001146,310.66891727244115,335.1199028098456,375.07951535885036,335.61047057317717,354.61533764767455,433.7214385555959,418.56614143662523,342.2405603188065,330.20496868787495,362.1837358870828,371.7760988619086,365.542937189693,360.70865043178446,353.24872861296285,349.5126446170542,356.7683585906466,365.5470940829882,364.60725006571477,356.05686740416763,350.6767082464214,352.68637060994774,358.7691668159981,365.98256970622776,365.6164471797474,352.92041249584327,342.1395198494421,340.2175932461747,337.61866318069394,332.67381871435055,318.97476584863455,287.8151650410183,265.3166401342745,275.0137427828695,287.7167106444218,276.64871666775673,261.62710898753005,259.3758901366325,262.60033608939784,275.846468534451,299.27832173086085,298.35020697069933,263.8823919229775,244.81558700933556,257.08002936721255,261.90429168906104,257.5817199908802,264.0071754257183,260.56934332255815,242.42964869627446,237.43623033086203,242.2105758848536,243.9510992220014,247.5010592328365,241.39248108140725,224.19253192550116,219.56481271793928,224.46424224053663,227.06516241882866,232.81164958515274,227.21163763571025,207.14967554226268,203.70717747352444,210.39614825621936,207.32653694166402,219.68016886744493,237.75937933091063,216.0041586551855,178.98116006480416,167.06039456721896,158.6793654314357,138.39146485398732,117.80624044832615,102.35909840552682,96.6509242221378,80.67865803136533,45.8955166382496,85.08985397940899,304.0468948856792,628.0475988933148,775.631865909593,532.5062348528133,109.20121761674858,-64.9731870356257,29.374010276443187,79.55368987585007,42.79415476508234,66.63648085346927,105.89451752287687,91.81518670213762,93.42151628866327,123.6223668050311,132.12357553196318,136.2631544242218,152.81843125818654,154.23240346743626,146.17827912691249,149.32023443935947,148.8123655812982,137.60150498971495,130.0153134835889,125.01218449573165,122.60257100146299,131.457653907545,138.66179388874696,134.77488359210344,134.87226392365082,136.69542198391656,127.04688245916321,122.05223919584438,136.197693440355,150.57874650813733,147.32406287355354,133.14308504838652,117.93939051066019,103.9029538560379,96.14036628871784,92.19999049671662,77.08743015038812,60.49140112427722,67.41136049603494,80.73208328353002,77.04411496648828,79.40082392326909,95.80298439432792,98.84374263507755,93.04030345719502,96.53427750151039,97.64389356732687,93.0023150035376,91.64169843693864,87.32826928001825,83.04742019892024,85.69681636970279,79.60138473982309,67.21791516728356,74.41637919656625,88.90411653871033,82.12919218462184,69.7437757375155,71.95510484548564,73.71292989335726,68.32845363836483,67.95237055638276,68.86972224133109,67.38254207161089,74.34693668219313,83.538020505383,81.81960232705602,77.76322671181752,73.16873034957342,63.248533798331806,69.61345086300584,91.94502206294607,84.26327169892149,47.353045182936995,34.920836920414175,47.2631763818259,47.481567393981805,46.147240390963816,61.28737238134357,71.94447966405608,70.66492240770401,72.07612488070242,68.53870056774204,50.7108732051708,30.622552710957223,14.156262211162286,-0.3879873962595468,-11.393922387275964,-19.067692397907194,-21.6028287189837,-33.285181496595044,-72.32489902546851,-79.76257238401418,61.118391209136746,363.581556014121,619.4800741092163,528.0666947399916,108.63494826886671,-195.50407532294145,-142.0686822451733,-17.91967146540803,-36.04824002672015,-46.72023045249438,2.8389546434126203,3.1442927439914428,-14.895978612480448,10.71785931524306,30.747172758478833,31.173038565697624,43.139176721385894,50.149094157035506,42.92808374800356,43.32539053378677,45.802645943596744,35.23986699416213,28.99542019843274,43.19775039033037,53.156157560395656,34.78647644516405,15.8409427247027,25.288670733524867,39.45606413593248,38.75470677137442,38.22445260835176,39.2864804153907,39.308659587508984,50.548593150968365,62.617035109479204,62.271296141886744,61.667806774111014,55.281145022427786,34.35569965890909,21.824024002010894,19.62990394026285,7.014624919664087,-7.141962108608524,-11.237349929196782,-8.097252646409252,8.114094522276076,30.367473019914257,39.27192459188718,32.2137834785183,15.315605637324644,3.26526791254269,9.380841274543066,16.487757706285493,10.766758494278228,8.273468253517635,13.114401255622845,14.231629554064568,15.15480753225706,22.823374410521364,30.903054078484193,28.20882156785556,20.065555389165638,20.64738992118924,16.51343167105307,-3.061226699634606,-5.016309153522997,18.379784903458468,22.643411015906757,3.6839106646789155,2.0913752966107815,19.081799153153064,24.3462047973063,13.774383806197264,8.667862887535325,17.57876405251223,22.019098737258616,12.576084845148749,8.8689122777695,16.479061878522458,16.089952757682212,9.004672847717934,14.027420190573519,25.557279430009068,20.500511782270042,-0.10176029497257844,-5.350649838930494,16.84605930658413,36.704982933153644,36.42754653039925,32.492596762547436,27.433323807795574,13.464093891175711,4.644848391703249,3.179228112031197,-11.427125802375677,-36.1678321660374,-47.62642429139698,-43.84516228295469,-49.84508550309498,-81.24987477754046,-105.96725602873941,-62.38290512854205,95.72191802333326,345.5130341105371,500.2633780128907,335.5421345969285,-24.441757063642623,-191.72793037239984,-105.56507860187831,-37.64354786107155,-58.7883052318907,-49.00318304930509,-20.883565887204654,-23.2065247292465,-14.922032146837033,5.740225279406616,4.398736393273682,1.2389314897761565,11.417008370594104,10.364454724347805,-2.44081839012064,-3.146079307687808,7.319037142312556,11.47258093065173,7.525331089186288,2.156052136955232,-1.3768191669438679,3.1440527850475597,12.408649424954127,10.614448533984762,0.8916896290029861,0.5483428250980431,8.315210851799346,16.459016259881537,26.354261883706744,33.69125825321082,34.73661575251554,36.56608894391156,37.05915345683712,26.670905454781106,13.590959077588604,8.562686508033217,1.1776941422381944,-16.16317002130171,-29.775046538978067,-28.276506102840823,-17.797825647037122,-10.833781683844819,-11.376664788804202,-11.254391933062914,-5.6942314244167616,0.39879203348322,6.1130950836463915,9.9167872287401,6.4990240101165835,3.618927177437529,8.272053626748157,11.264528576427313,11.292664045730326,11.749247496525882,5.618329227466986,-0.030393318587992546,4.273505431271487,3.2578161028830133,-3.6795773030219014,1.528404366896698,7.868555804249015,2.8624736757915166,0.8998949056025376,2.0906387983299837,-1.3696996051905614,0.8262215240364581,5.865775731241595,1.9379963030554235,0.11442608464667181,8.773063498559772,15.526045502548772,12.613098078400776,4.982938704450378,-1.6852562984854953,-6.059957991592181,-6.185692428839047,-0.9889516243814369,-0.6480844405906587,-9.179423540503851,-9.994159393437688,1.845768416457318,13.800398502674447,23.60858319339855,30.06549065362499,29.613046041176215,29.383659373456723,27.95089147958038,14.790484366124428,-8.917855044496676,-38.63686146100738,-65.457497883743,-75.06904282594341,-73.36620330954838,-79.15881558279993,-97.83724378701771,-115.82787099198285,-82.11239602636695,77.1254869717768,335.5282821536769,473.47894343650074,287.0949400019789,-62.25657103449029,-203.63539227435632,-104.70022489573844,-36.608124276726514,-61.33799934861327,-52.823920450467746,-26.147792746805294,-39.57103947201884,-45.57120777135975,-26.16233827166235,-18.412789312556576,-16.850754336070338,-8.853968153551705,-8.102649827798233,-9.936542573438006,-3.5919380395252904,-0.602498206121215,-5.379638650875765,-6.338207758481817,-4.468471507735022,-5.6373103053342355,-1.4901199669244605,7.921333761223053,10.069506812765361,11.299356310910424,21.54704306918019,26.823632622298792,22.168567253711768,25.194175062311377,37.34752182605153,44.39105815015889,43.77211984020683,37.14601945063458,23.88625868776778,9.482756096586677,-2.5106534757655963,-16.40015043694526,-33.13435629305585,-44.74451354592445,-43.903083335142426,-35.4382526150729,-28.405021852729305,-21.192360835172323,-12.924153326544257,-10.542369849720682,-8.792644347107048,1.5800798762759731,9.335395203853649,5.4801066391644255,3.110613610942796,8.505729822829144,10.845949377368333,6.041767175012152,-1.1148993609978435,-8.279155859517733,-11.648725932252631,-6.900514219981895,-0.534958489396117,-2.2541176617491274,-5.695656142904589,-0.2511169290958186,5.992373942274722,4.96890364564849,5.776212565200917,6.08097556261285,-7.665418993190695,-20.91594929114584,-12.474783984093115,-0.6100193260260784,-7.9617986390630175,-17.80527153637584,-12.678107411359925,-7.819791322212716,-13.765966705949342,-15.268219377366513,-5.239501363015403,6.663484837459418,16.93454346168414,21.052745303114467,11.408005010860567,-4.070208594104915,-21.30441672065526,-45.239615104357,-61.063614244665125,-64.82129082919994,-74.65989049558843,-82.35993848010479,-91.92304038952363,-127.78526770526864,-121.11206591073757,44.192742465134714,344.99913247629746,570.4713350073886,461.22905545018506,45.42582758927423,-254.9902133952666,-200.73234199115123,-72.56885597291452,-87.34457301558274,-100.94003231133766,-55.99006081221752,-51.16884487650311,-60.06590746050778,-34.542435098719594,-19.916808480433158,-22.51419859450875,-14.834484064577978,-8.382133304528626,-7.758291916627247,-3.460551805906885,-2.155772738455532,-6.293637613724177,-7.324397189669158,-2.1469222761490068,4.1286193726291405,5.395523157833356,6.73488807372373,15.153004153303819,20.29356851666598,14.60831624529194,12.496853931940489,23.268457101132107,35.54120863510936,39.47718796828412,39.06683463414814,40.18462813266431,37.55272966562106,20.826557144532288,-4.808314325937149,-23.172418809803897,-33.213249052163256,-41.805862588658485,-42.90438678481742,-35.04671091328209,-32.47205426919056,-36.37561441266719,-31.689277210835193,-19.071025644963118,-11.352575790351636,-8.105548035914572,-5.207700811232151,-5.1179789138060805,-3.1165887617634294,4.532415217432954,7.785195136761754,3.500742613904462,-0.017342350169155196,-2.1460228555034515,-2.17176376737215,5.080963341028444,12.814220067065584,11.822089383304565,2.495298817019062,-13.365352800679549,-24.47624469766007,-17.643850498703525,-7.637537389340373,-10.42859581297607,-10.416272065115004,-3.0059695349795366,-6.86575126679584,-13.927207091604163,-6.66317437290224,0.9601589269607871,1.76468827747785,8.510319887344341,11.981178512160444,-0.5431643600487277,-16.8520243196472,-30.41295500252331,-46.15727623121304,-60.49369900275494,-68.19013155821118,-71.98458460206379,-89.95626042715178,-128.00564783785168,-115.89456962053532,53.03967076760705,358.23381312903865,559.2614983189003,391.56147188714965,-32.97569722464555,-265.76270445757314,-164.3501432168477,-51.68427021460319,-86.12050729312264,-98.69481861272514,-51.40663046268838,-44.926421692528606,-50.74365055091684,-24.68975574847937,-8.988527799542862,-8.251329692798562,-0.9750318557353368,-2.1211914763127795,-5.7710834755494425,9.16576255086547,23.18165388303314,15.6297559540455,2.193196533180255,-1.753783931973342,0.15171119194363403,5.643746091841437,16.499048013515264,24.343278645425162,17.852619510755634,5.3112543506848615,7.17246530708864,24.14384058751276,38.29994720646428,40.69128480902333,35.1894590752624,27.52730928722744,19.85158852502625,7.966325453943463,-8.776100154840076,-23.69778880037578,-37.67745532691035,-50.32449549955107,-48.5142024403286,-35.073189978517476,-29.2282326794576,-28.337502910223424,-21.11554843025847,-15.407553763709167,-14.274395124635326,-8.393840098354588,-0.05293998491758245,3.515839018674365,3.2615395013236856,0.271584720567164,-3.4387925927593592,-3.0620560689771157,-0.19269121223926255,-0.4199441620505713,-3.4781644770489244,-5.072632177060429,-3.6382660328598355,-0.6132305648722145,0.9051051892704116,-4.403909992451206,-14.411831711192068,-13.562409672754494,1.144085761145396,6.885920838527534,-4.2958624112057535,-7.528926286195193,7.4626365741933816,19.040332443055387,16.508502577675088,5.019835551025147,-21.599053078314974,-55.07265011681793,-65.8007162484221,-59.715683324527966,-62.48285976796076,-67.40519657918696,-78.23402572971872,-104.04613500720717,-72.50577812117632,109.50602988613892,379.43752976657174,480.7176119419752,219.75961966285695,-183.8298909634525,-302.55553843494613,-138.19172811704584,-41.66026460265419,-68.80250736863749,-50.20786451225905,-16.961539121537,-34.876528342461015,-30.630148863417293,-0.5525655841072066,-2.5884677093235453,-10.268286041032779,-1.4022603950120933,-2.524715514082013,-7.566858250173375,-0.3307766327364945,6.304665561096479,0.6892681370481277,-15.559018085761506,-28.30307242469782,-21.88393174677471,-6.968223848806557,-1.090241828512029,3.219201608108178,14.442765681487721,23.73140940740119,26.572855820472547,30.420541122399367,40.44669677341028,50.67001256624084,48.982503214418315,33.33990591609009,15.022754026116102,0.15059489520932612,-15.651309211053146,-31.566520587763815,-40.49439385016731,-42.49125181734655,-42.153947336276445,-39.264860287824476,-33.62770720652743,-28.672483040444508,-25.776039898513908,-22.155066280075932,-14.08274435580648,-4.710939287953638,-2.41940499342682,-1.661546671014941,9.110396304250408,18.117979712253938,12.612521401591437,7.182661670860458,6.422441808529747,-5.496317944736669,-18.991160254345868,-14.188863640539603,-3.935454538975314,-3.4161813763078523,-4.89149713100459,-5.876138079103399,-9.290555606698668,-10.452835179935889,-12.291258161087072,-16.190759826770773,-9.494086759109356,3.452676099902389,-0.7375583529426599,-22.887220308987757,-41.72702633731613,-49.13111785827867,-54.89732672968456,-61.82656726876851,-61.85631035896181,-65.76200745713848,-89.57124584110649,-88.06618654222311,36.23762408362978,296.9677931425242,490.4672988770338,341.30735258535833,-68.9235805385529,-295.58846277131425,-181.5973040880657,-43.120162410095666,-49.67650125592682,-49.81847281404649,-5.821593824153624,-8.389918731178142,-31.763360454196917,-28.94497751568698,-24.11193323818342,-22.69119556117885,-15.149163973199004,-10.776202978344543,-8.614949011006374,-4.710672452781779,-4.47366925243144,-7.554343293910824,-9.8476096518646,-9.753978618694086,-7.408371616623441,-2.299680840716028,8.160083648055455,18.601267188645558,19.817534870041957,17.46339081604421,21.91172454470569,30.297218293236355,35.218816345832366,36.200030323384006,37.83017526132123,39.24184867990513,30.26077640911018,9.653977873401423,-8.545064855991312,-18.716813493965027,-27.530344043436813,-34.92138761203185,-38.051696478831296,-40.73038073734695,-41.78618738487955,-35.222517171077754,-26.26353087605269,-22.564593601989785,-17.052973239964224,-5.327956369135297,-0.3529438512320979,-6.481084797168965,-9.052911513523544,-3.0790485510358767,1.8071187618930793,3.100395714773345,4.009119708885013,2.219171118736062,-4.0649756723606,-9.00517211659929,-6.2516973540733165,-1.367443974494405,-4.751101641529292,-12.505028661683554,-15.513178238298302,-13.27603315758188,-1.4230693029667103,19.044811213328924,25.350756561384383,5.877276991525401,-21.323547210371288,-39.210457689892195,-47.73274899112329,-58.36446553334905,-73.83097156114127,-77.94844706454302,-82.04804400053179,-115.17683665240052,-122.61550847656692,10.892252708159205,289.4286147565196,501.97335453059486,376.1807300254679,-26.26870882929483,-270.67413472723183,-170.571584604701,-31.116796823453072,-47.526553256866954,-74.44627658596853,-50.369862749098225,-48.398735779702136,-46.86959727147893,-21.783947079040292,-15.554258382397602,-21.207974580466335,-11.747964103843334,-5.6032942507517856,-10.122586136222893,-9.88147027207936,-7.504578841611826,-10.281886676532405,-11.856202570728751,-9.130361672732846,-6.230014802546974,-1.6871285510749212,5.25141675463768,9.49336603751668,13.586016498060026,20.794744402233167,24.149409686438958,24.661972034580888,29.89529194038873,35.183227388643544,35.247923341453195,29.85254392314131,15.697521975050877,-2.9902671588514025,-19.55843423156448,-36.22870329250324,-47.1428426019342,-45.49916764674431,-42.701608857676014,-42.49519669444706,-34.68492104503568,-24.674102991755277,-19.862911421086256,-12.411614620797497,-3.911276441661567,-2.372969494202021,-0.6600867996100739,5.122801568724672,6.040945077800212,3.0561457110231833,5.083892182878202,8.582631087163088,3.7564284523618916,-6.939778263242864,-11.51345263905785,-6.408884855088653,0.1167411183588154,1.669961118918188,-1.4011365684709887,-6.33325507895997,-8.774376063444072,-6.857004563808385,-2.1958673056868534,6.004682585621429,14.699306307472172,13.55121196254689,0.9792492826907697,-13.326631041048898,-23.606266596601046,-33.39963426662841,-49.24678786313272,-66.03427373242698,-74.73681882869005,-94.36602670732063,-144.05718055667188,-177.4179524584803,-86.27586852768141,203.43058383717013,543.7078016243835,565.5869094229937,174.13659476131784,-189.55273807471337,-198.12211477445817,-86.21953265369267,-92.24059181655664,-109.84402260756733,-71.66697390311393,-54.26029497134944,-52.64864332726587,-33.22282641524106,-16.14853923711929,-5.6046679820434875,-4.381032951369118,-21.467899642833075,-32.315262599755584,-26.779638967711975,-23.782407200956175,-21.67379710713023,-15.340213393012863,-14.044292303793535,-16.615028714172013,-8.11069048383484,22.22983050126181,45.4137622772558,26.793460038163094,18.986982248116433,58.278519870204164,41.376205794072874,-55.54142402363432,-73.04010042726173,19.88929331211262,78.75561260164345,78.24625882913774,70.68485423164469,16.775546907836098,-70.26198049322493,-92.6380373811271,-58.660043321648544,-31.667508913744467,-6.02759773578757,-4.648188347053619,-56.56380961665553,-70.68652420212645,-2.689628874628724,27.58902983861283,-12.897638600987388,-14.712886607761336,19.77649849341,11.174341573275845,-8.2575493663092,6.829530176545063,25.695975006626647,29.877965665385936,10.069563814665019,-37.122995779897195,-48.71898817070808,0.1380281498715341,23.69851896089827,-6.617282446144172,-20.199076784734444,-5.244710841727195,-0.4973186345139684,-0.7837072975502126,-1.001239366361327,-13.461515369347964,-20.861783344394908,-10.30822157444545,1.0117116993480915,5.241122549130025,7.569293939329995,15.19544892226364,30.784189869107383,31.1563895556024,3.1700133925367844,-23.59870962311589,-34.59023507615418,-42.74767647491432,-49.364806921742385,-63.26131548152951,-86.95951429016105,-100.84376213861928,-123.7331009485845,-153.91375680646198,-74.72794538669815,189.83063430633965,494.74325442365574,557.4335106030495,250.6790131226117,-149.3045772118743,-249.14262144212248,-111.14392687954975,-64.97768051692036,-110.94350814157687,-90.5648585630435,-58.8053023342299,-63.08976562780481,-37.63136889918218,-12.638051804909153,-30.469265067785386,-27.041043449881215,8.021176893031775,10.885454873250893,-10.626032843873594,-12.600066069826521,-8.773318682968418,-15.29606554953061,-8.804708209222767,7.651099500345262,3.4270797315122317,-5.431365148457943,12.609895323760279,33.143914806143215,25.52714164628675,9.125936742872899,10.460833463405455,25.88764453021447,39.133930329953834,44.33582658575976,44.76254409501889,36.19126349888335,15.900143813281204,-4.685317596569019,-22.00378792483652,-38.060563962353314,-43.6260909802341,-44.67352598166424,-53.400837288523036,-50.58786987396704,-27.110178797457902,-10.694539640705113,-9.169927952271497,-6.571908499508545,-7.551174749675258,-18.85356841117661,-23.63573910722049,-12.243821156633729,-1.8558796271442155,-0.2137779506963895,11.20340569063108,30.15554285003312,31.657762020696964,19.98583813045271,5.503711825994593,-15.840462817115537,-21.42027773493107,-10.486410768504818,-31.121275753085314,-66.10421184061104,-56.33748795137623,-30.43592312988359,-27.067340364096637,-13.580583050486775,13.347332644380657,17.933922082778036,5.375664665122352,-6.826824108336666,-16.130690201789918,-12.971215512859729,-2.317287131213428,2.0906374427187666,11.278076002755785,25.857710346079465,21.4610653434724,3.23238805893821,-0.7640154368091467,9.173005232156466,17.531309550452384,12.682359675164872,-20.262195781373016,-65.96528572555613,-79.14393810268258,-60.23713247841702,-50.47841852061862,-58.86041721100356,-75.54992934073697,-98.93447702686791,-96.4742036333769,10.614542412286212,272.56184284514313,539.8585565077713,484.5421332916361,72.6161008178716,-249.15165674270122,-211.98812264662632,-83.2163721515138,-78.86129475201648,-84.18586171874053,-50.87012869049359,-49.46609601859704,-49.20951017570563,-19.727416500592685,-8.6427709182522,-20.095226611359838,-20.99035924464995,-9.601398800611737,-1.3089442676748888,-10.697881590954633,-27.943354225301086,-23.299231819840166,-5.278699970524999,-3.130896742891716,-7.279871438056354,-2.917501826981736,-2.985260228310757,-6.563033672973075,3.6704153055567814,20.36572189177524,27.108227366687032,31.659764289455097,43.38905470639892,51.75045214395765,48.57532530696327,36.271290723450626,14.296446949346226,-11.073448221052704,-25.409613686169738,-32.65275950482133,-45.033561381601096,-52.542837167686756,-46.45490441609174,-41.74999887172065,-43.474785285802305,-38.71619254538066,-28.93701922535456,-24.48865734599258,-23.220028717733893,-17.10638523975113,-0.8726880573527946,18.09015526461129,19.866739158590946,4.958504346125862,-2.703251621734138,2.3990995756921283,5.576963399252686,3.0480800969588913,2.5401252853525538,5.872757748808381,3.5407544301078353,-7.173851156571445,-10.015338105462376,-3.1662030693175414,-7.328751570839723,-18.717027256449406,-21.756135894922163,-28.079695974155328,-34.27463257709831,-16.935288431883514,1.9894921127705167,-8.865003397702216,-23.295907161824005,-16.429227768223342,-7.416670439288637,-3.845230119760134,2.912691555023769,3.152860451299628,-2.6568074148953595,5.785477017678901,22.61040567820451,22.884754659310346,8.581812152253942,-1.4657873125990515,-0.7208554559233051,9.72373027017172,24.122078809972553,28.381165425557118,12.785402150229084,-15.81071912403987,-36.9762937372817,-41.147889401247106,-45.71623853186361,-54.223331015798195,-46.42713930114809,-46.20513101620626,-87.49551358857646,-105.49027293553723,2.9701342327130362,240.48340945857734,462.8692520463359,433.10443709543347,97.116828122153,-216.43340744828657,-217.96041278455183,-82.44666294438133,-62.762848664781316,-84.80444459117291,-44.08288261774901,-14.973907017144462,-20.512816196317605,-4.785137499193318,9.720153076258573,-9.148617601338035,-23.284428541912295,-12.523419655179932,-1.535065189954608,-3.880520819969565,-18.935760794877535,-37.94338829439894,-40.766994052958694,-26.469601076567493,-15.746384750372357,-13.232800747747536,-10.71972697274148,-8.27671948805369,-3.5235249444478765,7.077593286736831,14.608101870693353,14.607025238760011,17.334791011018957,25.585089381623636,30.06411011329276,28.951490514630823,27.590399652671888,22.685717954364467,5.266846184232241,-22.23367288900086,-44.53237784585371,-50.23541648201157,-42.090761137289654,-31.45828176716948,-26.669201092019293,-25.151563330831333,-20.029948215763763,-11.760898597730208,-4.166634240465044,0.31840121226944973,-2.3153813104234544,-8.309790829632563,-6.246623982044917,1.7687591069301458,6.256579851434115,9.621963128655354,12.248346405244556,8.973853254392713,6.67544907767333,9.960841114241456,9.832599683099371,5.443096736925512,1.4339900897362723,-5.761895365416311,-11.71104960896895,-8.239803581453668,-5.3806035591796615,-12.127284465243502,-20.917102882755607,-29.09843380066419,-34.51399986549174,-22.69719538109953,0.7131061060455632,6.1195436092978746,-7.174988062502873,-11.299058682508381,-2.393464727813054,1.8470245963797591,-3.195938955112263,-10.460625737086248,-10.658062586750544,3.4958492205596334,22.931967993806666,29.881910968234013,21.634730902404563,1.6176857581531099,-30.282653830431418,-57.09870483695275,-58.44628295243379,-47.631708917676605,-48.46428681000367,-67.77097469322703,-108.09803657426816,-140.5533484763257,-93.71197768389067,76.12883557223793,329.7909570327306,501.0154199535488,369.79072799772047,-0.5386702990016445,-222.8613518609191,-152.027833117046,-60.1158914305696,-86.94330879591982,-93.07446724331366,-47.12919902910666,-34.36469942325967,-39.89146320439211,-27.377359796032355,-16.838495568118535,-10.354383258519126,-0.6855177325536435,1.567323257603256,-1.11281404644064,-6.5444366626969845,-19.83037941698445,-25.698044020354278,-18.811868888083794,-20.588052994893513,-23.975353249768737,-6.5666873953144975,7.013644869189988,-6.963973159856443,-14.226261675926118,9.648205155960873,35.17877785988387,41.94075850108791,45.4035215573612,54.91787255827266,61.83911345774915,59.414433203830605,46.01992469523615,21.788228371273718,-7.438599287640939,-32.66494330283433,-50.34041579543765,-61.1818047221971,-62.35404431475479,-50.96506549035361,-35.58136623167541,-29.12654642414663,-28.072025141301964,-20.372168007944193,-10.20824134353498,-7.805583728727573,-9.523351791876049,-8.232311845115687,-3.094803983415625,2.1278007639149976,1.4189455029780742,-0.6095717835730774,4.0103272355840005,4.87748960943178,-2.154735029286467,-0.4849743701209359,6.5539389461056174,3.549376318556419,1.622805910833394,6.06072765414639,-0.19980018945723899,-14.430030160092764,-20.402345552706592,-15.161892305577867,-2.6479321086626477,-1.5034665267597198,-24.868182741890543,-40.84407724237002,-25.530411199327922,-9.80777636092612,-13.144681824962822,-14.14636125333059,-2.770315698685792,5.681002317000807,-6.202753524393888,-30.197569791712606,-27.286565313366218,6.8964654537792525,22.085412851053484,7.962585178241854,6.29153670245804,17.678583193076353,11.273589035480361,-11.507516585042314,-34.921740607089944,-46.80334867208519,-43.157243318752904,-49.062109297632446,-70.2220094907227,-74.27904252865343,-78.72507881710035,-105.07209904901265,-59.13337649827361,140.84747448244872,383.379939773917,441.6691746478397,209.06007751950474,-121.90120392215414,-231.12703698584812,-110.85048695668502,-28.298832234064996,-53.836836724531715,-66.61985496074254,-63.26339398595204,-72.14757328234127,-46.28915356377254,-10.50881137790838,-17.520919532085557,-22.845543731461714,-0.4210621134767907,8.401990180239746,5.865134760325995,11.542485011367704,4.741762150465481,-8.39609684142668,-1.7461805954533327,1.317249054932021,-19.19127739861156,-28.721345286412966,-6.893235963061862,17.457520125981947,25.3227636450049,32.32495119077242,41.12893303907737,31.32614319240878,16.80680404206233,35.33106740477754,67.36944966528931,64.15808152559042,39.367848768252266,32.37123749340988,25.735894934626454,-18.61081370786965,-76.60345957409392,-82.0462371787422,-36.19763880794234,-15.963925504532696,-38.45433806067028,-46.126309463989614,-34.618899658884175,-32.22854690132968,-21.867052247714803,-6.042206419187503,-1.6605191512367226,19.905667571462725,36.51539688006801,-4.885235416924903,-35.828725861150915,0.6401283605411949,19.796034738884902,-1.2949948188530827,5.2725814766279475,16.314667145096223,2.4427619432479983,4.913764626675041,6.334410341899323,-16.977791437976936,-14.509852019916961,8.537603287447892,4.933796856982156,1.9658058274237054,16.12424624233619,11.589042725873735,-2.753823880281889,-1.5339434917154406,-0.9104906396430916,-7.789632513531935,-8.587880447117435,-2.9619115899296347,-0.5197498591814664,-9.435648996301712,-18.1936774527781,-8.364792472685942,-1.6617005249441803,-18.605506238121883,-24.651006029086773,-2.104113485252401,18.35431121895644,29.84777062685548,40.43937582486847,31.745560764596263,0.6044266374156495,-27.04145692389073,-34.06402131291042,-27.73001797006464,-36.329626449567996,-64.9254420119367,-79.48599677347296,-89.22709677584861,-127.1962648139273,-129.3981982448306,-1.9574973487542877,235.62380967000354,447.8038238385394,437.4792920143816,149.00643032444808,-141.66785761170803,-171.01213311897504,-76.13692796394221,-63.26171195586954,-72.34904081115472,-44.237545859358185,-42.59249221642324,-51.44878705761662,-27.137897008712784,-9.621274308517373,-11.264982632703855,-1.883582193629353,4.052284836807374,-12.620756392115977,-32.196048335445525,-35.62924969667539,-24.820171630725266,-11.36216299995673,-2.6263371710016736,0.7637183152051072,-4.380461895382549,-14.083513676309108,-13.873103815212392,0.48832552727543055,21.190950134198438,32.63364627036147,23.925201268740324,19.976458390086517,41.72971887086372,54.54175429010036,43.66747335711791,45.86505103938245,49.37685854714972,15.97588444382114,-21.767074783883977,-32.113028926017435,-46.31009113136189,-69.59618420306224,-68.03297002982292,-45.53976258293648,-30.218227656842494,-25.49187369723975,-19.047013764417493,-7.931319978068451,-4.792704684224141,-12.063518749825654,-9.064421887914301,4.266041314602282,5.863927806532481,3.8877621075024074,10.453658354392896,8.865473674721262,6.751188400440392,18.92973772956634,8.146484509201834,-30.599562293113436,-28.94890379836845,11.39901693828652,9.4343734563855,-24.946593489820927,-18.167352621341664,6.686726207574278,-7.207828980692575,-24.627108050394273,-9.090806072540632,-0.3299114912071559,-11.644523277262007,-7.629560134442876,3.3442138954772602,-3.67834881164047,-10.134524953646565,-7.583475921846148,-14.498412848078825,-24.897239596942597,-21.36372627863818,-8.074512409587715,-0.22611302894086194,-5.351124973931942,-10.214093971817686,-0.6532167253636789,13.34285755091209,24.40040481180484,30.3491111493809,13.971302775356792,-17.38448774969732,-33.82764493425649,-39.624383108386525,-49.98447162396862,-62.30828953747715,-75.6170800396924,-81.23984528493006,-82.08430553956286,-99.28610515174542,-90.28978047094179,29.364511227400982,245.92162841909766,408.1500013347112,335.07467165075667,45.68069775047387,-173.48997806439803,-153.4734073811767,-74.28375449711493,-84.11978979388341,-93.54613102554498,-59.5998246793025,-41.368046749485494,-30.097180715500816,-10.013952808245492,-13.785688141151113,-25.08680798788742,-8.487578755222202,3.668712075560716,-16.227525969971193,-23.82002314402329,4.614464936849546,17.67742794762285,-5.523141428307504,-14.085820595481561,7.495291107706819,16.73145067155757,2.751888598728544,-5.054394276444061,3.4994965367562045,11.450126927039541,9.786393414438765,10.373580939007917,20.89642792879262,35.821550093995945,50.87182448738459,54.453291222033755,39.71696522306556,27.235195526160567,20.771323569593203,2.7602258615132547,-10.590467411268655,-16.941518822384097,-49.63648663680725,-75.94173362964337,-46.2122145122364,-16.021976000806696,-30.74211469966295,-32.24534478080133,-0.9254464914402423,6.0534299766294595,-14.746987659275513,-12.824034244271232,13.14234287375821,21.088651377404968,6.323110761809085,0.754420874940986,8.02228142223041,11.836154394211706,14.677492584607002,8.627977199704418,-19.17370106370016,-42.08837624936872,-38.59661969308509,-25.85642764394995,-12.56899334368179,-3.4387215542956877,-10.940257817688755,-14.706156293599776,3.5163454873677864,15.056161978106676,8.651488638661563,5.9992131246624645,-2.1150583219219428,-27.06740402010453,-34.92944261948977,-10.625541023064367,6.731275297464194,-3.616353429961862,-17.107842361755893,-17.500589767724332,-9.054519134301628,1.163321654490634,-2.8435781490048413,-19.705184734190773,-15.301438716493465,13.405964362710748,29.009113566134314,24.521300725550148,14.468065138130472,-4.915842479757426,-26.52177917265928,-33.22390961082429,-33.874861550653485,-45.11219918098251,-62.333820936301464,-70.49434391811914,-72.91645185458202,-85.46141167759177,-76.12674408567574,28.790271548449866,223.77193458487773,366.1837558168383,295.032642557527,36.90435244193703,-166.10385507951435,-161.27146039265142,-77.38980660824654,-52.15175222565722,-44.74256808053171,-27.184903528965027,-32.44827832069171,-33.69206347451291,-13.380987748752311,-7.625554483767045,-10.288176160060928,0.05001801734058553,2.924180583594116,-2.5872874113749207,6.30730225741826,15.813856085988688,2.995374883659932,-14.600455129910017,-15.472069620989686,-16.522096276470826,-27.39629293033129,-20.45337415928516,2.412595488042812,4.968657838141385,-2.126684922906853,13.029989452318436,37.962339524920125,53.48262605028279,57.63207985844927,53.362867691923626,60.913525872909176,74.55488283630373,46.45805158774205,-14.694375151699795,-45.21808885563795,-40.032347656123264,-39.015018981599624,-49.79355219366774,-59.05150390957222,-59.002607730077855,-47.76130045013099,-28.58437750719589,-5.345771149347069,6.7349480384444185,-8.02669313358857,-22.773909452575168,-2.037844964478703,28.165526821729607,27.39445367818944,11.809482761036586,5.042253781220873,-6.3090834530367506,-19.507361576284424,-9.698272975004507,5.89420462610582,-3.8901675889485006,-15.978551990467702,-7.6262528049140474,-7.363358977937805,-19.808004514580993,-10.1403589781219,9.506684298956522,0.870984586748456,-17.33071148486697,-9.698996125056926,8.053817015314934,6.048955061487553,-9.492354859380997,-15.602579537190287,-9.677418510881491,-4.848712607660513,-3.620456429546703,-3.6449030724136904,-10.866154103464853,-16.952911962622448,-1.252485666519895,26.08385071600556,37.24751926286644,36.89632504026763,36.15992890981871,14.66073301665055,-24.326323376020763,-33.67380585098125,-17.254037642428276,-34.70106927677229,-80.44646441608813,-94.277616895539,-77.43666254204575,-73.67883701467025,-89.82387687038637,-99.5730787735072,-52.35229646592068,106.18785848175378,324.91702570102836,407.7972434984083,227.6751062487814,-48.39868941231641,-150.17293244477673,-83.85469340832208,-46.8794658314913,-71.36657522351877,-66.78163591803599,-40.26628352639778,-33.132319649497006,-31.098444388904248,-19.871451583868616,0.5585727955422932,15.307386114302426,-1.1722506608554895,-26.894576723561624,-26.096444716383793,-17.764176163989056,-18.190719711488498,-10.94647106363886,0.5766515931498883,0.5621381405480665,-10.707369587229213,-19.59775606723803,-10.96483603830755,1.835049391052026,-3.3416076036206395,-9.734374228001867,1.152089556037371,19.848876084495632,39.42969762637729,49.81515296154482,44.17700159637212,37.999243555737834,28.45862185857216,8.94553993721161,9.443641382953718,21.012981233437227,-7.767604511755401,-51.02889107366593,-48.94980657324224,-26.47824609015597,-24.253385172965636,-22.320092949023767,-6.77755059647129,2.708124118907289,-3.1860466124384796,-17.539669216948923,-25.30591072924301,-14.385278377712652,0.5398116681850418,2.5792529485573663,3.0131253654986523,5.577506570148952,-1.891113308162657,-8.735889057830208,-5.797607274419503,-9.838472494372699,-15.27787196878932,-3.6151315969856164,3.162099880444,-8.664467448614195,-8.781877425035367,3.7402882964317143,1.2247199791941394,-2.456656186608564,6.331435032238303,3.1263625386663545,-5.457111194559653,7.1079511202034755,15.258756627888213,-4.165418820963737,-21.275879670235888,-24.203891906861045,-28.896927592819324,-18.20171952499731,16.34934987867419,29.427111608470163,6.380820777631494,-5.260710446001706,-1.038782753130322,-23.895342235369395,-51.08758837260666,-36.04061832949497,-22.587314855123356,-54.738464265696194,-79.10848867765463,-65.26439709223484,-57.426967348384544,-41.5078892199072,54.109842790872435,214.27095145652646,318.100924484981,244.341451356831,5.8975762882797795,-190.15576178367974,-168.69131154239057,-53.656736559273185,-48.57264836650689,-92.39716779136421,-53.86943963122411,-4.375941348406833,-22.349990466895093,-38.2051663086613,-5.34744561138444,28.84115974608985,17.289286774537423,-31.168840519173358,-53.993225116524265,-25.364797044337518,-3.2781878052837445,-9.153577275931303,-1.7471630527057478,9.626979309403456,-3.020985998056469,-9.09205373898567,5.652530890065615,3.884737881013532,-13.178678878112777,-7.571979693873791,1.309890384812288,-18.671668267446293,-17.11441007761731,35.089104628010396,61.876587932620566,38.193135665872276,32.46631494162311,41.223209403410735,15.11154868883404,-15.14166149791126,-18.642397166689154,-18.39849784811067,-12.000838011135103,-4.080137850892122,-32.995709463256865,-61.36641256871694,-27.948496226856548,2.6516753650336096,-25.34872934699004,-24.342813536247245,27.8290853103861,18.408811897880664,-41.790519725227824,-30.639775651542482,24.71483625641418,22.283749624057158,-6.502330826590505,0.8914710424172885,10.069283646834895,-8.38596231494735,-19.351787422933878,-7.72694636808301,2.115665313987443,4.061287388934119,3.0959826659354626,-12.700020698176436,-34.602842555328785,-29.863038883182256,-6.620070011053837,-2.8275942093046496,-15.435320574497705,-12.815530787109694,11.878997627159148,36.162677537603514,33.86723707990422,9.672096724282985,-1.8866989283518678,6.105406332627327,-0.05183326709234759,-29.74077004392316,-46.84007562550132,-36.38902782388057,-32.042413097178866,-43.976658540403804,-41.8345659009018,-36.179654013282935,-56.49050008778991,-54.487299198542686,47.30145331542164,235.93400416861584,372.3760854451382,290.99178936231084,34.38068225739236,-135.13255284901578,-108.86943042754433,-47.58513201398254,-51.498719968442664,-62.403721916516105,-46.68486232601261,-17.489876817458942,5.774183586738903,0.546096577862917,-8.784353507598002,5.664008269768991,11.029101347797273,-1.3653240863702703,3.6561115802722863,17.50013379465112,14.111065280314493,3.2504887400147258,-4.1235090480256815,-10.606769996399679,-17.99165109536063,-25.671787342017975,-29.41157133388399,-31.700511308257084,-32.658582819332594,-17.91868906000723,1.662578210384929,0.5343310818525708,-2.0571881610553007,9.840688459532569,12.839468346530257,20.038022647002233,50.50302950515858,56.983072590254324,21.739706448651017,-8.919213897260017,-25.655321751874094,-40.02345143934765,-50.13215867787423,-71.12168521191778,-79.2878651434743,-40.34794790384589,-15.079863048468418,-33.18994503963591,-19.511445411269104,18.490179442431206,10.805785981183796,-7.273731174786018,3.683667525835638,4.963155504096697,-8.066272697477,-13.895242868251337,-22.02229716639701,-22.956688885291406,-6.116124491072188,-2.5020271638283766,-18.2916836026833,-16.589793230113212,5.083085511816687,9.641212739742198,-9.437183132646734,-19.826128010697047,-11.570142464837906,-6.945844401943194,-5.033218315606355,11.28457244608504,22.214106656775513,6.792285965885806,-7.60336675299545,-2.733023841570695,-5.700090144960596,-24.69273947951578,-37.707084032180305,-49.756792122701945,-70.93461561932858,-77.12922573801805,-64.16448139987523,-60.02513790010795,-46.85407617330836,37.605866165621045,208.18621178816346,362.0101113621669,320.9487550892277,63.528954232500844,-159.29819322938943,-158.08980322625504,-69.19923932084447,-70.13128304992969,-116.99007847828696,-110.00025672657188,-60.23132430992362,-28.349077225787894,-26.545792762150782,-23.477740656987194,-17.96153533096767,-15.208289026845579,16.583318284480285,45.41816604310767,2.112980437417768,-55.803959131193004,-50.71926636405585,-27.48446235652721,-21.754502095166238,-20.830241478350608,-34.68730393738309,-35.124436885599565,-0.2904943532400921,10.307613748743952,-3.3282765943809762,18.31843785699278,38.909752435328926,23.02970564638707,25.65924877465172,53.07614317521232,60.45426328379581,52.154510076584025,39.6508408149202,23.543837788222717,13.979020604759747,-8.147865909995918,-44.599968253048026,-49.51793429479629,-32.84418573698912,-30.935175569535172,-17.899830919616942,-7.205724660824256,-47.15965653886874,-73.79347618073473,-25.280512184463344,16.164509847019744,-3.9975638583877107,-16.577679781454712,8.777769262332011,16.45258178391563,-7.759061039046345,-13.177055419201418,8.76449878819651,8.324986139651532,-13.266362552707406,-3.0109377632031213,22.176068937158462,0.5445250339502081,-37.375600408414165,-11.65259585117522,48.626087652731115,47.630237390128045,0.9754497813671694,-4.668388875740389,11.146176651576594,-11.58022976614248,-23.763958056874024,3.3789572714000293,-27.653992793577984,-111.8612505882626,-83.43493668556245,25.426864047146786,-24.89540349238966,-193.51677450398134,-197.04884898913645,-30.9188427206431,129.54134537722237,280.3414450547608,347.3265833472831,146.61640806262815,-149.9117195686464,-202.60954854862416,-85.96733479149921,-43.802834899419345,-43.82787910476231,-17.301470243671403,-28.889059169674546,-51.613909749988885,-19.6296858032325,11.070627145395438,5.210239842188123,-1.6074626971892787,-13.195400716950378,-26.090490861557683,-8.673062152688749,24.777895395926762,42.96639434893739,16.9480703404921,-55.61254188707319,-74.12254059744122,12.945733655804109,64.57312582999474,7.456064850619101,-27.183206907398958,12.999303792335631,27.380690874023838,0.4385076028355499,11.612868904908929,51.710669193036175,51.63226581313421,29.51022333424748,28.684117211091124,14.856112871379388,-13.64297037743591,-4.2049512084505265,5.061260954335749,-32.36059456659345,-52.17202556485228,-34.40666014454455,-35.98298327323887,-40.00382219069485,-17.305653974631582,-6.007558549308133,-7.828019657398843,6.9366674669793404,17.127910354694233,8.805450201931286,8.933119325928963,13.919341889215385,-1.51716185617496,-15.816302597174204,2.8393720477979816,28.662386271900488,27.53005702437463,16.039261435393612,13.307795554248113,6.551034389003114,-14.801436647243484,-38.05827122478654,-29.75692683064013,16.55962373674556,36.457008328678796,-9.114412888170396,-54.35119425580497,-47.642190414134014,-30.2638013123887,-39.016487098860416,-56.400584676319774,-66.73700379514842,-73.9101157400188,-71.86218539153289,-59.89573933162353,-67.92539025102379,-92.89216859354887,-63.74198119535681,66.37856545556842,262.04626279253927,388.9944869030943,263.91542558780145,-54.59997366344353,-224.55997257683217,-142.10726823603352,-57.536004662244956,-62.425814573727315,-47.20936381311165,-25.561836963798804,-38.40035003878185,-39.49793339102469,-23.74317678749119,-3.409498902077088,24.648164030805827,21.734938613376784,-10.752323138017568,-18.628555772708403,-8.469866823210978,-3.929879653009581,4.798015608554788,1.4548393605729455,-16.629077923561738,-10.526729723265575,12.517891520977123,15.723508727300596,5.896907410907856,-2.440072505026051,-7.326855800134989,1.6173561519187158,16.66060741454446,23.026462522928597,31.3376164674695,36.66507731510416,24.527115311961353,22.67145350029226,34.61677953971789,10.158138201143018,-34.66339936327339,-39.3017683483351,-31.052100521354397,-42.07439730656609,-27.171976994494507,4.457097569506585,-5.528004578722502,-27.686101477352295,-20.02508279274855,-11.039572417848103,-12.849702382953524,-15.802953491456613,-21.534964182981,-9.070508937696463,13.351418954959458,4.694471867889707,-5.519614945246355,10.169894932556248,1.657356267493551,-21.717298836006954,-4.846098834720513,13.98199907380763,-0.8637712731697178,-8.288381624907924,-3.4343583898201047,-4.5510138945821765,7.646162374090089,22.557676968428126,9.594262909223332,-17.0835850620039,-39.34563801563915,-56.473922520757114,-63.45629441525389,-66.89277887597055,-68.52161972972036,-59.62243989533209,-67.11935657843807,-104.13801136069357,-98.31957804644051,29.45806160839338,262.42264797666246,451.59457137015363,379.62658810154426,51.18490024683836,-193.22044428151128,-156.1114986797621,-64.61513697168857,-88.6263339007772,-96.92117711534684,-49.93834236808115,-51.4594583226505,-61.31629196037484,-17.607188144811268,2.2447900801897305,-24.602439139762975,-27.577829135311575,-9.398966807246483,-7.9050806090921135,-8.287945370671029,-2.76460983190856,-3.9532294175111566,-0.5896013098241255,12.219862416171043,10.725044956615667,-8.137683435050082,-14.278266262886095,-3.0937020568144233,-2.143439536807187,-4.290740790597484,18.294432623296366,43.620419230497006,48.151415822969,56.86998325041031,65.92963260034723,45.42606298011275,19.310731484184384,4.792336048885565,-26.817921273911367,-57.69965090157595,-50.47862430620101,-35.090228700626646,-39.036425965472034,-39.3233048129579,-30.264888899545493,-27.931963609411177,-29.155085003211006,-21.20812180107606,-1.089645542188526,14.740804491182526,8.548675923006765,-2.4527116595937954,2.681842717097731,7.951981513245688,2.3907855212443163,-0.16843208026892675,1.5556698560948856,1.5196847191413099,1.5434767465382055,-2.516083065721615,-8.886481504529442,-5.016214879027481,9.342693541674695,27.689149956314935,39.80535375266448,25.835620789174932,-6.574672140884973,-25.293625017719695,-34.9821629595659,-56.598394052466006,-75.86940945920533,-78.24696258717412,-74.00076476482735,-77.35637174791344,-100.98972354389966,-123.61310031179758,-70.68876252611103,110.58924616495604,355.6161175260076,458.8430124638461,255.88640341201355,-80.71463599525725,-201.91830741812618,-102.81667451474385,-49.824810257680525,-79.84908189917847,-65.40850768677535,-29.63291121481233,-31.20192676286593,-37.48946448379311,-29.964247445733278,-14.352889646290961,3.970505751031004,2.4079283652187433,-3.5220994220713973,13.923432792322597,14.074690683693591,-21.354309902424742,-32.964063682529975,-9.767663642198977,-5.244494136638446,-23.731128888552877,-27.68354011614282,-10.529882092769075,6.417339675939157,2.9148221477262712,-17.482766985995788,-17.85727525055283,20.531852767245432,56.999480448288615,54.30757184449168,33.05940726043694,20.7939532248921,14.348310187910334,5.592112266797107,-12.442821989119299,-35.586583971529905,-35.41679472309603,-15.139947954981265,-18.24629549392077,-38.2135298120086,-34.60251938760025,-19.280871609228598,-12.268510285931248,-2.247111888387785,0.37944966789938306,-12.53109898585855,-12.483009947665328,1.1464191308093596,1.0364738920173497,-5.7568943037041045,-3.357217437486341,1.02579545918584,2.468429772581983,1.7641853756717758,-1.4063509195378323,-5.468965450343397,-11.76264586208882,-12.437053329944774,2.986260036955837,15.121135335192932,6.220019002453742,-2.1867419930788152,0.2783008388998205,-8.997297468193944,-30.458633766876545,-37.68861341054546,-26.983038563246847,-27.10453318229977,-53.651968656471624,-74.0525912842334,-67.59611211561716,-76.1847167684738,-101.643792800283,-61.45446393157056,80.81303304424223,274.9094358892733,403.20754590884474,291.589835821715,-26.526467130411568,-207.57013136709753,-115.83260352764975,-23.013604939188806,-50.82806297858723,-43.279635587833454,0.35743982490693327,-21.7174094354966,-50.541577272369715,-34.67164341966934,-26.60694473589408,-21.236423498652353,5.152272177720169,3.2502443760958855,-33.69098537495665,-42.26374397936253,-19.500137049158717,-15.015094942971052,-24.282730152153995,-16.064866305102058,-5.679469137860423,-12.73064881389112,-15.002451794748008,1.6445167372858978,16.451949945504754,17.756012300625386,17.25910336509433,27.0832343385688,49.29593233561482,66.20114891618695,53.87873226919503,24.939668470155233,13.102889747202878,14.17230458150063,1.1667659626757283,-19.07797396303814,-22.454923141028228,-18.203726136708212,-27.921046674983874,-36.04275689991967,-22.68760837481947,-13.413176659471713,-26.79882421855147,-32.193465437211714,-18.471155981296864,-13.641193804934343,-15.83636731119234,-8.331647337259803,-7.659581753053605,-15.265653925901717,-6.351526870990806,4.84567301783677,-5.388022519327514,-11.8351387833461,1.0895791356849749,6.027732604785552,-4.4954744186089854,-11.823737721686072,-10.974631453689224,-3.7723278034598877,4.8345284204115995,5.03047442109823,2.4021211845309445,4.44778521315485,4.641653238262485,6.783671041219691,13.757104340964773,6.273148127461667,-17.023723615904498,-33.543425426690106,-45.46507685344975,-61.64358483250007,-63.67710754407619,-55.52350252430018,-74.94776330719031,-105.59810226329098,-60.30739329599551,111.26343434762245,328.00227731381426,392.87071705158934,188.0033252533333,-103.36027675201444,-186.77812341665071,-87.72644316281335,-50.0026100462008,-90.96045572476686,-74.30190597047286,-27.435642239449898,-29.101509317535946,-37.53679383359369,-18.61245634950816,-6.304497469910654,-8.960569134514127,-7.722299180189596,-2.7444243109286326,-5.392245920429875,-15.814677830376864,-17.27072151701457,-4.171686211198496,2.131066802637756,-7.478566901139438,-16.444174181976464,-14.55768666213602,-4.15826291787055,6.418367923634426,8.911054990845125,12.045125491452755,22.93326012636358,25.7568306555877,19.818629874650888,28.174200802372596,46.177835521780736,47.017929986321704,29.950034566642252,10.984399295960493,-6.066337050463865,-22.311045219195936,-32.288300061432494,-31.978530349348148,-32.50807955713764,-46.08244543311133,-52.31903463142301,-25.37933179054476,7.475418381606245,6.886644075290679,-8.072068453723286,-7.441785404952533,-6.068662579112274,-12.748471757208735,-7.617331734912902,4.480789105048828,3.492465533162852,0.8811015477606094,6.164334086920261,0.7032981149576116,-12.196562226313633,-8.53126981936635,0.2791778373082252,-8.371203721018581,-21.395146229166844,-24.317694155893022,-24.62729843821196,-22.52456779851182,-17.83725386818797,-21.471677488574358,-20.75921895323929,5.229608958166404,29.611344055005095,16.49285783642769,-11.959053002951267,-17.28984601793313,-5.128999286485621,-3.914832021308987,-25.77849154640913,-58.532155910853156,-80.46976398493165,-84.25395001055068,-80.87820419551127,-84.03285882696616,-92.53044180987902,-69.08094896840085,55.89031284006137,290.245428645386,452.2945581618276,302.7774474226866,-62.93873931687313,-249.16327701560527,-149.56606101778095,-52.90626547778716,-80.69280010961933,-82.40872469827445,-35.02934133856511,-28.878850961305353,-36.705350241992335,-20.33358887040169,-18.952248680807624,-24.493884114353293,2.4333518431656653,29.92464828035728,18.403566732967235,-7.894912649287598,-20.007850299984796,-19.646282028765576,-8.709626580997945,3.9181260158751634,-4.7851597526601,-26.140512954417247,-21.510740687154012,5.1830264741536,12.950728915251956,7.58092416454751,21.788980980472747,36.94600020482851,32.33597968336479,36.79591014982431,52.695275483522046,49.20160430320491,33.99026558445489,18.53058218285373,-5.665039652035752,-20.7018399491796,-22.80145516658635,-39.73420476487217,-53.58982363725535,-35.81322821172217,-22.261058730714787,-40.47566657922083,-52.05225384230581,-28.229932550685362,-1.5520213004653947,-5.53752160679327,-17.067119826585273,-8.054605752264077,3.5747312283766526,5.448152545265538,8.655279156735213,7.15788432715509,0.4828067010126329,2.7165183928856527,3.824687122468081,-5.499255100676518,-11.266397195912175,-9.201165050461858,-5.5252257015986075,-5.507982541167419,-11.041623842813365,-9.231904162535205,0.08289996428840674,-1.5630108966511767,-3.9268848681358577,5.439918956323426,5.797825652608875,-0.1485378747413577,9.653279172700701,17.286878485527556,3.524311245345803,-17.726262987639736,-38.40016524606219,-56.61413141615052,-65.64783558711899,-69.80702221396248,-68.79889845588828,-63.20453875994654,-76.5667670439573,-97.7119269795172,-56.5636193590331,87.99974766577088,290.0477665122206,404.0875124272948,264.27664542076394,-55.067079639314834,-232.3683605475855,-156.72613621883153,-56.90096501361809,-60.88035164718919,-70.21221709471251,-46.41480304997317,-31.882863796289683,-19.701366968653684,-3.933208414353942,-1.159158124448858,-5.160821773958162,-9.462351864260862,-12.239136998632771,-5.365506635608654,0.45496295603106063,-8.510807038972134,-19.0497912854826,-14.774212671409654,-3.2081625393187423,-6.296136368714514,-24.732869597375156,-28.76624825596415,-9.827028944558474,4.927118357767875,9.719187772631688,21.876757186291492,34.636015367308545,35.90929856415843,39.98907124563597,53.18826931364284,53.607232834701946,33.18356595091114,12.72941807113408,-0.11052291686773419,-17.90742729046087,-34.78206226430405,-36.08902173298063,-33.680835156636384,-37.992496106558924,-33.16058368647398,-16.883986924667017,-5.681211691211187,0.5857243627682855,1.4886414206048038,-10.896187322120802,-17.04702480706967,-2.698653831779245,6.049424810383032,1.1165075208072146,0.980252144046247,-7.064414490794306,-31.767581416910787,-37.535152860572026,-13.959086499978088,1.0073546581285875,-6.439004582981237,-16.268860682574672,-22.970396109472677,-30.824435639771735,-32.07679492494771,-20.427444047462803,-0.01740210471684378,17.008040855109574,13.697206759907827,-7.468110061701871,-18.712248481323687,-6.917763671585886,12.73201682013169,24.577970371071814,24.314825788287585,13.372304746809279,-9.089546437412114,-42.49870834807933,-67.75774491805487,-67.13780181502956,-53.20464212146128,-46.525616242402364,-62.28297873352235,-101.06277597984098,-99.83107231997872,34.06437564454909,282.0438529746596,455.63318562323263,350.5344975793051,24.264654080895344,-203.52656430077886,-177.0210432703113,-83.53358623231084,-72.67467814669945,-71.92941094460106,-38.14763153606518,-23.963233879149406,-34.80093316399641,-40.38268195703718,-31.619356263090296,-11.87414505634612,0.3774548124340775,-5.597885542749429,-13.092536827786962,-14.199233985437559,-14.180025803395731,-8.530973908685468,0.08371073301671572,-2.6304382518720786,-15.49829442996395,-17.55003161902072,3.0688208408704725,21.930350245680053,12.934969235600065,1.150627970952777,9.712829965989416,10.411704898240933,7.867055325083481,41.22363692248381,69.89970146218234,42.698050309549586,13.8836815731248,20.370436873711064,10.597262901492421,-19.407021661333108,-24.245863832279234,-17.723379579290224,-26.7988104040058,-33.18902126577078,-22.893335184570695,-7.97304247124584,-9.519409788643195,-32.97533220542401,-43.571394106768,-23.21484373581141,-11.825871781867434,-18.741886098670694,-7.166977525603693,7.414193432535294,-6.083082720459501,-13.232355004702551,6.815892255626242,16.13687792653446,3.1413800510027574,-8.68255045584177,-15.705628525211264,-20.784818547003784,-17.96760397273154,-9.897155192903268,-5.006919403724698,-7.8193150403093945,-12.517336311869908,-7.284784454870465,2.5647008683010384,4.81701913653345,3.7928094138716713,0.5787762736158051,-4.892274605384021,3.376528617684479,16.38751290330842,4.419903088772935,-17.702447230388405,-26.24778730630909,-38.33021256220039,-52.9931355553845,-52.052710589084136,-54.37654015195132,-67.16164576574671,-75.2850536274948,-94.84895593075623,-105.2418581320793,-12.183215697110427,213.77531255057232,436.716067768831,431.6034465506905,138.10845606664188,-165.3680507730507,-200.35913451650603,-91.05417908708665,-68.78723325228853,-86.9362916166487,-57.2395257336738,-40.112497836721936,-46.57466523323883,-29.15779454335508,-13.510603232466728,-20.101437631102208,-17.129817866109622,-3.1644901836562873,1.163228923314307,-3.548324563506341,-15.089024102328935,-25.671787866164195,-16.242473387266,0.13090918833087706,-8.454604686164778,-21.14051410231242,0.17432876571279654,26.64985630847378,25.093533724407912,26.129711998868924,37.91521692279267,27.00119383720058,11.10925608995188,22.80844014201626,39.65246030408676,43.39724932547292,40.83846554974661,23.897215635801256,-5.68309556895856,-31.303724663205276,-50.970974615197925,-57.449012351783324,-43.983505419068436,-32.59872996451457,-35.548612571327446,-35.56666578781499,-27.300318214787936,-18.8304216486426,-6.786827478625511,8.660521836534654,11.544566834775654,-1.9080903586633617,-9.453080751407004,-4.386376371749076,-12.545762847805296,-31.993533205864942,-26.25243111459471,-4.993094140450214,-8.829084189629118,-21.919307203856803,-9.904766921851046,8.143242715452416,7.5582890733729275,-0.028759808439085432,-1.7282221584988413,4.228468710701355,11.863620737927512,4.854795765728737,-10.621356786310198,-5.656209549810521,13.841037172189257,17.252984066489923,8.614874198714913,4.986106733288006,-6.042782850242396,-31.61333493862679,-48.036335349133864,-47.364158423461504,-54.82093333342925,-74.17209235106142,-79.07564747273727,-76.51695106478357,-98.03323282641273,-120.17327585623634,-68.31795079691616,109.32714210522818,358.9019137207982,465.76712843099074,253.24079951587663,-93.60404707515653,-221.97999151003606,-128.38688014844257,-67.68019363535495,-83.83367925009168,-60.828331599191145,-20.39320789183126,-32.140101552984895,-43.242844881771745,-0.2817983672931028,33.71165919071393,8.118993231920202,-20.34326644916113,-18.592003613355573,-27.90471649030892,-34.15237755252444,-2.6534085432803316,10.643086866106437,-20.13219173136234,-29.523509275371076,-11.869448817662803,-10.908112808699418,-5.217669728522797,23.050731148841102,39.37847789533586,39.32897998239105,44.63762116163413,47.081809354989325,38.16863878424379,33.434142313985056,36.84279412408617,30.18656957428889,5.969105014119324,-23.010295725630833,-48.8389481659122,-68.564467148011,-68.33255850725554,-46.7528602895371,-26.816130028047997,-18.056115199474725,-8.953663181735163,3.1168120658288716,13.875793614148517,21.26922155090341,17.085761468841962,2.42312710992819,-3.7054352280137284,0.7782146282043465,-1.5033314789712815,-5.620666342663485,1.7534670556988434,4.06695627062653,-8.288239839407499,-10.692393760605757,1.1543720177225172,1.222652451149667,-9.459977063023228,-11.925596385672234,-13.928217189532683,-25.184062914713476,-29.338660015963143,-17.73877334808905,-11.206788035428684,-21.334383393480113,-20.047749556792503,12.267104677134217,36.820683843850944,20.9912522568973,5.723124003635568,20.14114330128303,12.950839097386456,-37.34114341362874,-68.67097290979616,-60.10373213362352,-53.34072786490235,-48.40964699162175,-44.18087776708094,-86.13484365831746,-142.17014181222794,-99.5513340402815,82.83102958434918,343.4081756761384,505.5731333924045,352.1434218677441,-20.352375879673566,-218.36262180383787,-147.88603842714176,-80.7148920496279,-101.36286991400812,-85.27360129324549,-47.55196408895965,-47.606078909320956,-35.588726491148165,-4.957302143017568,-11.843963069513535,-36.738077928418136,-30.524859331950807,-13.564678090647366,-16.865437301827598,-22.28958460901106,-15.984777340600175,-14.897991593703377,-17.971887449240764,-4.4988108488126946,18.578925063316092,23.678549299777412,10.474575103287044,7.822583691960111,23.974764707730237,35.979235740154735,38.58570963135654,42.03581928430898,37.95422670967393,35.817701407592025,58.42966169504203,70.68148386800564,33.93597672869852,-12.575974899345464,-31.909652435572976,-41.17570072257223,-48.30890963723273,-53.916356274563384,-68.54488678174314,-72.48589951373367,-50.85561365798878,-37.091378116003945,-38.87937285459332,-17.879915008030366,14.956722168056062,8.08072643582544,-21.403014918984162,-13.945331411227563,15.436239957486123,14.768172151315746,2.7629235658313167,9.160876973935668,3.182413609244998,-14.528447844276739,-0.4732723606604923,21.104505047962686,8.591116777467832,-9.123528770967173,-13.43368547661807,-17.187551187649653,-5.137020950763647,9.876982314960973,-10.711527662749226,-33.91554491133332,-22.25372892953668,-11.991869464922832,-15.931786112700639,-5.077501062984467,10.222581872899731,14.346395632569056,18.05494637046333,14.256948165403532,0.32167223884493445,-7.0220468534488525,-17.404659753777356,-37.90407310577413,-48.763886080435384,-55.95674074190667,-67.45417924888538,-68.29722349910867,-84.38694823466976,-123.1615200894324,-81.57167274544733,115.60578832842742,362.84249917301435,434.9287024602174,206.76801180127978,-124.51354693733485,-228.58546650081206,-123.8011522890506,-70.40677215678147,-80.89676835472994,-39.96187041650828,-11.272798519322407,-37.71740559080847,-35.8596121320612,-7.687093359033369,-8.414302716422007,-13.329385534346004,-6.180508095425443,-12.386601591980847,-19.415356629347997,-7.8233916972354365,2.371662952329892,-1.0809949758851598,-5.0016070925015494,-4.147202700011186,-1.3205188823454572,3.8499157120180163,8.029419078377934,9.56094620733031,10.681460440211962,12.159153677447167,24.88249106372017,51.53484353955152,62.38578979068762,48.25506802515251,40.138688544745946,39.58226340142632,25.790130020078315,5.252245765510931,-21.493192718469093,-55.74250557726447,-66.48787599259637,-51.55460807169564,-46.087622157957306,-43.01550567036463,-24.278856317950016,-14.857437453673398,-22.698766185113126,-23.228450366400104,-16.47549016418934,-18.111304711027163,-25.96607570554193,-29.073645848973044,-21.46514399028116,-8.170926838934793,2.2416251694313942,12.328482343525856,22.239801215068915,16.013114929501743,-10.963096044077894,-28.653742834676557,-12.477801509180855,7.987491055013072,-1.3984999139018282,-14.56636835349126,-7.383068054288941,-3.013490504296504,0.31716977723810036,19.634339361315433,21.77214454614564,-7.858734788054868,-26.13443639843862,-19.4763203883923,-7.980444216612323,3.9604127869509185,5.163439147071234,-7.0171744069669035,-5.411919356523558,-1.8772041295954285,-35.95084913047825,-79.60691129564098,-85.25223880528722,-68.60229361047762,-52.822162632893125,-51.755544798806,-98.7000472459463,-150.71413929511297,-79.23788049196244,153.80194496027178,429.7946863587325,533.3810529702768,302.88182550572253,-85.06527989789419,-237.52837688502098,-125.73252781182121,-56.88051974194766,-92.80018993307608,-82.80721796580572,-38.688153761339024,-29.12557710264737,-24.200401738193317,-12.21503196005511,-12.649203454590513,-13.25242665486659,-3.71831314889988,5.4535984014611305,0.7934713222234051,-9.91405139885364,-3.0531337919229675,2.9619514896573214,-19.01903411282977,-31.37319754866084,-12.729285815902363,-6.408897341421705,-15.415567111407746,0.8748019116875838,36.113642349731535,54.49075666798711,49.34229352023899,47.40835409703401,69.8999793004928,92.63224636320076,88.90295767351097,76.3006960569387,61.353540678148306,24.67770187159371,-23.14734508292616,-58.529246227595614,-75.9218201188293,-74.68472871855752,-63.36174010328821,-45.695519138398765,-17.298282858533845,-1.8390360725223598,-5.829489150819171,5.493283219270843,11.867006525411375,-19.11681314642442,-25.756653220175515,9.37985558644835,-2.073377283603868,-46.636766582200764,-25.502235576080025,24.97557943557753,13.856322875568264,-20.932534170535845,-12.635037792711435,9.347191770670072,4.117145547659213,-10.457345789672196,-21.468085795582446,-41.474443134579246,-46.33048873850447,-5.119416749864209,34.447523754925825,13.393860945413437,-28.120193448655428,-26.945782794114812,-4.517401861842764,-2.2811601763485037,-8.798998116022986,-10.999766712783021,-21.183376568044935,-35.91845428749354,-39.265901343704385,-23.728559329837328,11.088345465910727,36.66129107647906,18.14720011502691,-18.23235845708746,-27.793414487615884,-20.399001372036416,-19.027392718424196,-31.514694485907963,-61.75620163133068,-81.17293221672226,-72.76599362282505,-77.30322218378704,-79.9344241538816,20.466356723396643,232.9763227411602,389.45111306434745,298.48772986625846,-1.9732341667063835,-216.09924664550377,-175.51482844694664,-64.26586477959219,-48.15012919541413,-43.08662567947691,-0.664974893538858,4.694821386173288,-19.647672553237076,-16.941300982468597,-1.1571387128794726,0.9745717861076875,-0.22153269742208792,10.70466589374531,21.02322199979924,3.520999042757074,-22.34774948919913,-18.92659046484144,-8.259734557327722,-11.74451344279203,-7.548727266665538,-7.098108593030361,-25.706367536500956,-27.0866686737791,-9.768281259854028,-8.833091680337269,-3.091306109213296,25.159363641237647,33.50373491155149,18.834013729649048,28.588267294481174,57.34378423609923,60.48044754573726,30.407635415916058,-12.14896428948176,-44.556078770356365,-48.4658334946733,-36.16546965159876,-39.593980147331536,-53.79908340182952,-50.28797077110279,-36.21678246447544,-29.636273536876878,-19.520755306277838,-8.917161100215669,-15.627900953354192,-12.774875114440785,18.922361640307898,27.732795337392556,-6.298798444546028,-20.47877114392838,0.1187307898946699,1.0886848032952976,-12.218550514959054,4.482233631780901,23.262685509780255,8.223342940768111,-2.664090974909694,5.466175823218318,-5.251721886784457,-13.165954293666768,14.765587246364616,24.387086544650394,-5.368379706281331,-22.121266158444463,-32.423807496465116,-39.49934836239481,9.36974272842884,48.84508243057758,-15.123845338621482,-69.06271229798811,-7.031757114881813,55.38862418113705,31.992700667567778,-4.787436261662489,-6.5940681662375695,4.351527627379127,0.4611038228073827,-28.43427202237213,-47.082190749874364,-33.515983715476665,-36.76374760118186,-71.66295646762174,-82.37608305035158,-62.32797835306652,-66.62647270799657,-109.31361099535792,-126.78898759671962,-30.266863091878378,195.33182898340925,418.4235443086834,425.01574856793036,150.6760680196835,-159.49597142742502,-219.12571171595422,-96.595726513289,-40.839888934454976,-63.64945987674489,-54.878856204199614,-40.56026934812878,-44.821324110836784,-16.398643438944568,17.976936047913142,4.459288613648859,-22.801876594244792,-26.88943772531706,-14.342380535155026,1.396322748546531,-6.632529123253436,-27.68601727885475,-11.302089013974385,6.4999325534333146,-31.870336063535788,-52.493574095226485,-2.7795414723044853,23.726388560955762,-12.740419818769517,-34.03771647225089,-12.461762801166948,19.021061976648156,41.52397472020986,42.62476864285471,34.82252844532057,44.31198900678177,56.82920821342113,51.58066047352109,24.97068083663238,-24.35457421694115,-55.55533426314077,-36.17911824263213,-22.2650461522643,-39.75759237718104,-35.05464896680378,-18.84339404711906,-26.54428617222556,-14.537678580820973,12.3437871885669,-7.233272200713262,-27.05614340193971,10.300153945708345,37.878760764554144,16.83019132145349,-0.44271041163451486,-3.4442683073589286,-11.03267937340047,-12.311582702589003,-15.365288909720205,-26.447288821075347,-20.903747415454752,-5.689457196367208,-3.282705817032406,-6.569734318407569,-14.727268617425448,-19.89458924993686,-3.1095999450232723,6.077979842091244,-9.918250223264383,-10.038916278687573,-1.219340006042092,-14.44634984594266,-15.062955500368524,-3.224540715140833,-19.657392192648892,-19.59987362881072,24.980255876359934,38.461480469714736,12.156940616011997,15.615480848867785,31.034528722161145,11.826974032326735,-11.725069702026559,-20.963671508569234,-35.96191232724688,-42.16599355052453,-31.733547405721595,-33.79634072879917,-41.89172506224789,-46.31743738038371,-79.65771311986768,-95.20899926109547,16.690232156552817,213.72180426163214,326.8664274235598,258.45024911404374,32.110793563509624,-187.09752197935936,-196.60408811865943,-54.94864531683335,0.2382303333395157,-44.28937334745248,-47.15316033878543,-20.367555449314164,-27.45643730642191,-34.99698078858901,-25.31180764228703,-21.19633179303615,-14.335416772985274,-3.6802033861170553,-9.450422199073643,-19.050495494102293,-9.117328737478847,7.635533744335106,11.141015528781121,4.609817133823803,-5.388531908017739,-16.478580154649233,-18.12443476746379,-6.382796180478769,5.117232191171428,6.786621868998019,3.469427425438978,5.793092958183241,21.1314017948386,38.15747502623502,37.29255152731866,30.173411091056337,43.46696742533857,60.711380850256226,44.3462674835014,3.993032665766406,-23.627237459993733,-32.21067383090995,-32.475642126969916,-29.575602962738255,-31.578014112237618,-33.49727738779312,-20.56998024248092,-8.282692775932754,-17.56597938504871,-29.03366332010704,-22.94375284272568,-12.646714122324575,-6.024001036121109,5.053513795589636,14.658635068123962,9.204936096916088,-4.966111636997627,-6.4355532749077575,9.956948023014135,21.89238731990216,13.20756193407823,0.6399175844395462,0.456917432440628,-2.511058274838188,-16.275623549583475,-16.35044873243145,1.3233590152948729,4.060457998145704,-13.572311071164911,-25.965713796547593,-29.615832288603524,-27.725894043032632,-13.970205864068937,-4.179302172042469,-5.0698251017043265,7.793045850008921,17.99838677017893,-11.59448818341504,-42.873994862952145,-31.302837362962567,-22.491683364382904,-54.36006952929159,-76.96949932888576,-60.05894085201089,-58.058383986082525,-94.78930017720333,-94.3356678628664,16.05336692552747,224.56663792285917,420.99375395859636,401.3216709066636,100.55776301532673,-187.7463679732548,-193.1242096385726,-79.89855472873334,-74.96215601885308,-100.98800376629214,-77.85443493954786,-76.26910445208145,-90.76972465792892,-73.17138121197388,-59.55030754002335,-58.20722817200915,-30.36510015022266,0.9962352374737087,-0.8687944446747906,-11.528602922923241,-5.613719227690577,4.972810302670471,7.785828438226805,-6.438344060574712,-33.1176150961433,-27.37841976778991,14.243875278252478,17.060989029985453,-15.918295245048137,-0.6207069893353836,36.69027780981987,27.95818328086717,21.606198872263416,51.674362987325615,66.78828770904295,60.201816836795615,53.72670335907414,37.70866200566545,22.090786273257223,9.54037022593718,-23.41221216016641,-51.77429210166968,-47.31014409401212,-44.48991074875489,-51.626888761896694,-32.85973498067339,-5.59665454392011,-8.985435976030391,-18.068264700483248,-1.5681367553479877,13.271159742796236,7.384902737212749,6.012394675266136,10.55478240126964,1.1173605053105273,-3.775784733258195,9.093208857102818,11.232325808957826,-1.7566735112181675,-7.731655430065019,-10.73795902982312,-14.621962789771136,-9.934055489012877,-6.034416337280051,-5.741964243054486,1.223850076882309,-2.2421024420524276,-21.451397372572707,-20.034932331247003,4.860674352691691,19.317544694806962,21.230836997635087,10.276817272680969,-24.982935896480434,-49.591322715108404,-38.25142984498099,-32.1037423224094,-49.176594930215344,-62.71956121597514,-68.08464616675496,-70.52538045198301,-82.68577425032228,-123.96313054084952,-127.50596993358174,41.95161352807135,374.4036371512028,594.8339048694493,418.3812379934714,-15.459400026815224,-253.87619960225345,-182.57194686452956,-90.85575373597379,-91.5638428575462,-69.20059731173652,-37.28812770930173,-56.613349571887355,-70.52595179099303,-44.86831338221434,-11.415844536043085,13.974438484959446,14.583749172384893,-11.600745301982013,-19.18118729773824,-2.7973183657434433,-20.664816803112423,-66.48282203396326,-62.66621852177346,-11.552483644447449,10.56195948869135,-4.167015290342466,-15.525501830205416,-20.77402943871281,-13.103405897474353,15.772226658803351,21.81845150479474,-1.0635591717411224,22.022840861284436,90.3200192546336,105.07496909509132,54.98827709507139,23.19790087033343,20.2155789721645,-2.7424552489504705,-34.19109852523441,-46.39957775901301,-61.33891722448731,-81.87909174584543,-78.91970126238013,-59.18358430111073,-36.86292743980447,-12.569710038459462,-18.448462382329097,-50.96453456212128,-38.24563545207817,7.724665726900216,1.245959030922343,-30.541972008899762,-17.170806822030965,-3.2680286374300778,-28.343293756963654,-30.18497547515071,8.896210396049767,18.910442732750113,-9.91667678651466,-14.495095210716958,7.554490959600891,11.70866330956435,12.99437617635328,30.977034844236993,22.53442798752424,-22.935425155474963,-56.405925456397284,-62.82610067000522,-62.49289383204606,-66.10454332184148,-75.44901408982778,-85.79733751670275,-102.46027745685416,-120.7424683132393,-78.84227311758372,86.71512951516293,355.12797501268705,562.8950056496003,444.58608021222517,-0.8805708278898265,-332.4485418725069,-278.5603240197698,-122.85952359876237,-102.84009171669486,-86.31100554744646,-28.545611995462153,-35.48921601030141,-54.99692265063393,-24.119022711048476,-10.813560087741617,-12.666872316480228,6.771983520883532,-2.3859789552245765,-23.55809976748497,-4.900340063994504,-5.29098917613692,-30.521482721272765,-12.061755653801923,-0.5136544341871865,-32.709579225497414,-34.78509884313642,-16.413059549546915,-12.40047610388094,21.86468659977202,55.06775256710054,46.32069761291763,59.55006523121699,87.58636106633867,82.88771723078278,91.23773649249645,100.15479160500229,58.1237813816887,15.940255101198884,-8.538905433826766,-31.241461271820228,-7.252189028734117,3.846714766746363,-79.24713885857916,-123.82983479473386,-47.75076366378853,-0.42289209928055627,-42.36158369684669,-67.26001203734359,-30.94734934558963,21.151660588287285,35.78145739145449,12.282338600528513,8.755824795668321,25.05570907237144,16.635756924970092,17.037896939024016,43.67739330231517,36.46576613243029,4.218925713415773,6.905363346626032,27.65383034137244,23.989519059860775,-1.8417020728676974,-18.807251780133413,4.682219687123087,47.78616139610466,51.40134853788436,8.226972048008953,-35.59533190850271,-44.70620155559418,-36.57046794692245,-59.07570367092526,-88.9257522190469,-69.57715628688987,-64.51955245803083,-133.45522375503262,-144.1497729625441,55.8507531093295,421.8900638514946,696.673964378758,559.0774389834108,50.78722139429604,-317.02677821296953,-271.77573849010065,-116.01669331832912,-86.55438112918955,-79.12156761164015,-47.533234605897135,-34.98042476560453,-1.8296779899458464,37.426763291216254,17.915726031902842,-17.901609737506984,-20.229063437680896,-16.8277415827537,-7.823262633354453,20.963617225632078,31.068883428499884,8.987285298435026,-5.158278368302412,-2.7803401981510945,0.31475211584613305,14.289529834924558,29.70686296015527,27.226234066883535,38.42767563229385,58.72051002246208,43.19422115039964,64.26651558650546,163.4436389103205,172.79436815485505,53.03447851884121,11.30015889905264,59.12106486596106,26.42745119658899,-49.15939002779125,-59.48559989626906,-48.58658303151508,-52.183280407058305,-49.4917576624971,-47.979416377253735,-45.08427874243363,-38.034631040029836,-42.32229273089263,-39.95911470037524,-22.130517432531022,-15.439903601272285,-10.18574050894642,7.346388217684228,7.2158860277507415,-7.9762310701399395,-7.405227139441321,-6.599990071745485,-12.69218855662514,6.731847525546332,36.86194535204824,37.2608231006598,28.974001837104097,36.4598652795909,31.939714738333482,15.019403632408185,26.903477101611514,53.06899149587166,39.69413750811312,1.3755421563989252,-18.911412084952907,-39.086314534421774,-64.41041188544355,-59.28111829037028,-54.473389270674105,-85.89146611270351,-96.72191627917417,-85.01311187996872,-128.0841410435794,-166.5902252188013,-27.200811740454114,334.6404338977695,695.0768437581077,659.3304336637377,152.57875130316305,-302.7829271340895,-297.70871841268854,-119.0971771039803,-102.65735015596198,-121.12658004781927,-66.62619619911867,-46.914353458744635,-51.48128983642737,-16.50570974894604,0.9887117741236153,-13.94459780440524,-6.437626005286417,9.538166878544644,-1.798327639981693,-23.509329923808668,-28.480605306716903,-14.454628790538163,-4.247946012233339,-14.16983507828699,-23.474087449512965,-15.359735641225786,-4.801175367974443,2.480471939914641,16.090590957688427,32.77465872999246,47.02325575709657,60.47578947372328,68.4103252779831,69.60713544204296,74.56871414632573,75.20906149131046,45.23971107372977,-5.527392003940543,-39.62614695282627,-57.43291351715215,-74.60795662723099,-75.89691238054418,-62.68200503165832,-59.66345863687453,-56.88372108052046,-45.1160371629617,-44.80906447374532,-40.708575874405554,-10.900776939172538,4.817583019003806,-13.129166361987643,-20.64236119947488,-6.558648483144328,1.126126440601631,0.9926255356354581,-1.9417647488422212,-7.755136696650965,-3.0034071203214836,5.093470861612307,-3.1860371411964046,-12.188763139367932,-12.938692431635054,-25.479091793094888,-30.156579662801878,5.070057191565852,38.46240623260594,21.24463491978539,-11.20976273190622,-11.464032655024809,2.7913929737184695,4.080517652968625,6.145985886710046,17.781676994867638,12.400290072516714,-15.996493822678799,-31.379383179069272,-25.187242416288537,-31.242212382384874,-59.11899639466941,-80.47251157367074,-71.90088634077941,-57.20636759944731,-91.76881653469303,-142.84280089516562,-80.10755871392806,136.22327036446495,397.46594590829363,520.1145930876321,325.6831864727973,-74.75989929313337,-265.6874915540557,-150.0584483441915,-62.05938300900805,-95.79467319733416,-77.6061505906548,-38.91376332518989,-57.81373810628672,-55.39519872268291,-22.451613180528945,-5.238544300106556,16.659963538283076,22.352873363833794,-7.2872068341954375,-13.266721465705302,6.133267572675679,5.498299225290968,3.5815008995734536,10.323126263460601,-3.037316633676795,-27.786747502781868,-41.20904045230305,-37.43067015274102,-12.415573940506757,10.442841720755116,9.936682854172066,21.502452369801233,62.164606980644,82.09229435868892,64.46043254861638,55.666142509428624,70.47643281155601,71.12683263027131,35.62629581548024,-15.493224310063216,-53.30490279018008,-71.52898559630303,-76.639533446321,-70.21167240497633,-57.16189191356659,-47.70732022773822,-44.22594380757256,-38.62273412919447,-20.732429742338013,0.9111351909462044,2.5079918890886077,-9.026647045850073,-5.628608256003417,6.010877286109231,7.845069036501561,5.8583894893425095,2.0397303809250005,-2.3969223059239475,1.7404738952153362,2.850353885586909,-5.266670574963909,-4.974642071070262,-2.838806593588231,-8.787951891347767,-1.9557887520477841,10.161883365692528,-3.3176142406375675,-26.42812446692539,-27.485493819780068,-10.338017662531488,3.5487204069770044,-1.8470503020513576,-17.21586561473412,-18.90849596998178,-11.823922789508437,-8.623152671115548,0.31453864314771884,12.300346568775273,11.10705702670949,-1.3385350624506795,-11.330448338431477,-7.8384082049373145,-2.227477070631143,-20.197666162907446,-47.957161296886014,-57.54150392541377,-61.29682333183935,-68.52380880569464,-79.59415419510302,-108.59257399670265,-108.14431765979884,15.518291452270674,262.68582500583767,486.61567552867456,456.86456662651926,115.8608693307243,-209.70751943549678,-216.75370735222123,-85.8331044622863,-81.00211590238621,-113.48535872293353,-73.33263550691248,-45.058971830957674,-50.13526404372563,-33.201185896297204,-13.997161020624866,-11.815613511586289,-5.5032971092735785,-1.7628815860687492,-7.079716949394225,-8.169356860589346,-10.172216360862828,-15.718495203154308,-13.248269298820325,-10.542657016542783,-15.783652917928816,-15.609260808786132,-7.84603820246741,-1.9821517557372819,6.1703357905882115,18.485125497295627,28.97189159364327,41.33643702004624,56.10747095097015,65.0734167435289,69.85130981170667,72.36345412940948,63.72831368144102,40.80145731784635,9.98945687387129,-20.036853715685464,-42.265355477903114,-58.96148021447188,-70.0962548655599,-65.34600081750371,-50.995761718933494,-45.21112376512548,-41.28978549718333,-26.77689429742302,-14.434783286658504,-14.045124158385377,-13.466342874179432,-5.626048615759604,1.118290324961432,3.038746702289856,6.003817418575272,9.233956598716965,6.66442296322777,1.4330971820201839,-2.5292903975190146,-4.236402301530584,4.513138775666016,16.98451512822877,8.988378872486694,-10.90588997525858,-14.157502319218317,-8.854501064327017,-9.374434041871911,-4.787571786011217,-0.28855886545225573,-7.759554904824029,-9.119538669081717,3.1304198006978625,10.015405241134857,9.987724870607337,9.458406920117966,1.4256679950156341,-8.200591420570468,-5.081108236511797,6.1505399536680905,10.810831761208206,0.8867195529699599,-11.383934464405094,-2.7256197577038623,14.509785760617989,8.979764305775142,-7.638928080351747,-16.84280091988994,-31.393079153648916,-43.781858713449594,-42.964129884119906,-51.81904199429171,-64.64488582720558,-69.51298338346109,-99.72314465781378,-114.00079339202739,-6.800324560367002,198.01528039147524,380.30440833904834,423.65311848353076,224.75295384048425,-94.8734102785307,-209.53212270735006,-98.05700305561567,-42.33109392301982,-83.21699695369831,-71.605408951917,-31.883219356900323,-29.622614686843672,-28.438722154581786,-25.847199766194493,-35.49532835534464,-23.64763637817904,1.9825603258451645,4.146522612421533,-2.189110219000227,1.0745744664395787,-2.2193941818800003,-11.168899850287168,-13.710804541644265,-17.509338468066133,-17.7983311267511,-3.3683264216214166,2.4800898057782907,-12.772921862325747,-17.315715509857704,3.7895914180750854,36.375229306852816,72.84362582178548,92.95644369962655,76.84268568302575,50.685004710727156,39.77648324374212,24.755320156943515,-1.6524858593912555,-18.187493303456197,-26.988687007500467,-41.255286103733866,-50.27820945805734,-48.97148459078851,-47.7724068089237,-41.863229471321,-27.133803938796923,-19.51999470448576,-22.23981235555342,-18.84161626626196,-5.837994165146849,4.173437141992563,5.0845441588558895,5.982492596285447,11.319931221698726,4.70617340091977,-17.794207228109904,-27.99499957388098,-14.962574533144036,-2.8138783631996986,-2.144247629758036,1.6220139443693657,11.369127481213813,8.599338052014275,-10.40285974252741,-18.86012910577149,-11.624465649298209,-15.01721679211046,-15.328041888394907,9.619889725411946,12.748652191053651,-23.85465247442714,-30.117186448438098,2.751359490772132,8.10865697706017,-5.196497267464716,6.891497122362885,15.599259421709608,-2.190797223194716,-12.789437291517793,-10.343057183004495,-18.427802833221104,-19.246225277922097,8.077271822608417,26.654114233220582,10.618363087730174,-1.2844068188507531,5.194834610480377,-7.083215514485838,-27.06820118688431,-18.613182605271135,-15.464023563748523,-47.97945471317247,-71.00504771161782,-62.510322863993146,-64.68178748942125,-88.4930304334918,-86.48434020209719,-8.088514591480518,166.71559867412927,362.52187230021985,382.3426968809746,139.78227288680748,-131.10895822411618,-177.17282007838529,-90.95717238506853,-66.80866309049068,-76.1909882394826,-47.5423770235878,-25.585186989122494,-27.66481441907606,-21.07860944092826,-8.774696846146458,1.4522497459153918,8.06307361498709,-3.9315475301991363,-22.238102782096774,-17.37551661654399,2.249622596491491,8.712739544066583,-0.42936459745855693,-5.971176482767975,-0.6288684729839074,3.080366589106215,2.6173232831625994,4.518170117630699,0.9691671780124411,-6.969431605042272,-2.7587419200175356,9.000207485906957,13.921551721951243,17.132888419172584,29.324227693567934,48.276842265192066,52.93740951050644,31.93292714693475,13.874556593411409,7.950241984247465,-17.887527313702424,-46.04474650724724,-38.868797244490146,-31.98985574020644,-44.20485576190504,-30.173332552978955,-3.0382344485161745,-11.928412130416529,-31.819296265784157,-29.275620417705262,-22.783873289695666,-21.389317724467595,-16.49530585149589,-9.607394680168834,-1.6401598143606222,2.6917427783052617,-0.029233673662046655,1.2739277024285798,3.9446986014847347,-5.410658218074154,-15.165255228415745,-11.16822891912495,-1.3520633365680919,4.007992874748304,-1.5755636787908411,-13.189999701028002,-12.131032582924853,-3.7760464117973864,-7.85311231049387,-11.387955357261756,-4.270858843974647,-6.295483783128105,-12.24049666169995,-3.044299856700075,3.011604909838411,-4.248921707274473,-3.5733164991569586,1.4126948787994946,-3.174634293131451,-3.1637771109730783,0.6864955703374704,-9.530856330990344,-18.9797868993052,-9.253037960205917,5.254451892139137,12.005602719007141,12.048866761017548,5.357769852939477,0.39521089570199486,4.006689362928664,4.226770858080733,-7.794747973573248,-20.980863568958785,-26.800839865980763,-38.85136254489799,-61.49893941276256,-67.42297557580103,-61.810067370773176,-88.73244605007525,-112.51733186745753,-32.767633564462,161.1298785409782,355.88322045612443,376.8882291870228,143.18144699832345,-138.2797286060259,-189.6709271685143,-81.45521407305407,-48.85336677938941,-76.91463353337303,-53.477711188162644,-17.275483897534635,-14.93149875536566,-15.58489490556617,-11.594377258887338,-14.702657586660244,-18.67579205256832,-20.124300305629042,-14.56691862547354,-4.0044472802677795,-10.525324486104068,-31.8730358669853,-34.16910457293247,-16.6599685992567,-9.195374954641682,-10.534615565962895,-4.979694143017285,-3.0216986194923727,-6.761750046013143,-0.021401019468314075,8.157049662635417,6.976539934587052,15.028224193945999,31.987071937020072,37.27680544491931,40.799777045129574,52.745288585688584,51.41552213883569,28.076404340662144,-0.40223873417890665,-21.302579031335874,-29.22866616584573,-28.44775148570535,-33.42388632895326,-46.16515360742375,-51.86915270652854,-41.038853404803625,-23.586334347096845,-15.978729094551957,-14.32967729859777,-4.88584084888296,3.2647674967723326,-2.3225726415010133,-6.630242414200951,4.980323664652552,16.81543385302225,8.057814644272193,-10.331175590115771,-12.853604458138136,-4.883496509064058,-4.714208387707151,-4.183050866571461,-0.023745273973718284,-6.674282262462594,-14.640622198902445,-11.00010745229213,-9.562601094861035,-12.424200360412781,-8.693976968027833,-4.217331616917264,-2.2562322097433096,0.906735096311662,1.1046838468985314,-1.9351528297788398,-8.123848513825276,-16.505800825264956,-12.123148388926044,3.460382411862973,8.219139916633074,4.080010572355988,0.45681313031165693,-8.540456791088564,-11.82188324689316,1.0595138783074303,8.164385180974595,-0.7576595604697438,-8.611639777246268,-10.519771099868617,-8.156093115131405,2.2693382155589745,7.3319122695899,-5.923189105976872,-22.037705893241558,-30.773522322744054,-41.72626036060911,-49.88568425723321,-47.26060504025645,-47.10623283939357,-56.63734703963479,-72.63595232026705,-89.03817173433089,-63.49009388834896,59.350957740869134,256.73038109593534,387.51761405396013,282.4918761871752,-16.75955080633166,-204.50585819949217,-134.28164717978404,-43.42248996596482,-85.26008336755281,-98.27335823999533,-26.84476649654841,-8.112571589549518,-38.55324148142352,-33.37992264687991,-20.910984565367357,-16.27666959406792,8.36938796291455,10.769766164873332,-23.19676557169204,-26.966211787687108,-4.493024752939954,-10.130944134392886,-15.519782289419087,4.401812268594506,-4.0695951877410135,-37.89241957067121,-26.803370709664232,10.73359271354677,10.364295089738981,-1.1667943014980153,18.062791209372694,35.993450591027546,28.527160328184387,21.4994507095884,30.95904752241757,45.906619805916534,52.871361441244545,47.223217172143976,31.65839058812348,10.098057758490617,-9.132360596157302,-17.50806221705016,-21.56814981985545,-30.252493527213907,-37.24067290908974,-36.16925804645725,-31.134802688545463,-23.289397939834934,-11.644315674365753,-9.216028232877793,-23.823492707317,-29.113710412613575,-8.439623866342757,6.5640063080072615,-1.647880061911719,-8.278068700921994,-4.0551459354534405,1.0766867324738207,4.0228889273203965,-3.4196426803234825,-19.207597597628194,-21.167074302196603,-3.3377801012010924,16.16765799842617,13.181969918382611,-19.415462505081592,-42.81713438761852,-19.168066323180902,16.413800312487247,13.93182701811539,-4.687369601426374,-0.2414262414511299,7.715021026546073,-5.407267758331425,-13.816270464426646,-4.615053569607113,-6.051249217416805,-17.0628801657535,-13.341095152226671,-2.3615497753524224,6.60443261891946,11.05551460644748,-6.914090143957164,-30.899323881073684,-22.537768648078114,-1.9509633846488157,-1.4931253393665287,-1.60083897352661,10.57231743483553,14.603633457963543,5.069743381279932,-5.436308628895953,-18.10091578327295,-42.729145975557586,-66.00021293654056,-64.43820962871922,-49.09975511629029,-47.620990955592546,-66.26773998364469,-92.44719456448117,-80.93925725144737,25.838729638310483,213.07946817306936,366.17923678023345,332.0273706148072,85.03770645781985,-144.06465747214503,-143.76017957125833,-51.22285157658117,-60.43592625621306,-84.18154476960022,-38.90759571891877,-25.50245629253221,-53.81542566767048,-33.253356567991034,6.4693228184718485,5.493055331738923,-0.34782673028643174,8.891410518229481,0.37759035899964033,-23.654378201104585,-36.904187590603364,-37.91171098636728,-29.405172818585246,-10.635394374068616,0.9327129647993591,-8.282368805932354,-18.60184483862586,-8.519641073509794,8.277750108287805,10.838845409025987,9.713684032227162,22.617408947752907,37.19953756018196,35.02443543418974,26.938532034712814,30.924237384974067,39.121645422718714,35.29891798339406,24.75360296306489,16.878471285123645,-2.0631387699322907,-37.60846594984804,-58.57478942206161,-48.56967703802651,-36.50757977934249,-37.32422176515081,-30.9666555377595,-17.756230070321127,-20.256297371522074,-29.907602603815633,-21.49951045247304,-9.124377967618898,-17.51029169939986,-26.548543220433004,-16.744936305386105,-9.173710947012914,-9.710169839472677,-6.81486896494442,-14.624152665805298,-26.334798583679326,-11.772646928760842,2.6098091843481157,-15.580774297866391,-25.430422266655466,-2.789779011698087,7.6467236999064205,-10.35996897049305,-21.34080132293327,-11.636716158303315,1.9771789401672315,8.614909807129344,6.39336146432915,-3.450327640859893,-10.906907720565837,-5.825528602576448,2.105334560375862,-6.1804312403033315,-25.145405370666012,-27.604285586976513,-7.824416738696106,6.248022003026534,2.2475289674583028,5.136108142878564,16.59397606227441,9.391387887916746,0.39736599202175427,6.78312104796919,-14.728874515575647,-58.71860381517688,-64.01243658778195,-57.73786055821082,-85.17488510714209,-102.70067770614598,-100.30905775101553,-98.82879589897476,-19.3983230856866,189.73503963697266,391.9617351717174,382.3644601224021,126.94225587507886,-141.80090699546395,-184.0156852881429,-84.40916079657073,-53.85388212341258,-71.23793850191684,-48.975319130482006,-35.40458391585139,-39.135786351841276,-9.474890209553449,9.512151682910442,-14.406688375745336,-15.737850186440891,12.66165578656053,8.625838636589437,-17.655929260514803,-17.685932653425915,-1.4101798192992678,-1.380246060049151,-17.489465497507595,-24.713398314781713,-12.152188915446281,-4.692230093455183,-15.276271760919553,-16.967058947396257,-0.5180344164808712,18.404595807922384,38.724425594484245,48.34160919184627,31.59630726104413,17.23237558648765,28.989063213109894,42.974251665327024,41.27114480464648,24.879071522499334,-5.693637998699888,-28.87301318148981,-25.028443015659303,-16.953198261394014,-27.36514263805982,-42.756930146670555,-45.79727692627972,-35.52923224596155,-24.063948399827847,-26.141465183924275,-30.05685039267232,-15.232766887670284,-1.2546626990385015,-8.813512258526263,-14.582337996116916,-7.995164758893939,-5.516182141724869,-0.9553204150183916,4.723517198943959,-8.99754436674365,-22.239370937328587,-9.160952890338518,6.641809609497371,7.845584313883847,4.106324774636953,-1.9643666153402801,-3.0856389097927597,0.6146090208790582,-5.552047515549212,-6.888323711854859,5.274843662699006,-2.224738072434789,-26.62790464863168,-31.17922256290112,-20.560647551576775,-8.920578508184587,2.1384064629564,0.8295945938145586,3.348076010185105,24.22597248378181,22.0284545087893,-8.706028190983488,-21.67304042722172,-30.87228416064808,-60.00468415572687,-67.50694394466025,-45.623669495450706,-42.31169001396357,-71.2398415525311,-108.70913541362444,-109.22577284781408,-9.074414854775476,197.73955645663438,389.32053234544287,369.4964920002148,95.6401070799339,-168.78042213813976,-175.10323869015033,-56.12524579901961,-39.63361211840949,-72.5872502726647,-50.32618213719243,-31.14305594085034,-38.02549447559673,-18.871631782178227,4.992986460583225,3.6212229503149143,3.093813328660972,0.10924076391862592,-13.20404786968265,-7.366674716287218,1.8046264825183584,-17.330597877875547,-25.1817341493333,-1.426911244537303,6.754540913084868,-7.363358629007951,-13.758628568346936,-19.59237902289312,-26.464566778440634,-11.608510300795905,14.728303653306716,25.179573080497775,24.36899086166156,27.33759387556552,27.67343350777636,19.673552926168615,19.243217653134806,29.219186784731562,24.191558567374656,1.439937952342607,-14.039651215508076,-20.698444446838153,-31.130615567057127,-41.99786324651099,-45.72128418789262,-34.24042397472346,-11.895546837418387,-3.774227153789523,-6.029671279070612,4.964817657397843,5.22326656288941,-22.189909570004474,-33.334783256646794,-15.632430297705032,-4.154101157466631,0.45336166985385695,4.640934576778275,-4.813718656385454,-11.872944239112424,-5.236401206034813,-8.605547635298212,-16.720068676560174,-8.46367172601535,-1.8989546227356833,-9.418494704488797,-12.413924928720167,-5.44462409387925,0.95637855875718,-1.2491552175299017,-13.731718535761745,-18.374607991285238,-0.8873689164241316,9.730029074520703,-11.913840276972937,-28.525744678764188,-2.023330740967527,32.15562757483501,27.73360351396412,5.329984249005948,-2.0701818183296474,-10.548385965731605,-32.366601076721274,-40.71726625272526,-31.132872264179902,-33.75987984764039,-48.28871281145216,-57.81655371833347,-79.04943893974543,-99.73706516777045,-39.86787078669068,132.80526787785988,318.07818082790726,349.73015398036426,153.13808783176393,-111.93958607547596,-191.8443272584832,-94.70312478816898,-40.610934314102984,-66.78431291647371,-53.55636973517143,-15.553591713365922,-18.052297013672867,-22.8308880682321,-9.578134411510252,-7.837929919668998,-6.427038903758477,-1.9197975980881292,-13.07237870824353,-16.087057556118552,-5.321776118790435,-13.985863261594133,-18.013298142055525,9.18806236809309,14.380479321393237,-15.119126408558841,-15.819486808344438,7.312997028787972,3.1374641157104133,-0.7755918414710696,26.5978059697126,37.0896952189744,13.307650981460345,7.110265939247902,24.720512637052035,28.77574434609164,26.615918578569726,31.211386147111156,16.632006874139503,-15.473842176861282,-28.142598429336523,-22.20848120819687,-27.710538234862575,-47.10563872835563,-62.934708652051896,-60.85985047744247,-31.11486099515093,4.217112920675575,1.3671479101344666,-22.677740666547496,-14.674438651596063,2.296513483631582,-10.343731295461538,-11.115956113412862,10.996852124087525,1.5470017941131324,-21.848895321747563,-6.4990873651847965,18.553250296776483,16.410042589786443,2.8546365132103695,-4.869207782923686,2.0425581886214044,12.476487995428585,-5.177911952833096,-34.03053590540052,-32.795702928468906,-18.575276848716616,-15.354201344684107,-8.12469139834276,-2.9667922459596276,-14.27158544226409,-16.626552661955202,-4.719625175374862,-13.422712177561362,-27.61990689678921,1.054088717373931,40.27208816604128,28.559858794619103,-0.9608673550017031,-1.8622547727406786,-13.560081618696366,-48.60933157296188,-49.626499455482154,-27.022375956981968,-39.280550062339,-61.79939845196882,-59.694429212125,-71.63614335726125,-89.7801684650441,-19.173806455057104,170.01472601120284,355.0747320088522,348.86856340794805,109.61238124739339,-141.33671578243815,-177.422577286678,-78.73510983873712,-43.260461927953756,-63.47172113879108,-49.30326078459004,-30.658005722096185,-41.25657508623762,-32.56587135062693,4.234061249232408,13.204322855085776,-12.227130898832234,-20.059167229364448,2.0717797681336982,14.113670790853163,5.0089254675311246,3.8107752533952395,11.172873957522128,2.712813734152088,-12.70545639813664,-15.036561885824577,-15.818998053638458,-23.240365886481683,-21.424905945349455,-6.4365801672268494,8.993972352783297,17.00822475828326,18.499750995894498,22.45580231855135,33.22495011798842,43.905297092849075,51.548516295196464,45.33924678893126,8.981687108057848,-29.580606087974203,-29.34858093751412,-16.308122262399557,-33.204447525562415,-59.094202399277364,-57.491085288468604,-37.2776788369972,-27.598898095173777,-30.89972377994925,-20.340495916086297,3.7691901334151403,1.6964877531653286,-19.04111163552847,-9.3991895924553,8.497317595482421,-11.89257855818003,-29.427783977671968,-5.851538956951504,11.245295193214739,-3.2593084574234936,-12.787725336983776,-6.0578340153562,-0.6424577742339963,-2.2460440228370295,-10.01141717558194,-15.488936301597848,-13.300301560343335,-12.871511401350658,-9.604405373057205,-0.16829057130280844,-6.551364684424733,-18.035455814001416,-6.5684596006169045,-5.888208096943938,-31.07698248658832,-22.851111735455543,13.791952991244365,13.73102727546042,-1.4006405571233955,5.592711024913024,-0.6857854340475864,-18.85230580447837,-15.984204148091916,-18.81944283428303,-38.25207079142977,-45.14842475819659,-51.59234492976456,-66.14406535794681,-68.91354830685567,-76.61977526337748,-79.59032312904534,12.859842174146678,231.00699547439245,417.68341943532255,344.1079164894861,25.24769073222824,-212.22856874911406,-180.74143743442013,-74.4745676332139,-56.67469707517654,-52.380795919916,-30.80554781891518,-30.513071183855168,-16.654560867017135,6.695485405268734,-10.840663343122507,-35.64350681307579,-32.85812127089291,-27.90487884324986,-15.59406552242078,10.349256314308892,11.038876698612695,-14.07502587224917,-22.632131085008478,-12.567284790090255,-10.707011219544473,-11.465257293058421,6.698577776760295,23.584038738863832,7.814920870204909,-10.205184025340873,4.266137611659016,16.554465951427176,7.786673092955425,14.522521520108194,34.36552438040763,37.02877926561282,33.93492846186828,32.425448033915174,16.703787932017455,-1.2379155753269,-5.090733340709529,-8.560973473672059,-22.64287821117835,-39.384196309571706,-45.83378741506809,-36.23366628020207,-21.91394249561409,-16.106109591235047,-17.302781318573466,-18.823726868577737,-13.523933355340242,-2.486316868540566,-1.993206368162845,-12.358132665590002,-12.158183378833648,-1.311214289724953,1.245444003928668,-5.718442619651469,-9.782846062648568,-5.638977116905259,-0.9082400743069989,-4.983291979234128,-9.94839102958292,-6.41494685829511,-6.574817234323605,-15.152364581361006,-14.63152104062813,-2.4111676075923345,5.7580984409661005,4.852987690318308,-1.1562903301487566,-5.457860635849848,1.5724576433350208,14.436038937779285,17.118959150051246,10.998743630312704,6.465698275417036,5.110132111031961,5.187674102440857,-7.16762653397126,-45.30027859633499,-78.57768074283828,-73.68478598310536,-58.1670125444111,-59.92098134541887,-68.7555609026993,-88.86599499494733,-98.94267044532052,-21.334439413537027,156.3414549776178,330.21957933118966,357.18950900176503,158.43456411171275,-123.25181550969756,-209.30909073874432,-91.17845996733982,-22.653851743887078,-60.293117548064096,-62.545350599849655,-30.163647296620766,-32.592519640780154,-29.406871979260984,-3.4154640198993995,-3.779292049444546,-15.636910630906689,-3.8716981634941554,1.8423558957473478,-12.033368451102046,-10.694057228911145,3.9822315885551784,-3.2516034369997335,-23.395298119753253,-18.67135289666632,2.531506618996511,-0.324912718669049,-19.920225069236768,-17.841854838435054,-4.61810306227359,-1.9720328601067851,13.841065776258006,37.914030296120714,30.793196676784838,18.600392810441875,36.72053979517634,42.63708150292963,19.541325090379168,11.343039564740383,12.540698262737163,-4.048516921993436,-18.333489624966123,-28.14725529892538,-47.913314372353575,-48.22354491509083,-23.644748665209278,-18.93040863552524,-29.50778502598131,-16.25031004705831,2.786030355878113,-2.751849881779158,-9.966996680965682,1.6674122444721498,10.109240526183967,4.325931588215626,4.225874493746748,8.843325019043817,-3.3562699131392577,-19.70883886454765,-15.39224550686377,-6.610114868610047,-11.514742848762285,-15.26664382184061,-16.209482981389467,-28.256562249644347,-36.0595989870621,-21.829900956848544,-5.568627225604917,-8.71986858837958,-20.05393301372661,-22.554283291334485,-17.532372531989623,-11.129820216895592,-3.3554776130780546,4.946626064617371,10.444970425950618,9.618919533505224,1.2522113222787326,-4.996875338556826,-4.286757098004095,-16.159194224959563,-42.25766475716956,-48.67093393778893,-38.05175996279374,-46.767618345583706,-67.44375665899969,-85.29347941097919,-109.75145139747656,-91.27197065670046,47.20161501795458,269.08002453190886,411.46254496123197,310.14941852115396,3.53956884496359,-217.14811427636528,-173.58656577142483,-51.43588527864728,-41.756940404028185,-70.36690340856059,-54.8278320029311,-36.62249232536036,-25.472284886985243,-3.8544996433856156,2.999742751309636,-10.02515065667231,-17.097468683112346,-16.228591426394573,-13.139491463813988,-2.7957785462456,3.8970682367757927,-2.7088764131247967,-3.124817507401513,3.326636339557096,-9.580241926719758,-19.365673712438607,5.7752281419899525,19.469001547120712,-6.3171515771858235,-12.657619906076711,16.991382140665813,31.145478382993584,27.604082821283328,36.54121231832754,43.636405747193415,28.730377679343558,11.217582560262997,12.737881526329875,17.896696520808014,1.6039348859171554,-26.55481290806273,-40.05366915691708,-34.26033813022897,-24.309051162924384,-27.25321892627745,-40.48591704243777,-42.41763760867201,-32.19365032482969,-23.641556572682667,-11.403766681383374,1.5788157056033647,0.4969254846037785,-2.858275650285032,3.581529127674724,10.170930313140726,11.56523534042121,0.10678147232789748,-19.93698617612391,-15.722995583193043,4.837502215893402,-0.8061052155427326,-15.628370144746892,-9.464174863517986,-3.3468557033362405,-2.1716980405745065,1.6718394275072939,-11.565683580373587,-23.808416594230714,-6.656594834037817,0.7470380442740243,-14.38289043546516,-5.536154409383286,14.012341749491409,5.180494929286247,-6.330621976420822,-3.956095642855715,-12.40424460533993,-31.102432885230186,-47.42571636868259,-63.42493285721781,-71.01040060564947,-66.2155541266345,-70.31286353738881,-93.73130469582577,-92.63022847503112,12.85918695667344,235.03890052415062,424.9293203760069,368.8194171520992,64.98525372497801,-191.1046088361075,-174.8828562854575,-45.50797509489686,-38.24238935418687,-92.44875545599466,-72.31360432492443,-29.681020231160993,-27.315548072116684,-22.85632829454201,-3.9273663074760563,0.6496544058305176,-4.629978793485034,-11.418924692920099,-19.546915548887394,-18.573928952364184,-15.719570239273047,-18.90704316057753,-6.378008231785369,14.266926138360168,1.693822408904822,-25.565032575937416,-17.569566085696227,3.6675067586932135,1.2130366765910514,6.645062529339647,37.78140273827122,47.623407933103515,24.70311760299238,19.304070448818344,41.54981662279633,48.50274519329654,30.10664641057088,14.65566336415607,7.338378474908382,-9.586262694728488,-35.65525769205081,-51.673044586542616,-47.85348151479584,-35.23860341965287,-29.536232440076716,-28.50222757194688,-21.585731013848196,-15.894006961235405,-19.448921940181588,-17.840025837348037,-3.092727856453722,10.577309216823199,13.880727373139555,6.83707070969067,-3.6328886770590145,-1.5494584655448715,5.716173579212888,-3.0339086965192035,-9.66122839410947,2.1144037989384694,1.590383947304419,-15.115826451222208,-12.25221946786831,2.1533177106044246,-0.26391582232442445,-5.8678720517050715,-2.357924031351782,-4.498427667891212,-12.386728167554299,-10.226212735696643,7.032413621501936,27.59241103156697,29.43700254593565,8.287533276497049,-11.026836714000435,-11.875241998521282,-6.73059609024641,-13.666249778654283,-30.77440415318421,-40.050733923725474,-42.07426486213707,-54.98499857304212,-71.10009373994194,-79.38709274263971,-94.99451994303789,-83.57740819946363,45.94107726703629,275.071842317325,401.21507654960766,251.65844201536558,-52.942346427494606,-209.89779541059318,-141.32629712200702,-51.55090744787719,-54.59963827103088,-63.19841065260183,-35.885143762055456,-24.82561323431954,-30.36512108797716,-18.86507463988013,-4.049323275946524,-4.319862176027172,-3.8560221549435134,0.8319295588615212,-7.722696909362696,-20.921238297258384,-19.071436286259797,-13.550227449387961,-14.882832394627105,-6.806262147681258,9.106977796592528,4.1479750407892055,-20.88762958684217,-28.513935713957874,-11.541168148777853,-3.699421476004037,-5.778161749978206,10.468130925100628,27.35157495050448,21.079359010932023,23.033111137766674,43.98030842568518,43.72426872364928,15.811170188419004,-12.542244338704602,-30.40380980743844,-30.36850895081112,-20.416446794252447,-27.038548009837147,-37.860443523817416,-28.64806361524516,-23.420622558392665,-32.14967302619377,-24.38591722974418,-8.246264012565797,-10.052687022277237,-9.271061376595156,5.106361646853848,6.558966536331434,-0.5925466008662035,4.542045466379594,3.54975818833924,-11.915104743732563,-8.851740970185686,14.12266638495999,16.925802891151285,-1.0756820427610414,-8.75627533125217,-13.26125332335062,-25.50329341958315,-16.518206659926655,7.203344203294677,-5.426928418123566,-36.70288952484408,-26.30723639883587,3.8385377259671802,2.783668939003464,-6.95953114874521,7.677343863253474,25.304560186264037,21.730218038333796,6.343213571586131,-7.365201126662598,-22.315752315520257,-37.525831746266014,-39.6889192661737,-36.59001556052612,-49.81466534791912,-69.74554951536257,-85.43970558431384,-106.79003036634059,-91.95885956843583,43.7291550205679,286.8526987111581,456.5723165641873,347.22241307056,11.806077454244651,-216.91315750943312,-169.6142172139491,-57.921813703056486,-58.54080651535521,-78.7087891628555,-54.6242345274385,-50.312191388899514,-61.11303827627087,-37.14495723349386,-2.5869413712179536,2.422912133890133,-10.492152336094744,-13.744367296665182,-10.859911336876547,-17.130189101836038,-14.455340659078697,8.466185679915835,15.464738034736092,-2.1095679363933986,-8.71979825257251,-8.557878084055972,-18.67869907861099,-12.557571556259528,11.406698413397773,18.938414713112067,19.56005055655636,30.731668179227825,25.339487075141157,5.572075556036714,9.121104939707267,25.636407548662707,32.632044120202515,41.72044727593627,37.65267897653581,3.88174796462018,-19.86839434997473,-26.286691130793194,-52.28980902603454,-66.37828464646799,-33.01203830278151,-11.013609297466555,-28.59843986984892,-28.552398371080432,-6.8723755294846285,-9.346073683252023,-17.39897782289462,0.31156512569608275,12.08698284602357,-1.9855705053860238,-6.359712956999889,12.675613419823517,19.225146819957402,-0.6906552668690633,-12.717517484903683,-0.8533724208081779,3.109933587517686,-13.999755333619843,-19.174007006965162,-3.7271603539837646,-2.3373783306710365,-17.687450048972707,-14.641835872379207,1.4320539405312829,-6.389208524885738,-27.116645039694014,-20.908381242626447,5.51769513303502,20.305174576732874,24.480896226545465,26.083624433347183,11.463989609806145,-12.878747108875949,-18.125807725873983,-9.922937601924948,-16.270249161144847,-36.97436924652045,-56.843879693974735,-69.44686457498425,-79.38156317346132,-101.76180226948074,-117.46390028837284,-51.67598952273339,135.63792673029747,352.782818631692,399.71983635359703,171.1816547011661,-128.94534848340322,-200.1029352906342,-83.74988141131625,-34.48246111920912,-70.24155371114065,-63.211465828894454,-35.1128000133137,-38.09071905458422,-32.75684160402673,-16.152329573116656,-21.32463202718998,-28.309421692250577,-17.964614101136455,-2.9685020396782456,15.969361135677909,27.875331103284452,6.395209069094484,-30.62441586090565,-40.91366775692674,-27.386267040190692,-19.64511134521529,-20.985960857079,-16.70337097463006,-5.670350673155873,3.301555738366703,13.021011683710174,27.949237066035877,32.363760731272876,17.838241034490053,10.471151690358951,26.292749554809376,39.60045010735239,30.81617112727995,14.712151192271975,0.9641390499522409,-20.895693022023742,-45.432172121799724,-50.29058993442666,-39.87888444697079,-37.492469819699124,-35.58502997332542,-17.494214929987404,-5.821392024001497,-18.95245643121587,-27.78100791939996,-12.8247855855406,2.2426697505562885,1.6226313959316858,-1.3129352877005172,4.545402867871886,10.55036220219723,2.3573652357828276,-11.398275421861921,-8.750072426322827,2.6900605327600093,2.562849529907048,-1.938453523497305,1.1989728702949503,9.193520026012783,12.676163714008121,-4.200505582702778,-31.56685721006267,-31.240953202094094,-8.999081440377086,-4.928677179019932,-16.114967001245333,-16.74470124669042,-5.610348226229604,0.5308315092999649,-14.621805705232465,-31.428949993960945,-13.984681507460675,13.542054219311247,13.774408093337252,9.796708941701034,11.343307862046538,-7.4412794563268605,-30.055807645910264,-32.33546360150163,-35.35578570738032,-48.29593176443725,-55.84997567915145,-69.50902580611316,-104.80138512740882,-123.86429221996326,-62.33343295609514,99.49258819740255,309.9783091915079,423.06797632204564,270.9827152887588,-55.51124185327979,-211.29917553545707,-111.83397199104614,-32.34016874311542,-67.56537867329871,-63.965653819597875,-22.77591619094445,-32.28116541177232,-42.5865335018254,-20.201014932289443,-16.623324434720406,-29.94054174072368,-30.878106268275392,-27.670524996112704,-20.667898006621467,-5.990744091803533,2.2039328642371014,1.5643639791738106,-1.859807551601497,-10.34717836323816,-18.22706083629982,-16.487418880247763,-9.528889543128313,-3.0506629341974367,6.071300851222672,18.11569294085126,22.74775169661787,16.12396140766786,16.08343625875933,31.086993177358014,39.781145455081955,36.335811870727106,34.69639783090345,20.803028634735483,-9.243061865253217,-19.052623680985047,-14.65251851963155,-32.71655553271073,-44.15282253618374,-23.57763701994086,-17.815784031353118,-33.20117840776052,-23.7141579970084,-3.9260759972544097,-2.559138711828778,6.073257796912928,18.60328780246841,-3.9111436217291455,-37.783685442490594,-30.44646248986984,-0.24467680165022365,2.326214102366915,-10.86742825002346,-0.4761396280483243,14.518429689165577,5.745527702679114,1.8555830315667166,12.207628512417031,0.8744864500195249,-24.672312701450778,-34.649352246859635,-32.848249334877536,-14.801437429575458,9.985570238492862,-0.30804531246142375,-22.466624913621175,-11.252999611431061,-12.08848468577488,-41.13418944475228,-23.687463744776135,27.053772686912367,24.01226858793686,-3.3659923921010755,14.93003121526856,33.63274374869374,6.15931360071299,-15.234371602094981,-9.141416155126496,-24.20947537401817,-53.70045761389922,-57.05469217578073,-57.66594484377289,-72.46681168642591,-70.80257322893547,-66.80051787041178,-81.13356089062148,-38.00660652552477,139.80439364891828,370.14145356116506,426.67979140475774,187.51394387117534,-123.75465409302576,-188.71765110223416,-70.25935329674445,-37.54668424055294,-84.05489096780563,-75.47415757149773,-49.85056075443191,-48.287642172127036,-32.49535752412534,-26.42830138884853,-40.07517568584194,-25.211019298125063,-6.113032801745218,-16.258416661761444,-15.412364233604276,-4.297523139916413,-7.888395914600467,7.821309302696583,31.639990455649006,12.035681328270277,-7.248898902839372,15.01125752554845,13.892083813849071,-22.045462699102796,-11.653153792141179,35.81582657177498,34.652699093407925,-2.9060447373057823,-3.1189196092543776,26.26720669170237,35.947995158356285,30.126658221428443,23.69720095440178,3.026087369917702,-22.62301167063766,-21.257812953749855,2.151879830565191,-0.3627311863069522,-50.14906713362579,-80.12941197234005,-34.087687874659814,3.04707749909592,-36.14992948878099,-47.821458184349254,16.01334140329365,40.20808691801966,0.10119023506545233,-19.359785099307686,-20.345752482202418,-29.89295730158767,-19.446635549442433,-0.9373144814151395,-2.3808085749641315,-0.08793881599445008,9.854643631842166,4.058824476497858,-7.748252962072991,-16.574118079228345,-24.6338003136438,-10.754651525173111,16.616423225466033,9.727591127685631,-16.58146716450723,-5.541788415674236,20.77447248643773,6.152720079028082,-26.51833297208941,-28.513976615581175,-12.824239971435318,-7.336839017818239,-4.858777600318184,-1.4876052347689033,-3.886728278499282,6.287829544247076,32.41823011590026,28.345416079562334,-12.591488042242371,-31.08356318788748,-22.07797389876321,-35.63674141569079,-60.988306208392785,-63.862478515882074,-68.22827095040674,-90.62851950733418,-97.7892155217173,-65.99830837487602,19.527639093648787,188.56915445727788,381.3799592806455,392.27238235287024,127.7045109315459,-162.6397219515975,-201.30930993725894,-84.94580237747377,-46.757625179571804,-67.15062767330403,-33.88823170538865,5.181645680837235,-15.717997212609902,-42.32622667093189,-29.158778372726385,-16.517146265816066,-29.663129286502762,-38.73071974793335,-29.729488063391344,-10.921115672782253,16.830229065415352,25.190190060756862,-12.111838223500058,-45.185140187236115,-31.149395225010412,-14.333223298427674,-20.46394910363544,-13.84821064948612,7.152874475982781,10.872044980455197,-3.145782344629497,-10.884430520553865,5.398696871425104,32.00820824444198,36.57171619649766,24.5463135282364,21.924905577113126,18.44180688105531,-0.6588532610089448,-17.1370679836277,-14.094534262390495,-6.49528756610097,-19.235404978107464,-39.77174695488945,-34.69693105583842,-18.585251604616822,-22.02153765051448,-25.355460553235268,-11.20339308014742,-1.4683443909415281,-7.720543715525352,-18.73038995234574,-14.822988503442488,11.245190545596198,27.176870582204742,12.926239988955075,-4.131418619625951,-14.314839964479983,-22.81300749337764,-15.8058760775438,-12.175866059210598,-29.218287639451535,-20.803486988277097,17.574949284093556,23.896511823220127,-1.9204543484448529,-21.884369416584043,-30.973658730222965,-10.86764902676098,26.82532300270021,14.981609516394567,-26.80277116627075,-20.645029016048117,4.029619498806873,-6.436402172285275,-16.042712113660627,0.6733836559050488,19.29533737533712,30.289711839871703,30.18099323843868,16.400223265911418,2.3211424301045946,-14.780174222359127,-40.32056337679587,-48.39015331509482,-35.75517733775101,-42.81656166600441,-75.65850492552659,-101.89051267015513,-117.90047022378165,-111.40212527729054,-8.529639648114696,218.40102388835115,422.34906393232484,374.73746379601266,61.77057750120273,-204.8176955750011,-182.8702972925703,-51.318748588955714,-53.22692027897265,-101.91498292895173,-68.79749509386569,-25.08346464688781,-15.658453175521558,-11.225222568614125,-27.58159339993025,-41.5489663557113,-12.050982633367692,5.047802036674327,-16.641813659191843,-16.340826775448328,1.3241662397110474,-1.5500976111938343,8.545135837799506,32.85432229939335,14.826712670116814,-22.551304325757673,-12.102848059029192,20.947329841078336,15.385800968092909,-9.270973742080173,-5.314392501363985,9.184839445003572,5.17775821569419,12.643116337442203,35.89677884773769,19.753270114365936,-19.061378027782695,-11.08821028303652,12.386079506747457,-3.1141867647346544,-12.23364299896254,12.137794942121547,15.52572665513609,-15.493842005095626,-30.335294164277133,-15.69694631696484,-15.888921934757686,-44.47863629743787,-51.832372191938724,-20.352025004649605,11.45198091091562,34.96495963627149,43.846484858463555,-0.761388274638513,-62.022243549864754,-53.2120105383017,-0.8019073239498002,9.062770550745405,-13.352747355299728,-11.09507640089863,7.311712600164606,6.3998201892624085,-3.63433643307809,-1.7353228683223172,-2.9960631588841338,-18.706483668839258,-27.559123136054986,-17.556389068833916,-0.7884056694166608,13.882388956802451,17.978133582314126,0.2787842681591872,-21.489765093544385,-14.31433804931303,7.881055846901155,9.805821861580863,8.621849497834964,25.491475366495543,25.85695937512021,-6.616429711728806,-36.05309824392215,-43.32103039892268,-42.50960338849751,-53.894136449171135,-77.35746235775642,-76.55538896348352,-48.176198595067675,-44.980754970441495,-49.816961205666686,36.34599125692128,226.07654457433358,368.1489826815332,275.2796706634144,-20.991157666745053,-223.05712248512074,-166.14143717150614,-47.15468532093795,-39.95327360597023,-61.67451042253896,-47.426399962931924,-39.10802073577898,-29.520687394660772,-9.807054621278972,-14.236426892252638,-24.602601763514606,-10.560855350870776,-1.5379219524790209,-13.257602473552176,-21.72768761235326,-19.02415594178268,-9.875352863591495,3.2512531782028944,10.768524712714553,8.994889319454087,2.224681836355426,-4.862052275625111,1.8806912904506254,20.408328718862975,15.666739360954244,-13.613980203211533,-19.415890709035317,1.5135259593815893,7.358958866741051,6.256033005522841,25.812140432987178,35.48222111152661,10.466636100458516,-10.633611305297986,-5.877608608351919,-9.347665106621722,-32.184597560657714,-38.408392766945,-20.074966469807443,-12.95603494147706,-22.469186108651677,-16.839189520652557,-1.508071737435607,-7.375960623924524,-16.800828672385524,1.283893204466466,24.61706569958308,23.948008659056853,8.746117093201704,-7.364877930986651,-20.147433356520317,-23.72362242491887,-18.375549569041674,-6.782002810987006,2.8970494571130114,-4.945422627751348,-20.061304020717763,-19.5418496855728,-12.920044581442243,-9.409559346502983,0.02738689519733839,2.1141914167943785,-7.654094772961194,-2.7979436665061233,9.547782690734133,6.19370597713308,1.623495664114099,-6.916632853834965,-34.43382110338697,-40.020556070501314,-12.88250290677204,-22.274508052217705,-68.08691236712014,-76.4924474543902,-64.63962480762177,-84.96891501365634,-86.085470717286,7.491839054601172,196.6038238462751,380.1123219676817,355.1803537325436,68.1366147323251,-190.62132617818395,-184.11135070238745,-73.30214836310589,-53.941777034596555,-64.66893328846388,-40.58389018081681,-30.484987525904693,-38.29098225260782,-32.3673974101054,-22.054256015016648,-17.975811513469427,-14.957594612912498,-10.257387385420223,-5.055795540694657,-7.3793209874329655,-13.05891832232685,-6.314058940978871,4.777702019966916,7.258883660247251,6.717811586198655,-1.0364633119516427,-13.490144216311474,-4.88506305272023,16.15843297199263,15.800970142947978,6.243527475533611,12.689718432714024,20.923896946654516,19.681306891055893,21.20896700915343,27.14923505311307,30.087511822638874,27.962427552679106,16.895053119963922,-1.2672270076144452,-12.996763955435487,-17.06440207733378,-30.024997245123497,-50.39359026528246,-51.865018068408745,-30.27712864314772,-14.654850334667202,-16.63112156982214,-17.144875403351698,-7.784442247924797,1.5378065395769838,6.138710386161801,2.6147658606291344,-11.194247015609879,-17.044708927668978,-2.234371359887419,8.065433292764622,-1.6435104541925867,-5.393696560752156,3.9240216203363367,-0.7912039118027927,-18.030895119147804,-18.656967094701518,-1.3730212525323786,7.196207444582664,-0.8902181797088593,1.3937263187552311,23.833658688031992,29.463172066408248,6.8243426448595965,-10.17608777740294,-21.467909493277578,-41.79116520182954,-51.069123046849505,-51.289974987874004,-57.11062199697196,-54.058805549121956,-65.0863629714692,-106.75511962278384,-83.02827531849451,88.97098513708896,330.93738759366386,445.7178571617661,272.8749349815307,-64.85295993176925,-218.92137165090085,-123.06475439544296,-49.97735852477783,-80.9952991129526,-71.772164944747,-27.243051041047874,-26.081909579961177,-31.031614139860654,-17.7979437880974,-18.337105946643675,-22.613942666316326,-14.266258376454953,-10.628350332151786,-13.930731838944677,-11.97231993088942,-8.150770153174875,-7.9513260901010785,-8.82271794064283,-9.372842975456663,-7.512296249595167,-1.4439930910119632,3.149837113751778,5.775673997939766,14.564319959640077,22.439792291929734,17.749397759009376,12.439425834774699,17.374639819831117,24.697976884242404,30.403531023953214,31.599253982228397,29.512653231252305,36.44608011154718,28.79346187880107,-24.59317089337882,-68.79154844143945,-51.523433577685694,-33.46064857774854,-51.80870259531903,-47.19239283311584,-13.199278381526579,-5.36291213735073,-18.39434759856338,-16.85769405154754,-4.936813977471184,-0.3555524165513049,-5.6372039842915225,-5.236695355749065,7.168188484353271,9.392917416977173,0.6956311495964638,2.4486082067878465,4.1469217098800915,0.9896570080454588,6.665169334228401,-0.05100054178837432,-17.25161830584961,0.8357000779560693,30.916138059049707,19.790835632012232,-4.1844889694637,-9.747851979166075,-16.842381767375958,-26.30506037446797,-32.165251644672054,-46.627844302804114,-60.70589573555178,-63.966409199083515,-68.31261312467852,-82.73789445075249,-110.93044521890901,-123.50574733761701,-35.83843679493509,192.9883863466223,438.37932674786964,452.81612659475513,152.87715237128026,-165.39950654960992,-191.8438254998863,-63.752962115348744,-45.80096074393678,-78.81464269796408,-53.037156915922026,-42.840633314571555,-57.46369668899619,-33.590820519236594,-14.223357333763548,-26.807716148380457,-19.246681584422607,-0.532277997590473,-5.923336095110253,-5.418814754976126,15.341673760183687,19.46672420037079,0.5247405145062025,-9.711158108655326,-5.642267921782564,-8.21546323962915,-13.813988291717918,-3.749512679381615,10.090248499532724,13.25708684501645,19.210168835330894,21.299013226990784,1.1025727892921147,-10.232739167795401,12.540573633364563,31.21051531125616,23.29451462208502,11.159040887831193,-3.499266726625269,-26.44985218828546,-39.71947657706917,-39.76509649107251,-38.11472786682272,-35.67685750164288,-35.007025907428314,-32.10962052099552,-16.61079890054673,-5.367928012317506,-10.560554551989178,-6.107741310525327,12.842579444557432,19.14806765207633,13.049843273848875,5.746346661996082,-6.892305479184756,-14.623589164950896,