ECG,-4.959149535734621,8.160540066480447,6.143509958436761,-10.07398756213548,-29.048358477972968,-37.7306911312795,-29.690888655940796,-20.139971807539936,-25.35890480275922,-26.52879971768918,-8.387284414284137,5.238362956321101,9.937396654018936,27.35380742486342,40.427554182039486,29.485534634980432,21.844481638841906,31.471672694224356,40.38429746209914,43.72510500350053,37.033450231637914,13.547047215858894,-8.246103641360829,-17.028801090868505,-26.097640095026932,-34.94038133949264,-36.37599735778163,-36.36497226883382,-32.04637399169615,-20.532391569322527,-13.47734557355977,-5.31619668443872,16.54002195599974,30.508705064782188,16.979289648833664,-3.7184229628682424,-15.589602053756815,-26.74107611891551,-33.13807598103726,-25.724975953586444,-17.739635737357798,-19.09343587938684,-16.204698359676588,-4.505814066275553,1.876867750583024,5.622136441269391,16.517957182111438,13.349652331006464,-16.892476030627694,-38.89211284902652,-29.75107669380634,-12.718434368856611,-4.587881013444594,-1.099031282824571,3.5073897018297817,14.278119074187718,19.271823999732206,5.874082923673592,-5.988581552198177,-9.310488321000825,-26.003662882798636,-42.63848809459899,-35.07747774228783,-24.395988712324424,-21.433682218195827,-7.832089293865248,4.360639922497938,-6.075420886228461,-26.16996228192923,-39.60358177398682,-42.02132481990398,-30.965645613353367,-17.202560373882655,-12.983025734814007,-13.236562422190538,-12.541318160469274,-10.919459807430837,-4.064805603392511,5.116859195643762,6.376538071772364,0.8476150122376538,-4.493994952233276,-4.524690215998193,11.710408216229531,32.723199104038,11.777336578004551,-47.920048458393154,-70.75677793619361,-40.25947372319237,-15.754851365792852,-3.5124997726725837,16.922947793142697,17.9608621813286,4.554595981062079,15.030312746290944,32.36210964256364,35.82695137996275,30.792388166792744,-3.7799270037266197,-58.75102681830817,-81.3359704144897,-75.25025404581736,-74.63466560022886,-75.30173955603281,-83.29373187223763,-118.38692270007854,-145.8179505777615,-124.03459583481572,-105.57329972911226,-131.50118432895775,-87.43284494442933,116.28888297435623,399.51993401633774,651.243724119081,662.4680538092102,224.787173286261,-308.2228485032525,-369.8938528400428,-154.86816253123925,-142.06137671902786,-193.3972932810131,-102.47641150517228,-53.81655801686858,-86.98973387750209,-61.43926649173794,-16.340945728104014,-6.330733979309802,10.746957684083265,20.440664198683287,6.271733653064333,7.098668009935338,21.076012157745186,13.566452736433222,-11.82273478918459,-26.46493818893363,-23.70092691833579,-22.941143724528885,-29.217506595621288,-27.29954209051654,-18.08068404467984,-11.534092340569526,-5.590525498005315,-2.304467602012812,-2.9093680620618327,8.0714472541062,30.930925670908948,40.969369427637545,37.20771826923982,38.725688446973685,41.083865165676364,44.09818379988922,60.710755114878005,68.46630121462904,53.7091652945672,41.72301083236404,11.605640226537304,-53.82273538545165,-78.4486465030861,-39.62633184516187,-15.47904782402498,-12.668068574085748,-2.515869994959459,-18.61395544869204,-47.38759797235298,-47.15592114203171,-48.085210465139156,-51.442220278189325,-29.433773788541455,-28.952647293205118,-56.67142025506634,-44.938454296710304,-13.046706740707531,-9.914222376047935,-0.9722403727551594,19.56201849941101,15.91780712597161,12.815659196606195,20.962888381008963,-0.8715247533160166,-31.41494336109819,-22.807311757991112,-5.939074634132112,-11.748018844032977,-10.247062896717985,6.845467983202205,13.975071024934316,5.409101410523338,-16.71486571472395,-42.09161511613607,-43.64543878920574,-26.221201764183128,-15.385554086889172,-6.283273020763087,-0.6998195216785561,-10.77832471811574,-13.60805841710561,-8.549127403831598,-27.600459153006874,-43.00413638688029,-22.871349456993947,-11.711261141504195,-25.627863249133554,-23.110359153515546,-6.594716110573685,0.8733690300075132,3.9833916092138253,-4.710576415472257,-23.791442907145637,-23.155569909981796,-6.429217106719005,-0.21826744141870158,-0.09383283778468154,-1.4827162624458499,-12.418715729982495,-18.091324456656597,-5.6548688666104105,9.039366737115447,13.702823134182065,6.749643746032367,-8.626648738332786,-6.25764091231065,27.34610070229116,60.23992105787905,73.95569356273558,71.20595281778422,31.4129522446582,-25.7072740868717,-33.456451361429515,-10.302215449643294,-23.777238078230695,-50.90087240642789,-58.79779806557086,-85.15555116916019,-116.57072853367526,-97.89702645264406,-72.70457499153895,-89.9144538802036,-104.0028366037597,-122.055241210061,-165.49388429301177,-109.79446544641087,103.84647485002401,369.84145456514176,623.0056324071978,666.0230386712716,242.9304283077475,-284.261200225797,-328.8412965187763,-120.64356289048258,-138.0604137506973,-202.178734278428,-109.40064189202997,-58.04321770601787,-76.90814602606464,-35.66261222239271,3.464485144924062,-6.0915836378466395,0.10467671289713998,16.7397989572476,19.393787693720917,19.16446390016914,3.13926143512505,-22.980840561566993,-27.100713298319306,-14.239645065268817,-7.036028206219958,-12.042661509963924,-20.713236973997766,-15.484825883724671,-3.7889244079603,-7.495935865923455,-11.286495190971177,0.885633464346373,7.824812245019264,7.841989136744116,21.930345653482924,36.78843041948577,33.40073681933555,28.140521023546462,33.391751276685724,37.73358261960572,37.39460578094831,35.926111524532004,25.14468265736075,4.917610805079419,-5.507973436925495,-4.686876969898735,-11.909563463067277,-22.74244962616596,-22.929723938418316,-20.830126348109122,-16.617643736223258,-4.3001893482452616,-3.7032979729767863,-17.257735362443714,-18.388076045725988,-14.003729028682752,-22.84941753103466,-25.809644185663842,-12.543850667454262,-4.959920335969446,-11.632845522260467,-20.432983237907617,-21.096694043363556,-10.38682015896564,6.5949785277934305,19.86013101333524,26.095855192942544,29.702120046518658,22.947254545023203,-8.229979212625572,-36.4303950881879,-23.252510131419136,-3.3965152109522805,-20.979875819958746,-38.16094926929708,-21.59012099343035,1.767027791763649,18.075818047033156,23.148831521299982,-0.5294559503497993,-29.762277627999584,-28.003423407659852,-11.510324465538346,-8.617983397469473,-22.393954423228646,-45.209007990861494,-54.24845220317016,-37.19988467561218,-18.513622103279634,-9.237747979829937,1.9153095651152334,-2.2280156509931075,-29.438591125882244,-39.16770188141203,-20.37628559510154,-9.63640217709672,-8.128608804225614,2.458494524112762,2.651947057427563,-10.351854091214824,-2.7137528717956094,17.88998138510994,16.877502609590376,6.003846822064169,3.2184497575781172,-6.817541637638964,-18.100174628070675,-8.341221852771667,9.177330138905745,16.19587513221663,10.170426123654376,-14.910970207752545,-33.3502799241826,-7.553824278055135,26.327735100724833,14.288775782730145,-21.441164912935278,-41.83728651655913,-44.23585716494276,-34.99135858064104,-28.01753315465893,-32.18812970558838,-40.84209373719575,-55.890796131652756,-70.61928554314777,-76.52224850229535,-86.34282977686874,-86.34767936458718,-80.29323395415713,-113.12510903495537,-105.49640831024274,73.05384404067829,377.5107259604621,671.1731583759633,721.2948689826899,280.4809354658687,-322.33934683540895,-436.4939821612261,-193.77307496104623,-155.77267171159485,-227.22816326392703,-132.06259660673487,-56.98982534114856,-92.35778619792919,-69.41416158184686,-12.977877196025716,-11.60671592996156,-8.276775817432728,2.5867934959820644,-16.16885102791683,-23.843282486183547,-10.170370352407453,-12.584822787383295,-16.94725919921266,-3.9572094168203726,3.028344246975088,-3.8845202710160187,-10.93452970755434,-15.500975629835759,-13.023422955913032,-0.36090987656014395,7.225862526738612,2.357839607685958,-1.5474128607544027,4.294305902032029,18.99106517513957,37.79770967599543,45.88524919830141,35.72268850697648,26.84722454915259,34.787607350880776,44.03248385096348,42.59242598928677,38.640196483693856,25.995240017367184,-3.351747938926853,-25.341894076143035,-24.432191933980175,-18.24693910674525,-16.738997609746455,-23.937004463774205,-46.35638974287215,-58.50759767620991,-36.506345129543625,-6.4915641998092415,6.5812750347222355,4.621094237419976,-14.026716601273687,-32.40718770691249,-24.877382623515054,-9.558236263638939,-3.254804339480607,9.763060455311127,13.543040206549463,-8.906063382339578,-13.53245564441174,14.47403631891166,27.038623341849718,23.089592244215094,29.630654643171006,17.31901871339933,-23.26526964494974,-38.61168990441489,-14.187353824135263,8.91780903168863,9.040877675075265,-2.947111654471353,-5.88866646566348,4.708520271296761,6.74196688457798,-3.876897953163539,-12.683690701264648,-29.543896036669892,-49.01577754832113,-37.517926267499696,-10.065500405777971,0.4299013628045891,11.827514489796055,14.884245624843025,-32.74666200895299,-79.94020968972346,-53.14567645252312,-6.973128861260125,-5.387071105766207,-9.226273240714953,-3.677474893859511,-15.986482012438707,-15.023315387919311,12.378971040005899,22.264732323210467,16.445712896562974,2.6107115361437856,-40.17084143459283,-60.97355450391152,-22.686284473249803,-3.0515271786994873,-22.60300030729268,-14.929492887996464,5.334757371655346,5.411519495190175,13.848708095955262,19.952598075551293,6.821924639789634,4.550755671220781,-1.3430403350790456,-29.66057375712311,-38.17740219835756,-26.425643655264338,-32.82141017918768,-48.60333144327191,-59.18088490209062,-68.6380117696231,-81.46898845786122,-99.59039281482079,-102.17591055442232,-103.35503849794658,-132.11028893128102,-89.06077423087694,115.00887060639984,396.45595676902934,634.1195590247208,624.3905351521589,201.59386187992897,-253.14166111209136,-252.07393366871133,-75.76853250978255,-143.8787443246378,-223.33104283647893,-119.35634896664828,-63.615897757431725,-100.47260100540004,-74.83271077369199,-22.73772268275819,-10.818719434903294,6.466269951829684,31.2890305310273,25.584753001925563,1.8099986520453228,-6.235943036365924,8.735802062221453,31.448014343849977,41.82771983579211,16.499994013185965,-35.886592781043035,-54.18348082596262,-23.639683866456892,0.418339202759503,9.27274652664159,12.286944552972358,-22.58330982197632,-60.006482953419905,-33.40126698350707,12.353947963686057,25.504455312852766,33.35674385841983,31.455764525123616,6.773237097859084,4.168840198256185,27.73016989603161,36.056829083121954,31.903447034425973,18.888150890519334,-15.009853812998852,-37.357837611326026,-30.182251265096003,-28.840726474747324,-30.948140795653437,-12.683983475434388,-9.944874824637406,-38.592591173376974,-41.96933580130826,-7.835802707824495,9.52733132078357,-0.34854428202481635,-6.337709363756051,-3.6183584217277227,4.238401361715592,19.07441975677514,21.751355959783577,0.01782165821828663,-19.92331692552493,-17.151822802848713,-7.874055558970042,-6.57422845158386,-3.034258185349577,5.928929180813627,5.215254325868447,-5.029586746594548,-0.745437404781943,22.274936095612937,26.253749007559314,-10.153658493327168,-44.84567060594945,-41.34465106430706,-26.82253196706543,-20.665661401584384,-4.238434780629905,13.220457668755785,17.64268380723959,27.428079813219938,28.590140196490665,-0.21771096128915346,-18.84429652850696,-15.897015912925127,-33.530910028033134,-51.36153689751872,-32.201886764741275,-15.527912718262172,-26.595304252298124,-30.392222123542304,-14.483714261331706,-1.7953484632457979,-4.144799281540788,-6.683728282401258,5.0543984634829044,13.90293796773684,15.529427319494769,30.620481511230416,26.80208436855638,-23.45646292991504,-51.793437971598635,-24.9143536642166,-2.7362624673240887,1.0157846976711689,3.1261092502556913,-22.69223930277087,-58.68403570912915,-53.773251224500065,-27.55243221875747,-13.819297166511952,-2.889028821533266,3.5705532767612453,-3.5525523486219797,-9.755091977268076,-5.108756734721165,6.768473041206427,16.69566185104408,7.599066306643319,-17.07663583476685,-29.009821592094475,-26.902970650012016,-30.928820202369184,-33.46230044274361,-33.150786901018634,-52.58316094460585,-74.14203487546519,-80.31075661194706,-98.6031546062987,-104.68544641286478,-84.58711644614479,-115.958200755733,-134.64199160446506,32.554552355604756,331.7634339067441,607.29031907254,714.0844287552364,400.6429395353643,-185.9992806371958,-402.0837243552176,-186.07861340982006,-98.20740721079663,-176.49695636827977,-116.99687849297632,-43.00261545402515,-88.33982531761421,-96.30414264560346,-47.47263651174653,-29.232286981101993,-11.814333529876073,2.1771598193090202,-14.74872502693956,-14.112446922304635,5.382665952597549,4.722395231185409,8.976801849172748,20.119820186582174,1.482326948822978,-13.480213804456849,9.00271468954897,26.29096584873573,23.405496035501137,19.180094767905974,-8.740850725435863,-47.206925560293726,-37.90291380291815,1.884816986296265,27.295588177461468,45.68793095204584,43.49683821276643,12.062913007180372,8.666655711053014,42.90468615039014,60.706301988333536,61.54629554474221,53.60748923478587,8.127976416059795,-49.57036906288342,-71.3413752687221,-74.47916844745211,-78.91733158489617,-71.70355315646351,-60.82946073786318,-53.19556476203036,-31.66907698113515,-5.60143373770649,1.7872203291133992,3.3894300529881853,11.813881904443964,9.469607947724974,-5.129289833813544,-11.190623396161639,-7.411256100061314,-4.260910977422162,-3.2578680844296866,-6.561462515838823,-10.297183107160128,-2.458605496959266,11.418448685581913,14.900145182221246,11.079345839357094,15.44747554610625,25.1937657200657,15.625317960729964,-17.303311531251005,-34.77361811804818,-16.990975522618264,3.0453536982164433,6.695229224502963,7.2661973103063495,-0.7090760872065758,-18.021480975528757,-18.86188225573153,-11.014712652273445,-24.524078770106776,-42.62592336689586,-41.73294243582543,-36.376417210002316,-28.604705160645395,-12.195873575589616,-10.28528623048685,-22.809939267144678,-21.15625697521904,-14.394730455009906,-14.455232741477534,-2.801761264546073,7.079546905444701,-7.597074279333615,-20.10021761860223,-14.501571716459296,-9.490136216902215,-4.024597495748379,2.9589181974291012,-4.3450092043296635,-16.836154694051725,-17.4479274865345,-9.117397998001582,9.212340451366773,35.17313939481005,51.974359001579415,55.10731023670647,44.22793841501654,18.369582365644,5.094869022545708,15.20675418007069,-2.134713125141751,-60.67080161907012,-88.3015849574634,-64.14292873241432,-52.31080522272072,-59.99761228222627,-58.83384319699357,-87.61261611182498,-133.1583573197721,-117.10476823222947,-93.8434707746891,-115.39884617519633,-51.013832777844996,136.82731021254818,353.182992591478,575.3490369761138,590.2024076969184,159.59652172879095,-295.42110344369314,-270.80301337917285,-89.71567169105971,-132.31337697200053,-154.14862837324785,-42.98405952866754,-28.52215098999993,-89.72989216341418,-77.75069027730534,-39.15817524738955,-28.061538278835528,-24.62802434553752,-25.83438116460132,-24.273551661128003,-19.082677232595138,-18.426390041735722,-7.967388498212301,4.755605813548701,1.1788101578716148,-0.26936513816718843,1.3747203307927585,-13.12229019662713,-19.92417987064979,-3.176972978425276,5.688530028749996,1.063064310066341,1.900734538968424,-1.1155183240715294,-3.1732675711541543,20.2406424112566,44.318814911463186,37.51509965142404,28.065089907599223,35.72303045716666,40.72355866169937,43.94920292288805,49.72224621055753,42.75230892522006,28.509429416805403,12.387251890078138,-11.35277646919457,-18.554181455126397,-9.858070364889187,-23.929846498458893,-36.332974804917654,-22.12049808076899,-38.0793281948369,-76.46801281134846,-61.68379344241872,-25.346822128822524,-21.45196624799369,-11.174380542754534,8.287114960870541,2.1097037555818616,3.534885311438968,26.480720139019464,32.75829741276,27.38604613343988,13.699323073255409,-31.03288028434159,-65.0161840818838,-48.05544379300245,-28.10632499208632,-29.828801864911988,-20.83369747967057,-8.403125852567143,-7.647448811959205,0.28095160883067116,6.871439718535386,5.847561912757765,28.38932445450907,51.82061771572927,26.11775470644784,-8.74018697222721,-3.989390620775808,5.809526523804893,-0.30509271969658514,-2.8271933898130506,-15.188852811031762,-42.9060870509156,-49.438845952590405,-32.18945098525674,-27.31383841431069,-38.56112706461593,-43.117894236691555,-37.85280147375227,-33.06814874576567,-27.1845472396558,-14.820078991040297,-4.7579064618027544,-7.074156109489266,-14.725577966874106,-16.867415615528877,-13.127400776935435,-4.436394329982555,6.866233749570895,6.608530139543554,-11.91565067754329,-25.639183096749036,-15.22246450554332,1.9754564353202078,8.982620333081249,11.434833897494208,5.799880244279267,-7.951344809304128,-7.616212021169491,2.5279131993710777,-4.098857449773314,-16.981704848638866,-15.503953583630294,-3.7364353710709386,17.005831233969364,38.67435491960436,48.71157622295034,55.851048612221824,39.6457878409458,-23.406623940289435,-65.60776019184485,-42.23050671307702,-19.923657785420673,-21.68186339047875,-25.238738203805674,-65.79253400076092,-124.05895375651805,-134.6015983006588,-121.44259369751593,-110.65804933632998,-108.70993361102732,-142.91899894629654,-114.90121558113384,84.6144249894651,367.74785120877453,618.2457591638581,658.3265196714106,268.4622407262211,-232.6687787275383,-278.9706324586723,-75.72498101311028,-118.20087550741289,-231.73305913165157,-161.557630484837,-98.39802012512021,-111.53455726761968,-69.7120935342297,-20.750612352704046,-25.378705019778153,-16.572010718799678,5.397415587207,-1.2767934907874228,-3.3174648487359057,16.949842453527822,19.78246537220847,-0.28610271989072444,-10.198478205530975,-7.00607167991596,-5.319122967517409,-3.1844866567209813,-3.7679548914439707,-10.864763066400906,-11.790169882418326,-6.109801927533041,-2.879277149271994,3.0047180160594946,11.284574168025372,19.09078548863827,33.1476318892786,44.785870609058826,45.64196562778943,50.427885055035034,58.146180949412724,51.875501355059285,34.882987752801604,13.889111542583265,-8.377450879998456,-22.345487710856247,-33.01821791195368,-46.03194598192551,-45.86634555758611,-36.323911275574744,-35.91031782626882,-33.33402528847206,-20.508267749418515,-9.906233123371504,2.2033500174331326,10.881970858618587,-5.167054471298645,-26.355195110903903,-24.325216993046254,-18.198672483528213,-16.789896833212495,0.3949165303467126,17.54148871109427,9.005436302844258,-2.796572004795957,2.461211623117846,12.389270854251865,28.434750491980424,47.45563046972866,31.758131921314565,-14.068987235769633,-25.804929901321913,8.817065119143876,36.799482348760606,28.971675491040962,-11.365500066432794,-61.69477291778684,-78.45439391381737,-60.76433877328808,-50.95225561121373,-46.479783120454535,-32.91618518103456,-38.40729949101335,-52.672910965246416,-32.374008090662905,-0.5551921516812186,7.5818413166051215,7.449309785988987,-3.5234739882706947,-33.98064025826429,-46.69990129602692,-27.961631517774464,-8.61039140029889,0.20179392793415474,-2.8915651887385287,-19.28119860213145,-24.919377473912625,-10.70894748486607,1.2406142899661106,4.905623973131979,2.8808102875720643,-8.787519490218457,-15.635237595095571,-4.664679081544058,11.961642033398196,23.113315623208795,24.201671452525822,10.213484190752833,-7.340327053615601,-9.465340638856963,0.12924168307176842,0.9142428386225809,-12.801294965040125,-27.395912518576576,-34.21216867364633,-34.16076275828672,-33.59175991744484,-44.65866888140269,-58.55117173579566,-63.6657146413541,-83.30766241862088,-104.23016992042051,-94.29828375774966,-107.9207433219431,-129.1433746281524,-14.050135765929838,228.9399590011668,484.6980831572084,658.8801079340084,488.6907496535586,-51.205932366497876,-363.7828036173098,-189.6781696301492,-53.007729869091094,-140.70048362263475,-120.99136790864787,-25.837847274229475,-39.664025320172314,-43.139841288357324,-7.451947350378422,-33.410184662847975,-52.005770978783005,-18.126231380609994,4.846854354206247,20.3711553932606,18.143567315661507,-29.578878056731362,-48.71703634229565,-15.750919324310011,-4.769047744904055,-4.308435153865773,10.803888352637475,-16.11323980155236,-62.936386008148816,-55.04346759155901,-27.16258377247266,-19.89391584461037,-3.8386624481652536,10.231901581667021,2.3788821619386145,7.426256365647278,30.814565715345267,44.69428849588087,50.13968733159854,48.71714835523118,41.47657284650994,44.36385776595726,44.34060982546119,26.17599817049403,11.257352683537391,-5.915739270388954,-45.741312903167696,-71.67450655657743,-60.559754768962165,-50.0286502287276,-45.10665903465352,-24.056403110056237,-13.431765954051343,-25.75059694999441,-24.829267908763068,-10.596101159758316,-6.248119910510205,2.8651419657343222,16.312942754036534,9.093763705604712,-0.9970387055172001,7.166837498519754,13.6500794646999,18.048460594857815,28.331085399651474,13.241826396602637,-23.919000615520176,-29.88295405082103,-6.121788588609033,5.310063901642403,1.1017551092599733,-9.470370822225913,-19.66747990332211,-12.858180920228824,0.5995833441769305,7.874363868611034,24.418564180367063,29.942936477706912,4.763015226930129,0.7370115360779765,22.588086932750123,7.300866262488956,-20.58426776359125,-16.11669522398249,-22.3689480270213,-34.80447062166451,-5.8770588613640165,20.31042751800646,16.009262798649154,17.421444387050578,-7.2452925121258005,-68.31954254372897,-76.25572525698476,-27.796637564312377,-3.9325666306231852,-3.682129857237335,-11.890079217676053,-47.408485821888874,-66.97294759151129,-38.64758257262837,-15.477062023343088,-13.679651726022097,-5.882502200852599,-13.327074327385418,-36.222856656253995,-26.742035708716948,0.008894290202160704,-0.05529584299932111,-5.979980339059033,-4.099273478390227,-19.16126801225257,-31.752393682291057,-17.028658230369988,-6.056713619940286,-7.3236627921791175,8.30272550618399,28.375771918988747,26.19645438491608,14.994797274850267,10.66615775946476,7.836924940993887,-0.9522588630067652,-15.756497420222697,-26.11974857410038,-25.931219491809223,-29.13754807989672,-44.928962260795714,-58.13199660794695,-62.24220889501185,-75.57881387098197,-91.29296219864224,-88.64277827781726,-103.39664690570638,-133.5627467765345,-66.38701252209572,129.8905758460914,375.18667781815986,596.1271928161791,572.1134237026149,144.04495485938642,-271.8819781593702,-239.7396218165846,-70.58757208264446,-120.65008750723781,-164.03574682469568,-69.33771600620071,-39.17669671148512,-80.1013331209065,-69.87642032386171,-44.52804903782882,-37.73660928830576,-21.142297300617095,-5.052384054526778,6.544134942824547,20.455071763071068,19.813476759127738,11.059774708286726,16.89438752225915,32.888654748317734,37.591994120142346,10.690636286018746,-34.10906926107107,-48.7595611634536,-26.589497969130555,-2.934583486404561,11.873381035045867,8.231173403691157,-28.119137161273876,-52.04411054464654,-22.221702721299174,16.296034480057756,27.999218906746183,36.68222345167034,38.76353640655082,21.8338894718863,18.136375076944155,34.55772601086275,37.671102965431174,20.705493893984617,-7.912900508993271,-39.55657379560808,-49.00858362569598,-36.71407010830819,-31.641834879466813,-31.77612593001497,-23.126162926727858,-14.434681688063964,-7.63237708080986,1.921637866177825,6.763655916255896,1.0669563927105585,-16.352351779748524,-33.706621608511725,-26.87545348748607,-6.732764365658035,-5.364735977689193,-10.643876618679677,-2.5559607908050346,-2.305730708449765,-16.647513007438377,-17.479627206263828,0.5480766531357544,15.107165893028991,17.766807016105723,17.017312284416562,12.64138730079139,-0.7958417756746154,-5.764225059424207,15.092945458609469,36.34261693048604,34.568409550154925,26.63917972503437,11.633899375545393,-28.277526301067887,-62.42376534571949,-58.895290125882404,-47.6717602809305,-54.41293146483675,-56.280264365802346,-39.97228680713319,-23.59325016172841,-17.731826094878546,-15.418980394007882,-13.409456419621655,-14.138068269631667,-11.375190308894236,-0.9098283779288785,5.496431096089573,3.3910874314700656,1.4615059289140149,-1.013678901818455,-0.3164113679458218,12.378077763414506,24.254727316556426,31.110743765554687,39.4310831312454,18.00200618046129,-37.44058766443372,-62.174709157837114,-44.66741591513242,-32.71728767690221,-23.48827042204212,-15.170274732822023,-35.34596212236261,-46.919441265935376,-14.809553458086747,10.5595776273073,8.829647981346547,11.43372613716732,4.187754842130079,-20.410183909378986,-25.37756600411737,-19.76276068204583,-31.3825769794054,-36.298010726395496,-34.385422055988855,-56.867269012144405,-80.304506878818,-86.02394006510991,-96.04948125927697,-95.22867735664687,-95.88609199955373,-131.42207654560505,-92.17755209114641,114.87947132173171,390.8684299322556,626.1707418901464,638.4526949130635,220.6173764137171,-285.4761207229561,-328.82938459421166,-121.54138810541572,-119.49893342610453,-161.78721737622956,-75.32322604742683,-45.45643928908247,-63.18180465171034,-20.510074341719694,-17.5226402412832,-54.48177041639394,-34.10103362518435,-18.797410576115748,-39.52053914429884,-23.378356923326265,4.6021937753886775,1.8933170493472922,2.6937966730500964,1.138107246713183,-17.541786792313278,-16.728093327256538,-3.106866595432584,-3.9786692440049043,5.270125360014016,20.650659928655514,9.866664267695306,1.7424356245356254,25.013727140889614,55.013543924110934,74.52883015059436,71.11957919164549,36.999464396109424,10.563960264959803,11.185083797364475,14.067856527225482,28.99932566643542,48.193539301464156,9.990370882936707,-60.393063874601445,-73.4983547033894,-46.74797721363522,-44.12083231796868,-54.71755978589903,-56.6044391105233,-54.24355960951516,-41.83715575675974,-24.598313194692494,-16.105417255947593,-8.671241851021527,-1.7022753814051086,-3.346482198869957,-1.2950410118193219,10.454034860020489,20.72701365698346,28.09834741383954,25.191488653746358,0.07271802269880645,-22.56841410798218,-14.631628014224574,2.486932288962951,4.277550231278585,2.035558973301022,1.9015808887262509,-1.089578963702312,-1.1373712021966007,-6.554262909716639,-26.807710270692006,-33.71424469787349,-13.785010490230105,2.61500744230335,8.705171145753601,19.070543436835926,27.426762044623672,32.7257229737434,24.92376666614388,-17.43468722230693,-49.67548136947828,-25.374571057501164,-3.0768526276679147,-21.569234576146826,-29.871737248012916,-24.48767070127206,-38.6069059171203,-44.387720162411455,-26.89031269899719,-17.749576991687018,-17.350081302849485,-11.705068164361563,-7.837395134564943,-4.569269208918822,-1.4140161218509952,-4.079035081963891,-0.4147094920220393,11.041494598200867,11.31660242528678,4.150752519158843,-3.2254956381203392,-24.68940711112222,-43.10663004606165,-25.742722860556498,-2.721490377827161,-13.535716860220077,-25.951889225580747,-12.603363438306136,-2.536671701260911,-1.5197372278879602,7.668266555582051,6.989458899262935,-3.4282841925836305,12.275150862875984,43.85448846272122,57.23137135014045,54.26853490145777,26.009958155335653,-33.690407809704936,-68.24406151508003,-49.93278847789698,-34.19470129719727,-37.25810730297848,-28.544724711746806,-31.210101989072047,-53.932641578134124,-50.4579330110576,-38.3814634880926,-50.21658265731547,-51.99983612541372,-79.74108886492232,-159.12727947501347,-129.97250404694245,71.58883658082573,308.0246306319632,531.0714799361133,588.1331496254037,212.24355010610475,-275.9148386322311,-301.49693878688714,-80.23497541199552,-82.40362850820564,-144.246962276243,-75.28711589731209,-58.60984243833299,-104.85768836796338,-77.45516385634923,-32.56377945417962,-28.087295414930786,-23.30017537646095,-18.82161432415741,-16.563602088206327,2.229031570565976,18.430879566938806,15.230014954983105,0.7089787716844782,-13.757961309462072,-11.290142271571906,4.998202347666515,12.401764666337364,10.515527188135167,5.618231937444727,-3.4402184132991196,-1.082735489634718,12.638532225690199,6.979036273813772,-11.529158486193776,-8.21512472735596,5.146162387330904,8.726575874423643,22.05910561498879,41.169112448174594,37.88582845656394,28.160123188552937,32.05071416003181,31.10608288053993,21.327221404596532,9.42078069722306,-12.445540002887036,-24.64419981407171,-12.816718757392952,-11.484301672132357,-20.544669069734024,-6.200954952994847,6.517406895405612,-5.185994072196191,-12.667978665723911,-21.96450184564737,-45.657466636307035,-46.38514952750636,-27.682758099573608,-26.307626314367496,-19.73877329183202,0.8093226285863224,-4.253363442776642,-16.73297135060226,-2.174591945690853,1.2859526273891007,-20.617859802365643,-20.531159485279744,1.9767956534928839,10.69799596160556,12.217229231423989,26.90539778631419,49.88476583427785,58.67667866935831,30.10299864829961,-15.507166053289719,-27.656962160701177,-16.08863781659091,-33.46330004260535,-72.29670671754054,-85.26451902167454,-71.14408955071731,-58.87434679689326,-52.93519222312255,-41.89091433679188,-23.558784643220157,-5.81711731099486,-1.788107381252125,-10.529379249322101,-7.172474105728114,16.538517615476714,35.352555406554956,31.153761557060882,2.575637520108259,-34.34210584818001,-36.42396483320747,-3.888944864287243,-0.8019513012998303,-30.27279047628628,-36.04560465714389,-29.169206587560964,-37.241951371674816,-29.1266505124414,-4.441828721975764,0.5042049532881734,-7.069826181687205,-14.475134787386338,-24.847023431508248,-19.29879534632342,-1.2242140441582503,0.24837113961602597,-2.0993617080261036,9.10927183108964,16.68359150315227,21.4794167685994,31.380930317976834,28.98225395893348,14.396974811988182,3.7095339933164304,-7.3071693366018895,-19.21355419871917,-17.491816948292367,-3.488106527044101,0.3831525616713032,-22.767113719561763,-68.88946520860726,-117.37427071210438,-128.62966324347286,-94.77804152538164,-94.21044615581508,-138.45202240549472,-81.37277499937545,135.69497249564134,415.75547600185774,627.3204654427379,515.2929135176178,12.298261232448212,-361.90868202943807,-261.0219766312089,-100.82703188467535,-149.78491900250287,-142.84713645852014,-46.84276620792039,-37.211235754696666,-45.531148683195546,-27.95404194131428,-50.094344915439855,-48.14135383149683,-2.089510750048561,-2.0567275711440374,-25.242201180810355,-12.831054909671597,3.7022805437515203,6.854661589733034,8.349427152359933,3.7954816575149657,1.737872177271834,5.750383156969238,4.219771411780484,5.702653721909087,11.612452078976077,0.20119628588658323,-22.59620698591487,-26.61901907308962,-10.553506185044334,3.4007701306989935,11.213724121161567,23.690674951628623,35.70804108528059,37.012823050561224,36.80801117167723,41.42743236616076,40.63280206785094,34.418831670667956,27.63783840711605,13.203189414508305,-5.184045105350459,-18.90763179312265,-36.06879703904376,-48.370494124039915,-34.70580928825648,-15.446947922438481,-17.45432042214251,-20.36650331735113,-7.5117916446835755,4.607838234751356,7.486207163557424,2.193336556414584,-9.367918253585477,-12.691105846150897,-4.78067939534251,-0.15165151438928337,1.7501150606405256,4.235755227889735,-2.489754554707874,-12.060477476662163,-9.216320063608993,-2.6269976594564888,1.902032505631594,21.631378160645298,41.36613962079002,14.607174077609965,-33.89467994306851,-30.204379205274932,11.076701530627474,31.732036398749536,40.6528126817832,37.0713156515192,-6.640295616477303,-46.778619427267415,-51.40657414032314,-65.61448134139897,-81.25804992902486,-60.473969814880725,-45.05896138465699,-53.42027200398605,-39.48260512338905,-9.219080991086319,4.254828636489094,5.798420675403911,-4.51995168176941,-22.299191375622794,-19.705864864602503,2.1996981781329943,16.68682473195171,8.939842925603614,-20.51012205010325,-43.72471787317443,-36.04468523682848,-21.44170095469492,-18.355311441883682,-8.556597605465392,1.9694593461763787,-6.132151850481339,-16.74526621968009,-15.0010463351554,-8.28304085986468,0.7786702932614809,3.727021411275075,-11.064225834962125,-25.958318825678923,-15.17261462908245,16.161702643353088,40.586324194053745,38.64044944331273,19.659465896019704,5.772312867687132,-0.6529357391398385,-3.044653747280952,0.5813286682815857,-5.8743129674138235,-26.69725050043524,-35.215795798592225,-35.309463529292955,-45.22333739886551,-48.753761174309844,-57.546670227485066,-92.74168085202811,-120.5430721162887,-141.5055723269046,-158.4937032710298,-74.20617592534822,140.7866423024352,404.30536412160643,628.4214221246749,576.3670692204491,123.21693834735251,-273.23927009991104,-217.93661039112106,-52.359989275775575,-97.22675985254565,-148.8094002381098,-99.97986487164344,-70.61165631369116,-45.141882456097264,-4.033751867291485,-19.553478371363582,-68.21069572974656,-81.95230788264499,-65.62099221867592,-42.23422576490459,-19.639488304659352,-4.558948223385219,-3.8139565780742117,-14.776771428329162,-19.052482628891195,-12.949513854980797,-6.959582611186837,2.801322926800811,5.086065015114894,-13.998001702793465,-24.13017706773086,-12.519241918843864,-7.292185695268693,-0.6913265662248604,18.945828091670748,21.28740935263383,13.045056255975606,27.858267416551943,41.76053243343298,33.80189628912117,35.81826365792048,49.056601761063035,41.846213196232675,21.395745674635997,4.678364009880184,-13.028754881916226,-22.175218731513617,-18.345236328739343,-25.51203474745158,-38.92613729166122,-29.993734256899515,-13.49190408412378,-8.071036182989461,5.4034020992968825,14.655980961607776,-9.972610469064918,-32.73994708048337,-20.41741602571377,-5.069980054709035,0.0298103756018282,4.029128036798005,-14.098084957293391,-39.46044891943116,-27.01428756414174,-0.8336865189503513,0.6480380483784511,-3.974913600911526,-5.697881262263433,-11.421399298575274,-5.82811456808119,6.823236419092311,11.631080617137808,17.14153143730539,14.818060994500042,2.483346876304634,15.279698994274153,38.28061403533762,26.285914033107403,10.772707532713698,12.536720950260033,-17.59260230550846,-59.31598684719932,-47.4080996951544,-13.543736127202472,-4.004787993823193,-7.773339945330932,-36.14864189775355,-76.97700230956927,-63.61791339186141,-14.285698288058004,-3.6656722686748537,-14.24518496183829,-8.34873276177941,-9.20411870183548,-15.485867236659786,-1.7193996525606252,17.85828372191523,25.023067800726153,13.186922863479865,-23.574604120255472,-51.63907459509282,-37.11135684876362,-15.10330614728936,-18.013588006836088,-22.3643697548738,-21.77216500270027,-31.366896092230427,-35.621995727786334,-24.70687841047572,-13.753878968014636,-0.24995711610257487,18.906672198117068,24.478322758386177,17.281578195731484,17.055835356329737,16.84069876085773,4.437473393394166,-7.384316783759601,-16.164543846807355,-29.54327223700431,-32.838702938646406,-32.449658368053576,-53.62845914969361,-67.71956168732261,-64.44049275289083,-93.51352092213386,-128.3976579672431,-130.06056899967865,-148.66979094960138,-125.16152293185961,58.918950999437754,338.68759715541296,608.3896025289138,699.1686745548518,334.2369950475844,-237.3234653360846,-362.19425702540707,-129.82815648606936,-97.77751009493372,-183.01732159627142,-112.33767368473536,-49.19424204529767,-62.84062398983937,-21.865724763154716,18.506883874213166,-1.9902667178565423,-20.761320623176225,-33.08170046871053,-37.451461902417705,-14.99526134819444,-9.91714440626631,-22.71382613259359,-11.879201253505583,-3.8029048962172993,-4.898583156697995,19.80216546532462,32.03793327664826,-4.849033401835765,-35.84764910262376,-26.161699680231187,-6.90333571136668,4.686547807524224,7.759062313002161,0.37356160317098297,0.8229827972814023,16.65678528970048,32.923073479815855,52.85119436872919,68.66107446205085,51.86025920367875,29.055234356854726,42.0609159984619,60.992291282961205,56.04138014406565,34.23345023318197,-18.90628964584629,-82.11185564425959,-88.02832752206177,-50.65474645681079,-28.587615684259674,-19.777624323042136,-27.89280251662472,-64.15817605754555,-70.63764086532379,-20.49593835013483,19.077158502953537,20.260132586825918,17.407759015041854,6.211152467595721,-24.998539081488964,-39.02379223061487,-19.549643904033612,-4.688792947793715,-13.853036794807135,-25.561348685488646,-28.756983292931693,-25.325953481994496,-7.446868723536632,13.360486923531752,7.87880022658014,-12.85239117265196,-14.393870100455196,-1.2906437976491034,7.554809914279279,14.793444971516344,16.590722705119457,4.819204935564127,-4.580548123640549,8.12006855210414,37.977867725522074,53.511334759914405,26.05980397305882,-22.584715262613933,-49.39733303425241,-55.58179459530827,-52.01315101030698,-32.59751635325351,-18.682420495119224,-22.434037400497687,-16.377704751721282,-9.207083596430806,-24.921251915407176,-32.03560167435256,-16.251887331828687,-10.144581772879349,-13.57940156896889,-10.031905693365367,-5.274577333277172,4.488924947245161,20.226359316554035,23.994420999684493,6.95995713699212,-26.792733628542372,-53.81617399949505,-49.213405391315874,-34.17946965798971,-25.924600266485427,-1.3584364110934573,26.246118405644186,30.555167010181364,36.01039272733283,42.617125416012954,27.120289483254908,18.708616600658296,16.70445995788891,-28.03845756145322,-77.44356311729996,-67.79789388882531,-49.532125727487795,-65.63583961289214,-65.40550244965792,-55.42334098036679,-89.19787289240087,-125.54703126733546,-137.9002124579636,-164.00439196324726,-127.5011452995529,55.4655216965032,309.7326729055214,560.1946240138302,651.6399441972687,324.65596519283423,-191.0019827925667,-317.1636983201166,-130.422341406153,-107.99290774954461,-181.65278392381916,-117.59208732970184,-54.70874380896224,-64.12094260894011,-36.04075498366021,-4.913267465524914,-15.144108931139648,-4.880924708889767,24.038326700639654,32.61410224819828,21.069169847646872,-10.349537773615936,-36.9573672683103,-29.12356256112945,-9.09365838736937,3.2751442569277938,9.861613325440981,1.6606284795334076,-11.727282646838077,-16.48044565498166,-24.61363608536176,-25.97515454478813,-8.275039782464349,-4.348337733541127,-16.08791698336048,-2.4636732314961716,24.859500654204435,36.68462649814639,48.50788854476278,55.87003673947827,43.339263417154335,42.17225378713755,56.81679808639913,55.94706089750615,54.55184604300955,45.69225235329383,-17.26902590246581,-81.27614929084852,-70.18948613011399,-36.08941773747376,-28.284016537692295,-21.37176318645991,-31.52172795736529,-64.20294273056717,-59.999007834543065,-22.311863400550962,-4.400016308927913,-0.9946987275816923,4.297099532808842,4.81039559990224,6.896245439517813,9.13616212023934,3.607662952721391,-2.8412965583126564,-15.288154019986976,-35.22387279562226,-37.227234483417305,-18.80441425412733,-7.699984790470349,-9.160829993147363,-11.16696481847945,-13.93880130555301,-16.290356787738613,-10.3176369204526,-0.9933114585331353,1.0015576075790342,-1.052484019248034,-1.305710715117053,-1.0187234720571379,3.006452341540516,11.860124083659173,17.999151255417132,22.86322398356091,34.27811402739924,46.63070865884994,41.29157310859091,5.488619411460846,-38.74532074575363,-50.92406410101606,-39.276316937369955,-40.979754412764066,-44.411328061801655,-31.0167505895851,-29.211459716212772,-43.09694347138387,-37.908875172211495,-21.255774107572474,-21.922773012521574,-25.859336825218655,-15.982539878727707,-7.009908890250948,-9.071508684760673,-14.57177691193073,-15.968677047883688,-12.311407572457693,-9.635216883978703,-9.93026157541112,-6.071731555673416,-1.8548420060647821,-7.551543985695577,-9.585418625480077,10.5411507409089,34.37214330688067,35.11922842053962,26.513803673680535,26.765066443514115,17.496413916959877,-5.830910506765981,-14.594232908288806,-3.859457922732375,11.233757916866175,11.460954216539355,-36.26740878992888,-99.10096352000447,-103.64458643239655,-96.5973824905262,-128.6110737220229,-132.39649937113634,-135.76257817660743,-181.44411637921425,-102.14946301703529,166.28981555265824,479.19358396317836,727.7471806559962,640.9577240597755,55.87653813142889,-428.5480584402795,-312.64423935739296,-95.3141351914033,-166.05548545393222,-188.86889504450733,-87.35454886809737,-90.79970441052869,-98.61469590256054,-21.526544115511008,4.7515081290267105,-7.4531573511081,14.186580938952591,20.734632124189762,14.644663519612285,34.96185402147249,45.43339420274225,18.897540795135345,-22.90022410773431,-46.706402302376475,-31.171608893514243,-6.172672573917888,-13.015428934894999,-33.271966792777235,-37.873086388450076,-36.049377440561194,-32.88143169634222,-18.58965047773055,0.9668938918418406,14.899074920226289,25.75597646248156,35.30450888535747,38.23216453502822,36.92135874326047,41.136366643558105,51.82958012421355,55.92249144155169,40.82721981196176,15.99523584294933,1.8725442874244154,-6.503067812193769,-24.502221740078728,-39.833497750407176,-42.018808809153185,-46.69166093796717,-50.849090219312394,-34.33816444068055,-12.576737926707436,-7.564089814474588,-1.5205393240592935,13.204396901198281,15.89366452987548,18.758997078274795,40.0672820149127,50.66020009899667,39.199584258684396,26.003838319643584,-1.9436227529666859,-39.498295475290256,-42.637528432418954,-24.182794356242056,-16.88227392361562,-9.937261322808755,-19.343910419992174,-53.428131447235174,-57.33241280811456,-30.955038679918474,-25.593977404261224,-25.44706525348676,-14.743496328812636,-21.592315189533437,-29.101568055238374,-13.624379908229209,-0.38756490181332737,4.418666155932776,11.49986598179732,8.562829138611843,3.9150296104484,18.464379325542954,33.61009339831694,31.54413795594937,30.11273498685199,27.53756584448383,-2.804026944797698,-41.426923491304876,-46.94591960917486,-39.48917368718011,-50.60779957881209,-53.74566024822839,-38.418071926785814,-37.476160028317636,-42.79542242391824,-26.26334614081176,-8.090714570679225,-8.3352833384603,-13.21815837186896,-17.26397512090837,-20.83754283591818,-12.598634470076133,7.889060777829245,28.15796429884024,37.494275896856266,28.689683345543358,11.407003664064417,6.022229035812925,7.40502694495583,-1.0645131761280098,-11.160095441072281,-18.189092097302247,-31.316758451870342,-36.82394462152899,-32.88346730395115,-45.38687783992092,-60.104299922591316,-65.16934047356894,-90.24786173275172,-106.03016540203892,-92.15415404281573,-113.70001003326844,-116.37481172913039,30.86105110917603,292.0497766034522,571.1307460133894,694.540233264481,390.8394877001447,-133.95019488485366,-303.7075304400124,-166.6451203591351,-160.4822557443583,-207.36635807926336,-113.99919310404607,-46.395591468247645,-68.70152172849068,-73.53970659513558,-75.29897870327656,-76.85770307724879,-34.515561229783515,3.9674427642147734,4.812597205361893,-2.7327912958865284,-8.350286965339915,-4.67104833144996,11.521116614607449,24.381666012005276,30.03802799045362,23.248883359596636,8.648581845334835,12.431328132536311,15.237164450914117,-14.539157866622903,-40.93989346590605,-41.90163510542693,-46.447224551157305,-44.95591707723655,-18.32324860762708,6.127199746116514,20.561923250450945,36.788466745341694,37.164854821412106,27.603348365912233,39.892432282226046,55.10782812824583,42.3191227535855,18.123460900114754,-4.4578024215626275,-28.052870107821548,-36.145465419967095,-30.21238672229926,-34.24376150282656,-39.00784307552527,-29.390168253276716,-22.772538433769196,-22.911161491614816,-14.658793444432408,-4.593061670163415,-1.5003205215978923,1.618151773261724,5.829891251317363,9.431861711449265,13.950831402741944,15.947464988596819,16.53538908510211,16.878252180806165,7.122826472478566,-8.697375148267525,-11.406811775119163,-4.298391584554453,-3.8099002574346876,-7.301380574556573,-10.409664941986655,-20.493499276045846,-31.495552551031917,-28.08082985653092,-16.329078135598166,-12.130032228384792,-13.406878816618432,-12.511584849731774,-11.32140927730191,-9.330286990521609,-5.516748311180406,-5.456036621032952,-3.842883700854956,8.329426862662462,17.255606645412986,13.076933749154435,13.544580772664531,29.04360641620154,51.88614042117157,66.80310385550962,47.74757417037896,5.195751575551142,-5.871368592127187,14.560140396187904,14.433840657804936,-15.988986862442005,-66.0657782133008,-119.31477250279417,-121.00994526512461,-70.0623845209673,-37.333095000504606,-27.960051058554605,-16.039224692522794,-33.9635437891903,-65.92991915936136,-50.432416164990556,-15.911886736017966,-9.113450181403508,-7.627653219722916,-7.628743775119688,-21.339756001550317,-21.133541729524254,-4.738516741846524,4.580460049029188,19.041768533978605,34.5987861747074,22.452689605367528,5.412028362488892,13.479986985123844,19.706712357000114,6.775468165908695,-5.60292219709239,-17.5731749073894,-34.49698624640753,-36.644763854420745,-28.83188676658419,-39.28426286091314,-58.82024353011025,-79.11697745513919,-113.51390894420815,-124.05300710557844,-103.18158062981948,-129.04970304851716,-145.76143862343451,-4.39698486091207,252.0034726917499,519.5286743708809,689.8364058429916,477.0529997953995,-72.88131243152097,-349.7544435058975,-190.1852376433756,-97.64826066401012,-181.57514779082487,-152.66348625809087,-64.71558083556499,-67.70016190376305,-69.19659421284172,-32.28565241955697,-14.521554142550908,-3.0701481507821082,7.286927212953614,3.2795221222859823,3.9362309466389895,8.796832549861026,11.9923512184772,23.462602652702458,27.010234110979077,18.56315881033761,25.413991004808537,29.733205111541707,-3.549258800643118,-41.76781573844037,-41.466736463930225,-15.961534097758326,2.719653648715994,-7.235337661381443,-35.847887720337894,-33.687558176013034,5.553310436315952,33.54491093665759,43.926307891089834,46.28037028671913,18.977144797657893,-13.985962045714661,-8.475398926426681,9.427185765191844,7.898212638307554,-3.418417764533551,-21.82277076832327,-38.50169723185165,-38.94066554772814,-37.62198851545634,-36.32734741305765,-21.379371334240354,-14.203034467507063,-24.752681322360587,-22.941025573477166,-8.022459055178324,-1.7567352762946022,6.758113191038515,21.504628356424927,15.607811882488452,-5.157720932354369,-5.363602201314309,6.2047493503542555,0.3605881517881304,-9.585400999047526,-11.996210368006086,-23.761960133278407,-33.08121158736609,-21.323196747943946,-9.909792299004945,-7.839645086677038,-5.140677209488928,-14.16820124887287,-26.28729367468719,-14.802380267642373,1.3723355087135136,2.4324785992096203,0.9697883205293731,-7.682477924604575,-18.492532310594747,-3.989991054142143,19.45409879819468,28.000539471850303,33.02932755915181,21.784252893306455,-7.332161072936483,-8.08511073421805,8.81006857683105,0.7437323019906312,-3.2083964626462844,7.890227999720313,-1.8531780220315852,-13.237750363472575,-14.871051726635901,-33.85601428255693,-36.884813598855175,-20.202048210003454,-53.07016794506325,-95.15461117386765,-64.15965713906537,-19.903907781782017,-16.447213469548245,-12.914702881573128,-10.672374560436484,-15.294447173952143,12.656280041451774,47.85664081590497,49.36704150713956,42.30315700897909,20.165137918840042,-35.52259119744231,-65.28328993856205,-43.59706379562286,-25.951596234452055,-26.240835708799853,-37.04330461463489,-78.61837398085257,-111.43647503170467,-97.60526375407595,-97.82536143350609,-117.4576604140754,-103.59830805360826,-114.08690082234263,-141.02193688679884,-20.80214937810082,260.0455200498462,562.9473371761853,715.9308201829396,452.0889807468262,-126.95998039281682,-385.5681069556426,-184.7288727903462,-78.93439984046643,-175.93267383712788,-150.45463385216306,-67.62764154233878,-78.11195941417166,-59.80667621745721,-10.793984579451816,-19.265150043991007,-17.572190214518027,10.189752675655054,1.318366538894841,-8.007001099484597,7.946118416313873,6.279947602639672,-4.555825539266228,2.8267487721788056,10.95755015127834,6.855014606880967,-1.8772521298812064,-2.715080392338178,13.70159459785707,28.310371441152036,17.86105406917852,-1.4358813979954719,-7.5662934437618725,-0.368726981922304,20.19377439620947,36.95238061472491,18.788657311333647,-12.86424833992692,-9.347051094502081,15.81200146222962,24.931656603325234,27.66312428959666,32.79311473242072,16.92261027308443,-15.563835367111142,-30.715233969078348,-26.351587215561807,-23.667934490901246,-25.012187432724886,-25.854602231273716,-26.227910838015887,-19.38199207477794,-4.716997651789598,12.45141459915801,29.19518359539589,21.035336261261364,-20.874351274269785,-40.121261003747414,-9.182672710668978,21.703877419949375,33.5705473378844,33.61202519442137,-8.445507298072425,-67.73477950352739,-68.321311269278,-26.65452700393695,-4.398014944778549,-1.5189350267405786,-10.122921573833139,-29.449762020975903,-30.676574366191534,-11.519298807963203,-2.6496605446230497,-7.96733422789811,-17.601259035663396,-25.586931616609323,-19.977358969699132,-8.359874181404003,-7.168806851063636,-6.010800281467212,-0.5382528485060174,-6.111915389699735,-14.70278225783061,-8.280372631506747,5.4325355642028414,14.54901564413207,17.554097682738146,13.371949801097482,9.856984110225838,17.41941076156987,27.857155230924782,27.278397323226493,15.44246244553746,-2.5871471028665454,-24.425635623633802,-42.40996372033851,-40.77549529590877,-19.13791206652375,-7.010648773799225,-17.244944850617554,-18.758292040692822,-4.463033704443301,-12.88999900995254,-42.98137094382617,-50.725226548758336,-37.34947276059356,-35.110071506820496,-36.750454216406496,-22.73949441396747,-4.463143217094366,7.756535974935494,19.119894697823568,22.98315448650964,16.533179448654835,15.634771301134261,14.807826210012257,-1.3161459912623954,-13.465507785686697,-16.118092379965127,-30.440806079129846,-34.348234965115964,-17.680768666018047,-27.137735002169805,-51.69302405008312,-56.40163367364593,-77.17990350156336,-103.98123801755655,-109.2439588974043,-147.37942916733647,-151.46035851514625,18.016680450951867,284.2861713197496,528.9918461415946,643.638548772055,368.92655869118965,-162.49969469227756,-341.03151616248033,-143.3998461415203,-93.63216419888492,-180.2314066144521,-122.11660444984628,-51.24585877922634,-68.27257217760527,-42.05688771453826,-5.233839361965373,-27.419384542089695,-30.894792669127938,-4.616494483744708,4.413148931390982,13.863544355346122,20.26370912913296,2.235418616623768,-12.24599241264053,-5.934276597248337,5.86784270911159,15.250382578546994,15.180503910119683,2.360523381139717,-10.535549243132559,-16.89117752630992,-20.565691732540117,-17.762985203251116,-3.4609891111010924,12.416345252189155,17.116843705660692,20.352465410318594,39.54097499979096,59.98151954314934,49.40422342479998,11.2380429064829,-14.794378532854473,-7.552177413840679,8.56397671379406,7.74453580940923,-0.5756192336404347,-11.511790968266233,-38.222586154099716,-61.3216248223207,-54.29156611708039,-36.42811241991233,-23.489390328203335,-10.188858222787129,-13.95765444334106,-30.69509294109701,-22.166625584475902,1.4196625978961386,11.788688821562879,22.908388501622028,28.716459589709267,13.941864679259943,12.655674430759813,26.94695937838263,13.426330937189833,-12.406273891362956,-20.40770925949841,-29.82880995701641,-36.58368309822601,-24.171992973855367,-11.539659086167763,6.287814713661792,27.974177534129968,0.8208623295159079,-53.07778774334755,-48.23634444500466,-8.540962179490435,1.3129236696983888,2.539806231277929,-1.086027251541175,-39.42388804151159,-63.973789865789215,-31.292004151621235,2.4293270026148193,1.0256201946927987,1.1863847120824644,10.761648304102478,6.007015888389404,-2.523416184309564,-2.0333513572674526,-7.658593397334357,-20.65677571518198,-28.127616529206172,-28.56589435223064,-18.498176432857136,-8.199770222927995,-24.057358210868877,-44.69576380190176,-32.23479899049486,-16.47266285912807,-22.249087160669777,-14.520711216106427,4.50254141501744,3.646909200445439,4.72272653425631,14.688896259500217,-4.5699762351861715,-40.402073223978235,-48.58636162684566,-34.51906411398592,-18.570948189539983,0.3893920610093602,17.993552470084023,23.19726673358172,15.476953590658635,2.986724221758884,-5.838912200612235,-10.563685656235425,-18.23489102032842,-29.9158610501353,-35.93344819836561,-36.077789698713374,-42.77428198491536,-53.706070300403816,-66.35555408881646,-86.79333032665073,-95.68082061132459,-106.07103863336188,-158.0157706319947,-155.30073783126682,23.67037023669073,312.68241566784,599.0792604447055,705.2180579330594,361.6813837584496,-201.5847926205484,-350.164830518135,-132.74427649457752,-90.87172785290991,-179.442273591124,-113.21801769169274,-30.798686269072277,-45.45700861795497,-48.158167725903155,-42.74414302069444,-50.64090110965863,-22.279268491748724,10.575251578900817,18.066286059494274,14.681551612362256,-24.63720411884959,-67.20615322415837,-43.888602523273114,-3.525679342269953,-2.494970826930686,-4.792721528534157,-4.215988173954976,-15.845635068326937,-8.741199074781463,7.039662837782657,-6.38282473266967,-21.35566650501664,-15.407365860736249,-9.599391797194055,4.449213204345382,32.364258492374674,48.71534634923714,56.812253794525304,62.90350376255719,54.50321604518596,47.27696587602821,42.467471182350195,15.27334618218458,-11.797369801303264,-21.82649096541239,-44.446270590150185,-65.23865981887569,-54.647307885129166,-40.995007282004124,-38.75804113307994,-33.47509122639539,-35.55291452337961,-39.6675351294798,-20.226094555969055,8.035522348364587,15.186099626788694,5.748607174674639,1.6971078204857992,8.525138631683223,14.869043226403964,19.94858014276881,24.82528156626796,11.458863934657574,-13.746237754877843,-17.312996617566306,-4.79886507597283,1.9537215873280314,8.762976178970478,8.179867823422313,-12.13910225206441,-28.574694658641327,-25.35842664020302,-16.862430290409062,-11.291282478522923,-10.824387732128939,-14.74060195680558,-12.302312681840009,-5.493463666780164,-5.123096117309381,-5.841764234252233,-1.3677118849916532,4.196166438433497,6.654693232997381,4.01086133475734,4.876618958100496,16.660314577671294,26.565651146675766,35.809137985291784,53.39265269244296,42.45502430583158,-8.921451179178195,-32.36233316116916,-15.681035186575976,-27.546909085886153,-59.244496706824656,-57.25962842727402,-46.23004582006815,-50.390306698126864,-40.38053021100038,-13.055615251393444,8.725590416882781,10.717015721986769,-11.593719541660857,-28.830050258812697,-17.740931250141298,-3.712674115763569,4.134006812547206,6.738113626271712,-25.1390955513753,-62.4629539808665,-42.20354791565596,-2.5464935487583915,3.025702143880217,6.042363703060008,11.470638223748924,-9.196547718870299,-24.85717515576242,-19.464583608073877,-26.26824110515372,-31.4267317810484,-20.076531297431806,-35.148809541236986,-69.28760171902452,-74.85792671393736,-71.67575535326861,-81.14144357469563,-98.39397454540446,-141.89200365040674,-147.43281273218355,-8.36188724756046,241.60255676928736,520.4854957098453,676.4548236210807,419.1930863991047,-125.73436320917772,-347.27868904718014,-169.32124298833244,-92.7436238472593,-163.5749306975469,-119.80120492116681,-62.664656850656506,-91.62119007359631,-69.1379481494799,-11.679202414521193,-10.888860612869578,-8.521467326203998,10.580252033945015,-0.29676273335092773,-3.9756394811513562,20.43506402552072,34.53817611937048,37.6289463706981,29.819069033977875,-5.209141451719014,-26.76086606754956,-0.6548831095765362,30.087923397151354,32.669969206929466,12.731747584144856,-31.386499791054007,-67.43154331955958,-50.435761673013204,-10.844119193891457,11.105486908279866,26.925375832372545,26.004512128361156,-1.2415403824816877,-6.890584054183698,23.21618135842533,44.78903468285649,46.00109431614441,41.75768332872276,30.829900873752074,7.0317745019939935,-32.84713853134079,-67.44096530100335,-66.02844000366036,-53.70063123360394,-61.484666049160836,-54.765969746406896,-23.16402731687644,-14.629598764263221,-24.33275531586878,-10.733873394006237,9.310700524282613,12.161748312993204,16.94949722271953,26.993281766736196,29.757182529380458,30.003803097870236,18.06961074566221,-15.696997995573106,-40.24195379007514,-36.91572094583667,-27.48096908358966,-19.187604686058485,-8.143578309835675,-8.615331942606431,-20.110220109405113,-22.311011658773456,-13.581467519574716,-8.08750818948078,-10.104063060103808,-10.378851364182232,-3.8067878258957997,-3.3094697432191413,-11.523726355004936,-4.377928528498551,17.143380334639055,20.11141205307935,8.517308706470521,9.926870958923491,12.628904828949992,5.301870936580459,7.801487321185261,9.720488272363117,-11.619631315141842,-26.48387080794467,-16.84056589993286,-13.688189971000472,-12.472762560267844,4.2306126347534505,-1.5504799808270597,-31.500768369505206,-32.220346548573524,-19.043800584459504,-21.139550777553794,5.079594398444396,37.672633882222385,-5.4976773412183775,-66.39154577295798,-45.472565671904746,0.42724401980548166,7.3454433574206295,17.186906757615304,27.14881304136774,3.7710236793225036,-4.672756343166643,14.477961913734752,-5.648727154873406,-50.07944391274933,-55.0071168141351,-52.082332767746976,-73.50434035927707,-70.45591526528291,-43.45774557019263,-44.328696752694526,-58.69296609824087,-74.75095194906119,-112.97182746080881,-122.70423119028014,-97.7484394261564,-124.62207828747407,-128.1018065187822,34.9294677422301,302.93373162595765,582.4502957925679,722.8206873233091,411.5711917587322,-177.74969329496503,-376.08161188031136,-170.81124750086389,-112.67871362723041,-191.44924299409612,-124.4964347822881,-49.264610944549204,-76.85683763112058,-70.37371883768665,-31.943664984920094,-27.271500187876246,-11.015457607375343,16.811935284215696,17.25512180091261,7.781783551372815,0.07673118905931275,-8.690456869519437,-6.780153886069255,2.266155973701685,8.492367349545177,8.022026091020221,-5.193025676968665,-13.683728437574374,0.23860475087961364,8.76708668674353,-1.5192219733951107,0.13539885199430746,8.385973716526216,-3.2254781749318355,-6.212855049493362,21.478558897715843,42.89963617158124,38.53142952104927,30.616909050654403,33.814272198524044,44.811253251306155,46.83127124395965,33.45329518567794,26.647164412675515,20.176218031209867,-15.109848994538524,-47.65345628209849,-40.01439059073542,-24.529738117903698,-20.92518415093403,-17.163562664857523,-30.209322875197877,-48.97189192319337,-32.80138750118973,-6.787795898140537,0.3358191819070928,13.38477829174392,11.558582629447242,-30.17464379384425,-46.175618080326785,-15.186162875876146,-3.0494746340195995,-0.03917815925244916,29.562003842694402,32.23044718663755,2.2709430485439146,5.60175394992441,21.023713800353665,8.135578339295666,-2.1808342241495673,-20.850930690450287,-65.23231177931494,-70.21788849751391,-32.2253708939559,-24.564341088869067,-32.95294843866539,-19.256343750056075,-16.513151954066224,-25.725302232814034,-14.835766895399269,-1.8264418891356726,-1.904453948655263,2.2240417329970263,9.47858872638093,8.067704814255212,-1.1489265455147315,-4.078889220163344,18.660233160609778,44.966003849052626,27.419513727165317,-9.796818907284887,-9.093808395494886,4.036772433215031,-10.818828185789016,-13.716126186115073,10.957459069537737,7.033176315981288,-20.043537199897358,-13.592218044900811,-0.8784917905375167,-30.436453415033583,-64.60416076688786,-62.99360888983922,-43.149213473094385,-22.021726684987005,-2.0718576391749366,12.469864428683174,14.565580516967167,-5.897109248261593,-26.901301829950544,-14.880981848807533,7.232933482182704,15.083367077320652,16.105637585243663,-14.844615795000884,-73.1822105998327,-102.22926133486479,-114.0868516845365,-134.92086148565284,-142.1426574783873,-154.64458267179774,-146.68859557625592,-2.661025146926633,290.77049244019815,597.0848695115791,656.0521543153012,271.0609414298685,-228.96310963269352,-318.2908673589774,-146.6628913786058,-138.507272718471,-181.1373628079027,-102.01358630554034,-70.55954394173887,-99.17898751473051,-49.27533117823712,3.330321249405827,-9.310750027011736,-3.8684339993108736,15.255128878214684,-5.951998252814107,-20.34587143687836,1.86197769216448,14.94057598930025,7.441613996467016,0.7798203072455774,-8.646563992304749,-16.637366381706812,-8.761718895133178,-2.644577764580617,-10.403883544634178,-7.978859232935029,5.935705715479386,4.0646429377769095,-4.15955031916805,9.912951798380332,33.64722256417742,42.30711349207288,43.9816432963853,48.16654407415399,43.67171845503725,28.519241715058584,15.854581434800178,13.145297929328866,14.923665726808325,5.619344372393365,-17.54847943040103,-33.280229683942395,-34.166653385619405,-34.77948114756773,-35.69221642568412,-32.313212162872965,-29.597657866030467,-24.551332318814993,-17.190746814248804,-12.985822729494672,-1.672922163021342,16.732003530536584,21.54452636096793,14.490019412219214,14.35223394573851,20.100355563217704,16.35375720563932,-5.330282605003061,-31.021810750615067,-36.121956071880724,-21.856278601103156,-6.9697873111083455,4.196626374726469,14.86277816546619,25.32615244192328,31.311954416616274,22.01584425492016,2.152348246750413,-4.47062522951083,3.877961425297629,-2.218217882726755,-34.82585889248313,-62.544557876272656,-58.91681961489883,-42.2430988752823,-26.84962570304271,-4.014708706177988,2.7245980468560127,-22.88697416623507,-31.929432534001783,-6.25142186560595,11.476727905350845,21.823127203579332,29.46899521522676,-8.094972894837575,-58.04476387145674,-42.084323467658216,1.1386900590568523,9.182956796228213,13.064851602048435,20.457892994991266,1.4125402136037302,-13.65339629750364,-5.41803368698465,-6.842317996473014,-12.703885125511285,-7.939171519503741,-18.596821858572525,-41.78604811187804,-47.55609576949696,-38.496273108598075,-26.33300782451013,-22.40806083925675,-36.05012334210271,-34.01222485085242,5.827471362604701,36.5687332547453,32.03082208137478,20.68647556005918,6.6786145473026615,-14.114038545615365,-19.358009978884038,-14.248873711581414,-19.630454879517604,-24.781388188392185,-34.274412737901415,-63.29226549744391,-72.7897285427387,-50.95207713658777,-60.541650048519045,-89.44553106232134,-89.26893382086223,-129.90924436184267,-191.5956018956672,-89.65060265968492,176.5478744727901,472.55229077691934,714.2715548719202,618.4558266477815,63.952279460829644,-361.33124892595566,-261.7583573366959,-109.36639133390065,-185.9085313999105,-187.02612859854466,-83.54238543423216,-65.65189713923937,-55.46789864603626,-2.30540268999032,13.050881746776469,9.315100915640045,-1.297316226970029,-31.000190966885036,-26.65956546649252,-0.8796155078239423,3.4831466592574287,13.494428964931613,4.61624731399322,-46.30697592187616,-59.35335718390772,-28.699017445627952,-27.087593418898162,-30.022799043642287,-9.64690344496756,-10.130678879303154,-20.799300113026465,-6.561907102416437,10.259996922527037,22.556186667711295,40.9880333057613,46.26950328938045,39.68929594225542,39.321677305345474,32.87662352105209,20.701686490634927,23.286214199622577,28.81716016970441,18.312249604599284,0.1619302534421756,-16.912292872415627,-30.492146685339698,-37.642864512346804,-43.76113185128,-47.92744528553544,-41.58305823892987,-33.04985969772052,-28.376934060964796,-13.691899100472924,5.333628890186979,3.575709449219392,-10.50192966701649,-8.000723721307303,8.510925420727737,20.60296193931388,27.993746379842555,33.54551884624729,27.9288139867069,3.265322300357333,-28.151436314232004,-33.92792184293029,-7.3985594539519965,6.696138823364738,-9.986625872294676,-12.926202874762918,2.6357539933710257,-8.141260657799979,-25.08214347386386,-8.876885478954293,-3.2218144533879745,-33.2427288057242,-44.387185565226574,-24.39174866721149,-9.017084157575463,2.5637780063147364,7.328081236510062,-7.640536220153356,-11.068791777923803,10.997738924472795,29.40298197774614,38.23324791407617,26.252748608123362,-21.87937558490261,-50.587995489763635,-22.716511972538676,6.507051854090626,14.51724189335909,18.004271506127992,-9.984922037660347,-49.247119356107405,-35.836393916369275,-5.972052870385603,-11.17557168771802,-7.667401135348413,14.517528038362029,11.152045686324275,4.782702293184595,17.833683758843566,3.868841189826874,-36.53179128141004,-48.483018192471796,-41.62769780384569,-51.9250048737828,-56.96080457652653,-47.28456347552273,-58.144728113691414,-80.44781379447238,-89.27379975615465,-105.55424081844603,-116.26471783471959,-107.44317055247603,-133.98104639911378,-143.32417782265668,2.3038225069858242,271.4369587926433,562.204730185893,728.328406953765,467.1501231125956,-113.35960839000151,-357.54242665595996,-163.05127977729762,-77.35381815412929,-157.90730690979305,-114.91939275133731,-61.96546388862385,-108.0879772691751,-97.79855422021139,-42.84038803441294,-32.98089008243597,-17.825471330929524,-3.628573950603297,-24.291654820381943,-25.514324168982313,-6.797631809307166,-10.714452820509912,-14.8340371087669,-4.592339681611858,-1.0245982163849554,-6.500307624783668,-13.02065990570138,-10.64488455542757,-0.6654939803947881,-4.388566585241617,-12.661395461352736,0.16131517802826956,13.169249161315568,7.44058414740309,8.58459044718956,23.728540494516917,34.88402968079436,46.183500299063,59.64255368306088,59.97127131485899,52.21672509569808,51.43927626785262,56.023100859889084,60.75572197803324,46.965251964743665,-6.4344175472107,-60.17204788295495,-60.59540682804507,-37.44652928405044,-35.30110798678828,-40.8825332974136,-55.90565205010563,-88.92621470315822,-94.06461026146907,-57.6802357882316,-30.4684018723947,-20.941467449676768,-6.9006655316129475,-1.6108145623866257,-6.705459021382875,-1.5976371823463467,9.90865756278864,18.772988361161183,20.748890925620472,4.716998472067893,-13.720257215603986,-8.791297044396307,3.762999578966622,6.622977241377151,11.062585960641021,9.407660558766949,-9.193671245809774,-15.07072746777439,6.916448355777607,24.74675668766706,26.449469619851666,29.647895775414455,22.64941647597556,-6.799337630418998,-20.336361329500118,-0.8550626766945335,-3.070074088578302,-46.36443521113565,-65.94248201498797,-38.71820038766045,-19.846586035598197,-22.69432363353711,-12.90019743755489,-1.7832307190409225,-12.492878092057762,-21.6809209234563,-14.47745959127949,-4.45668588477513,7.346811829646995,14.972991917499032,2.617934695765662,-12.972656085284543,-7.3122801650269995,6.3178377362121525,9.042748405476804,9.96165413531189,19.42663134510687,23.73128066292883,12.230817064920291,2.4274605408635477,0.38241119032157656,-12.226208542048308,-24.681986413245916,-19.584727054044716,-15.986052488656506,-7.5291247875095575,30.08273082877684,60.20640688073006,48.18252382953717,15.698006839562286,-22.923175308720808,-51.897716375420885,-45.139370026613776,-26.290829478413436,-23.23303879616428,-26.39497381738716,-48.351868544658075,-91.1350078806587,-106.28056045707493,-89.68802124439215,-93.2433605956125,-113.74864679536248,-111.41443567352223,-116.3263453221087,-151.59071780791572,-117.67488951930217,56.99748991337428,317.18515021104776,595.4089886718047,689.6128036300304,331.5550515269581,-203.6375346815504,-321.2663962505575,-117.77009395711839,-88.73616955615881,-163.79826353233847,-93.16873751084603,-33.738184389543406,-83.67332333415362,-89.86145589324178,-49.0516084030121,-53.094684136808766,-60.73301403122331,-37.14499579615772,-21.550422796179,-14.018606555549198,2.9022957054812686,10.05980669942781,-1.1112256445749082,-12.859672292097478,-15.2266559408655,-9.185215618161422,0.8216376173927138,6.100116756961484,2.8355672133835013,-4.987813753117293,-12.84366445478026,-14.375662074218688,-2.0273628010815328,19.27416921789183,29.96660851572595,22.632393594636927,16.166741687406322,24.877544717363072,40.4911634092336,54.23164774984549,59.4773400078118,47.037526586641846,27.03522145284629,19.442299122997202,20.832509746028993,13.033090739688005,-14.985086783964128,-52.50211130496212,-65.32136609032605,-46.388189529899805,-27.85451249568945,-9.670071567543424,18.145451666084796,9.730378397874187,-41.22621874299992,-56.48576157005242,-20.17007162071036,10.032203623611949,24.632924227671662,21.876554655046412,-22.37255315627563,-62.067584027416984,-44.14558803493301,-12.227346052043472,-3.8356675817223334,2.3841776318363657,1.2035230644412849,-14.639749177307053,-13.618282504246324,6.738562533682478,20.2484197354942,21.96409853284335,7.992427201265793,-16.29461575089813,-14.398778065092445,19.395573945346023,34.95271061402035,2.565158810457433,-47.23644733074157,-71.92688379882233,-65.58062602222739,-48.682390964076845,-34.23833221219138,-23.907971581225397,-18.335701011559586,-16.90473547763571,-16.00564948660194,-7.106968494926113,10.872868328817741,19.961618837107668,13.95060321963602,11.45285103408839,15.732291182962808,14.571558266989243,11.461621442480741,9.460688336076199,-1.7127708754604924,-23.342715517118826,-40.63503945697559,-39.428565876437546,-29.402522228883264,-32.14139002609208,-35.42226915555889,-14.563453501460634,14.825255354079644,30.352640194497262,34.60694118310798,29.116491186059097,19.295503030132068,11.500007720195187,-8.22109961938418,-37.33320704628134,-50.74813556997996,-49.15179625759154,-48.59047371760926,-55.189335520095675,-67.96779506125407,-79.98868459567923,-93.897081534791,-107.50504123952652,-114.23914881555189,-138.58187138468236,-144.61670716690628,-22.157712839872033,227.40635140690512,521.5888201445175,727.1380175940538,540.4708282296198,-32.45281014855559,-371.07653060911457,-220.80643107592914,-90.5101517542156,-171.8204365181047,-156.54393550184167,-57.161290274283395,-53.48545331930691,-64.86473807257953,-40.674199532675004,-38.054347541505095,-26.861233638639256,10.819357311700758,33.29987739062474,23.84650027834946,-11.089534410736015,-29.738992767798084,-5.206205712737717,16.778024423154072,19.06060141521275,16.413271824226687,-17.701964781211068,-57.49633402084519,-41.610933381714005,-7.202345699719917,3.271576976279956,10.044408980973703,-6.775822035408318,-47.480157818404656,-41.48460050763064,4.543053673301708,26.451848123331466,33.69949106608769,39.330134127897644,26.379164310425224,25.635197276254594,53.308081316205154,63.65689295433526,42.69658619030284,14.440776153381893,-15.987918226250418,-40.65124782635713,-46.11616192794464,-38.86737180029285,-28.732201870865246,-24.3998138031033,-33.57231843605523,-42.97728845492542,-37.65122779063568,-22.49057177566173,-4.021084974355606,5.415431841643358,-8.420792146383036,-22.516043137722455,-7.952503400680371,12.205654855752499,11.49731143992531,6.329700451032546,5.25087172716964,-2.4465170104783827,-5.545680625941434,4.714176422425649,9.774802211018164,3.7441630853625005,-1.7142508270884127,-7.805044935655394,-13.296065785432337,-6.086568074066863,8.177817101102208,14.324691515020236,13.360513033805553,9.490425869103174,3.157192452742302,-0.3161547106900082,-1.9875663620740953,-2.9327633184261277,6.986217097995217,17.681027657106362,11.150701145328025,7.988219852560256,13.005314053650476,-8.24273737454877,-31.552678373623984,-16.98431788784713,-18.650358857054954,-58.26690247332425,-58.08874041418987,-19.234809341270562,-6.479522442797542,1.888714765428226,15.272673368008562,-12.59911278735012,-40.118444627456235,-14.386197867106029,7.487550794985395,-5.314920927123737,-15.63321730063268,-28.956322598625537,-48.1662385126835,-41.07547386455983,-24.754882072307502,-23.67633349111273,-11.349055035484696,12.044719626399422,16.69927410023734,12.659873266339247,12.45579938766384,1.2128338687363076,-7.415720936313949,8.640354746101131,10.444012446109632,-33.735410296552914,-68.24759640650412,-57.966237902566824,-53.00341015926523,-70.5121409096082,-88.38769561780158,-111.85408849233924,-116.06900092063032,-98.91776923467134,-121.92219806000294,-118.89696060501255,32.41762610757925,282.32438765684225,546.5182891350908,674.0600283336637,382.8840893063798,-147.35100036453397,-318.4146532258433,-149.5223972158447,-121.45563052377948,-192.22964069371136,-126.3415652882028,-62.352116420438996,-76.59895982191067,-52.02111688208357,-16.21549106359661,-18.87789964395903,-5.219980655341502,25.67354900790776,41.34578764124295,41.964497568491694,23.725310591688768,4.7266923551487245,13.945080119299593,39.29932998745874,43.81455554030053,-5.6988446550251055,-79.90294074316074,-91.7815978030856,-47.53650971049237,-27.262499806659473,-17.198809306284485,6.615323229575839,-13.114786685207271,-56.1212932216701,-39.34813271572705,6.266167678329831,20.456008059015907,25.63375367617565,28.68616947790154,12.800452449321867,12.008356141312122,41.62401069356018,54.441027294138046,30.91992252222407,1.928256425495995,-16.625625407343847,-28.724980419781577,-29.826059385725745,-23.856793479291056,-24.76604428506826,-23.770782508114277,-10.682857874436635,-8.01502640082807,-24.475518780211758,-30.434668857857833,-19.042640521234297,-14.771003067875688,-19.035276085828166,-16.607146467431605,-8.037461386028024,-0.375031754680931,3.0444018744429044,4.524080859544766,10.327284709961546,15.375466859277715,14.970034651407685,19.482400339608034,22.256964440912427,4.790385990607408,-16.626022442308003,-20.799379193532133,-21.231782202435394,-25.40883026391937,-22.98983938139775,-17.441042899452707,-11.960038142869486,-3.6843533922201086,-4.177842578612651,-13.808764761482838,-10.045851135091327,7.073611469678309,15.538085035705535,15.173055075422855,14.898535222868786,7.700649179615527,-3.6239900436090817,-3.8792478745558245,5.272784837249415,20.03129057471373,38.527752241696696,30.635444606251347,-16.044832866821366,-52.43470583864725,-50.48773117616863,-41.48460580351839,-39.31695824663312,-31.99254354292147,-23.687157018827648,-16.66651630917887,-1.7867685452958142,16.32954146502105,12.507618292806836,-28.27696347963154,-67.69378397271655,-59.43243732767594,-29.10018378211883,-13.438552349476673,3.4965632897947856,22.426985132273288,24.896406213010604,26.10046249538054,33.432710921062636,34.95380838667585,34.47734940071815,18.605732754258977,-31.227267026793605,-78.62030244613918,-87.22397645382027,-83.12887546212782,-87.97514966547885,-88.65878173524567,-101.9599114532008,-136.02888664768744,-139.18889294657808,-124.98496394980093,-148.84497586145395,-111.47898813893028,89.50343338348904,377.2781517801726,655.0167969087722,717.9017024577169,304.57310118351427,-258.2695518333922,-351.08891622476983,-139.2215376949929,-131.81837302897094,-197.13960808083738,-105.92126618393279,-46.140655207939446,-75.97565048685385,-58.167236879705825,-27.081933029498067,-27.875662068178357,-5.060810412585875,21.833962409493388,13.800728383259209,6.418649081256483,17.557375944937974,18.619981815772373,0.152688008295085,-12.560256325651553,-5.830132221811228,-3.821347087937294,-17.59495763839656,-16.640012328180173,7.478330285613892,15.143860526696473,-13.309106825092918,-42.633928016566976,-39.96736027211032,-17.970363370316512,3.8062907045296703,23.075845988306572,30.90675086537015,28.362243422636812,36.9487813722013,54.568067356041674,64.6296555416967,70.15393035339048,68.94853521853572,51.042309716800354,15.619227494597602,-33.85852126304678,-67.64680149143128,-58.01553932151265,-36.76055357385239,-28.85549304805547,-20.53538145341582,-30.045848504408223,-56.44573813810009,-51.71877287709548,-35.536997791948366,-45.63529074244624,-40.76606075466822,-17.84257008902253,-23.460853537019254,-28.691985596156087,-5.609316445288819,4.605557697093538,0.763014282004562,11.34872554799745,16.394951517042998,6.096987462406499,3.7343646107781527,8.509436749969055,8.63922992428752,7.870772412650101,7.936573904571144,4.776210387732368,-5.576379615455966,-18.117733217080158,-16.62866090564843,-5.492537960802544,-7.993875861630778,-18.02551638591755,-16.450623268927828,-14.14919106127144,-15.452977476989313,-0.7278887514180195,16.96843970930575,8.337496820650372,-5.177491924748541,1.7414067073590935,2.3389916055971067,-12.971225812830797,-11.540698343516778,3.21131327640588,1.45922275254547,-3.636804382492099,14.222603429281676,42.503510510223265,47.59239823651858,11.368548154997635,-41.72483640053946,-64.10365701169187,-52.672283531730024,-42.05614764210833,-37.16784578197214,-29.1997294681767,-30.990824234989976,-39.215927338703096,-32.602175588042314,-12.103491166944522,14.879354566260556,40.19875523117204,40.454036644572156,23.71800554003302,24.355512275459496,31.292904824847565,30.5213798948354,37.69334001727461,17.249029002450186,-47.60132655077216,-69.47341074952087,-40.040799257218765,-53.11231753620679,-84.18691068538925,-91.76520885483598,-141.30486750604297,-191.53563968340006,-166.68302182345195,-151.7290328098029,-131.2177209618988,38.908343715583186,323.2677055981968,596.8626307763283,679.978977941063,332.8307934846981,-190.1097012601884,-303.6564444103482,-119.62117240466095,-127.39277854836904,-210.29669977360808,-126.81010159551255,-59.55676620767152,-79.2374828164125,-55.0680477632596,-28.57453419158106,-37.2466970178243,-10.546742166835344,20.543935620183106,13.088243379274992,11.447893491689221,15.62307702419729,4.8549033599685805,7.706044615991967,19.359910419492024,6.388837038676785,-16.582405467777953,-24.874003432979833,-23.779515639853233,-17.91181835805542,-6.84041419484734,2.834233479540531,10.556289094088807,21.706812907153466,31.154726757067603,25.635475416756606,4.32642756748916,-11.252823955451444,-1.462277490226171,20.65394406398082,28.649081806217982,25.569682079460357,29.901790932351204,33.10647870878958,17.77039226504904,-4.077967303080099,-15.176740402339401,-22.679186655527207,-33.797574159539046,-40.63056023147105,-37.79888655315644,-25.98778833088656,-10.099597605538287,-2.50719105283053,-5.5633435001640485,-3.6888999910493254,4.472913251959437,-2.024139141569343,-21.02868943172635,-23.048235243815604,-8.708481289885217,-5.8931914324369625,-12.06020196812733,-7.937826320052251,2.4110709903964533,9.902115456227673,10.932780272653432,3.841278073482786,4.494240934351547,18.865513396391055,20.668306462314504,4.361989235478182,-6.349939312786182,-9.592580637829421,-12.254210270054433,-3.445006569137379,18.515161063885106,30.220829413772947,5.903965719157995,-37.9220601182144,-47.111688101575595,-17.477188107044277,3.7900180418274587,10.565453933031579,8.616387710693957,-24.87995472807304,-57.322443685498186,-34.802645961840255,2.010382068735929,1.948047513150808,-5.671325426548073,-2.4211296448944566,-7.174074386079891,-9.688643083709959,0.13820338044385494,5.016892490879528,0.9227393832090165,-10.396949895835967,-25.30347558303511,-18.0026291867772,0.7785620222362439,-18.128662994407712,-53.15553640622341,-50.17851617728951,-35.00266507614704,-38.36508135220327,-31.186453213306635,-10.034707477018475,-3.151360275009349,-8.759042179054916,-14.446332562003903,-17.045472167532004,-12.597649913413271,-3.0364316105949136,6.483178925279743,9.48929162948154,0.9934716042224352,-6.867612007649196,-1.1610264464135538,13.62107873481212,28.818788411964377,31.449298936329704,14.52945121069411,-2.9618974570622694,-7.898670819571944,-11.229121931050882,-13.882341520921734,-13.112785579604868,-24.121677326626354,-43.42991316764141,-46.110695694283095,-42.53168765401871,-55.81490212853438,-69.50498177707001,-77.16152963016214,-91.90362374499882,-97.0124816253751,-104.12137198027663,-126.57535454158297,-62.05774657023508,160.409467811351,452.95889976648806,678.4557062442695,612.5205433974713,138.59452547052166,-308.454606587203,-275.70301838864214,-83.0505206792796,-142.11773696180538,-223.40220657699768,-131.8679645968886,-69.67605777518588,-77.95031564742558,-44.79874914800668,-33.75446053866731,-65.89770737239316,-44.49457074121206,-10.979318989317143,-37.214028567126746,-39.30025510497098,22.178592062215976,50.451931913195665,23.27691520158512,10.845048422732228,21.26464988298603,22.90926809248246,8.563639099344497,-24.208451268902277,-53.42206737979766,-48.88145808296112,-31.900782549072026,-24.901074760751733,-10.38940473731458,9.359860509208703,16.117904834729064,18.522717386975064,25.5911260870379,33.98636760795656,44.53345118773283,53.54500551796747,55.16821835717096,50.8856580090159,41.56434686266324,29.52302217542732,17.681730714784713,-2.530717110681275,-37.860557716556485,-71.6009287106753,-78.60278813553114,-57.807301504615566,-31.59748635914292,-17.705603488674342,-18.36047402809143,-22.222433676088357,-10.680825621200537,12.463191296971926,18.992607122225124,4.890332126947053,-7.86719919317779,-14.385844480679218,-18.358505447722784,-12.649596355665972,-0.23321727211119025,5.829660902645083,4.494527915820317,2.2685863967977493,0.49067285127085825,-2.6298800943889464,0.4150877939686277,22.63966466097352,42.80321960404291,15.179364904431779,-41.846516298912,-56.5211505699434,-25.024351297000877,-1.6580376515605941,5.980784661360012,14.230476143628565,9.692605425328733,-6.769567439770075,-9.754309980515359,4.673744675346356,19.858795216736063,14.40367534879141,-23.750512239117807,-64.6636590092032,-63.87934959952833,-30.81748584647715,-8.530060608380637,-7.313478959301577,-12.592545354573943,-22.82268428665271,-38.02125006786956,-45.66343048560716,-42.07244180262958,-34.89091414532285,-26.063387659441876,-19.093129681224504,-16.358378492291806,-8.837838502611824,0.0608827594686403,-1.9621566468389986,-6.3786496780199435,-7.287323917117991,-10.49894253553532,-4.228724996894018,16.63274327514501,34.50268401167229,40.958598138371364,30.77446681744895,4.677805873104358,-12.076432514114178,-13.653266731764946,-19.699816414514693,-27.484615848158526,-30.79166609410453,-35.6755358680473,-42.24984758424835,-56.27252289279591,-73.38463606121118,-79.81995440961376,-88.10200035590682,-101.78247079878122,-117.1277407136806,-139.3396987722935,-96.91192359361534,85.63991355540196,362.1090210130367,639.0291291902887,693.3203077409507,279.7475933643144,-268.37148688433365,-345.18194604747464,-115.09982041426609,-101.41556611290267,-189.3241028076884,-119.87696261998711,-57.357423120683336,-77.13583879916325,-46.131059590741046,2.4669178574241535,0.13248579126542737,-1.5880317683595226,5.647637082766201,-1.0034460731038166,9.7006489600683,42.55966801931014,47.24074546594322,3.3020745945275074,-39.717213787661436,-35.01143017694057,-5.934442300982196,14.935027717807582,24.501782728683402,3.1906402494554875,-37.181717731085726,-39.21021184322179,-23.441527579368596,-41.45825532617369,-46.47139149945548,-12.772589166519278,-2.352594885953838,-10.523246067649946,12.157252043144991,37.51320976591477,42.23374846461044,49.99309643322336,48.65726589161243,28.743445255273272,18.64769196806929,12.436492622590508,-6.557163231873637,-17.46452479888913,-22.27688527249544,-43.089254419339134,-60.34085782226887,-50.31022577331618,-25.303307929634233,-6.631474577083935,-9.45342361557924,-23.83105752341953,-15.736926443481266,12.44581514124095,23.766778497127014,11.81826290490136,-5.255974439136889,-16.578241413857263,-17.82229607275871,-15.717858913170728,-12.014502722751839,0.9708041064903998,5.942847007215424,-8.150817873768592,-12.789781139268348,-4.144058591797831,-4.0778366271373105,-0.2652964351319911,8.678947848720671,-4.914465549368138,-23.380217157013224,-10.140882277381058,16.410268052732672,22.270252291606226,16.005267862070767,22.636963850278825,29.447817554271037,7.882504288022858,-17.723003220834972,-15.167605909099555,-16.15397565857025,-36.444754064151766,-38.04981463816056,-20.408402206640208,-8.354288049696386,2.913475941828157,13.30073170389818,18.42372265220687,13.088524758772849,-23.341008502770343,-55.866401859966146,-24.461680597624827,19.730864677789953,2.4870956079231874,-38.53484748504315,-53.23619252653462,-45.64824295394197,-23.732531744666684,-6.465508066582856,-1.6821331492218512,10.60429875079354,7.12800899175263,-33.098444908757315,-50.227075582387144,-19.956121226765298,-2.950900061946051,-10.713500994791623,-5.664191637201686,-1.7372424738477648,-21.920716752083653,-40.034618949850575,-35.05658502733108,-22.4905624531586,-15.21211839659199,-11.086594501796704,-11.932003276762313,-11.40656494498688,9.02990923408149,36.65718297728767,37.82046191210111,22.707267359239122,16.026373017393976,4.297475126224775,-14.351053364169946,-19.6544468858872,-20.834527676276704,-29.714030685712423,-42.83041475142596,-64.77256690690142,-80.38300043862368,-77.69297220090817,-79.0347204892048,-83.6483188229404,-99.9885984044016,-143.13384661215167,-109.18590625106984,83.59073390716156,350.22452463562513,604.5195974588693,664.1760117766748,281.9769315544884,-241.79687239093658,-328.7902816886437,-129.86034529244392,-115.77156935012675,-176.26950719755342,-111.94037136583133,-76.31875144113903,-96.21331245636532,-54.39007432726718,-5.437899478501475,-4.327815699283644,-4.4019105533802385,1.9124327638810579,7.473715166719261,17.2823641222752,19.645210059335696,24.851991265007854,30.291784318008435,-1.4615121638159607,-46.26716480347077,-45.18172257107823,-16.710488346560943,-6.027158682205673,-8.736664066393148,-11.350321622652515,-11.25621691873145,0.9550911909302151,27.89107471306569,57.55353762638358,66.19128727931269,40.1250496171411,10.981763252179034,10.175458679472893,19.851777901092596,33.09458539221914,56.25951322939939,46.520628583552714,-8.700188223234434,-37.83519424843684,-21.291078376976557,-24.359986256332782,-59.07212115155292,-76.59778214742232,-67.37712078757096,-54.22524992416113,-42.954972858278886,-32.06882526682809,-24.644082670861764,-23.041586829575035,-26.626209890332397,-23.858088646597942,-6.746005944868987,6.023371690052922,2.54139431670216,0.725959684019557,2.5571439046501947,-3.3058763550754655,0.847460412611774,22.201024997707965,35.292831526586205,35.808151796938105,32.86957869981906,21.49803785596712,8.979439286934575,-4.860082657709842,-35.44606008407139,-57.60683909748565,-47.39153179385718,-38.466128023101554,-41.89704563392293,-32.5985622753069,-25.083267418674374,-27.61330360326059,-13.941495029721963,-0.9444719684584761,-11.214259895028285,-12.555579772089047,1.5034289468039344,5.530652914582014,12.345856473766371,21.92209147849246,11.596718990114372,6.398153231864256,11.347742658387025,-19.38890759588162,-57.26148392314118,-41.74880019078496,-16.199714086201507,-27.948037443901974,-32.93195184803159,-9.643177911210312,6.261372184277363,9.105508027249254,14.600519501674846,18.12488554489056,13.437328769285227,0.7159001488531267,-9.394598295705402,2.6277596914619448,16.23115490026133,-11.636141745140414,-51.560916489604836,-39.95838113199788,7.728511413738474,41.22070140032953,50.33048071867036,25.085017462573564,-33.30785706911601,-68.60820672721016,-55.27885946032646,-40.029582950659204,-39.57440972585022,-40.47051908899397,-62.23097636784034,-89.50393592763436,-83.80807971410857,-80.0606820064657,-91.66608578566553,-88.82429458180985,-122.01221877338277,-159.19536344506028,-26.52397895611591,267.11049600502884,562.6952680834877,720.6633665404565,493.4877350076706,-72.36073685942424,-368.3872155480286,-202.10046795061157,-99.0538861033258,-192.17533518807218,-165.14504282698434,-78.2277364029672,-94.74812974751367,-86.29182886908677,-18.400503135572425,4.779240727354821,-3.0848219727049084,-6.938542880807063,-12.395724296619903,-4.478283997109008,11.515771412974232,20.886825517213524,25.0585419514563,15.300391809582347,0.9456111577690565,4.662261051790625,18.21750584566519,22.445047691517274,2.7852995358955397,-37.43328891112704,-55.65642559250043,-34.13865199352775,-11.597440585460145,-0.8144925071520408,17.399741532987694,32.28693796184688,33.78148725351335,41.39587598455758,54.07762393655767,47.506261250542885,27.98498255212288,21.496964125455282,20.245083752196877,3.581749768810278,-12.466305736788675,-13.336835280702672,-20.51325306740086,-36.40960724059041,-39.620364878106,-35.09138393875697,-27.442968919079743,-8.608662134343533,8.735608018966158,23.588998696320196,37.74733254802925,14.858074795612655,-28.65753870477708,-24.881834530761527,-2.5239120234860017,-12.828989658620209,-13.568036184519148,-5.378013334717135,-36.627072901503325,-60.97367088994231,-41.91137779928685,-28.500228759179492,-21.200140672093372,0.3092990036458261,3.476088608136159,-1.0481870662050987,13.604959495317544,7.531298907851816,-21.14350614985382,-22.31296244125853,-9.811352796946089,-12.901153412549284,-14.233994286281902,-10.143103197810042,-1.9505293537833417,18.807976942481137,22.86242694393171,-2.71790893055622,-16.306587989111335,-14.886851333699173,-25.792282100023705,-28.567921865713377,-16.25788450024955,-21.84438836190347,-31.11182539501612,-13.359922113480751,3.5163946519638465,2.4963830066022012,12.494273856972953,23.2635999125823,-1.2272933273293205,-37.05550173304455,-42.4983320104287,-24.469618574690845,-3.2708033981456737,6.566151253571334,-6.273345118750857,-16.576531843322847,-2.4373145226985873,1.5711712700639033,-19.37556182213737,-30.268300615813754,-27.509540738819013,-25.703974856780576,-16.95827333676013,-9.771388724414617,-7.633195359612605,5.8867118283853355,6.872770353328619,-13.194020377359525,3.0791646717250156,54.975741091094356,78.14743732788314,69.77665042901319,43.443780028578175,-12.670293035566232,-53.177532632308434,-36.951884125598326,-11.407230898969974,-8.02209045702427,-16.04997408660654,-57.37634807314363,-113.05276123478805,-112.62702172708698,-82.04511893904936,-84.85697580806398,-96.91946298961352,-120.68483340858683,-161.8881067494379,-95.94190949352836,121.39107333219064,375.2791050353494,596.1887689607835,596.6828213970214,170.90433551634243,-295.23595535647723,-287.19434831472813,-87.47259851947248,-120.62623296593804,-177.72370281695547,-96.78178521194907,-69.3138933092665,-84.42176610230635,-32.786856806421106,-2.6887110044901092,-19.863508200147045,-13.073124919251049,-0.6391440203683203,5.450836336197206,24.547306433136438,25.037021150866053,9.871361759013777,16.54155606941421,22.592083706588145,15.647636852179234,21.981603623863926,13.26746953995254,-33.00523838563336,-53.94326181518432,-24.849634273972292,-5.1255436301714,-6.827137430136216,3.0273859560608596,9.297975817686929,-2.576882770253997,-4.338015334843293,9.525554525635467,17.937247006648466,21.493759078664098,29.04355762299583,36.00718138952062,36.799982071510314,32.50502107336908,24.591371634201966,10.834125941512749,-5.392711425065917,-14.733449421516216,-18.21684242804897,-20.868743520445626,-23.203170654717425,-32.12146793365339,-43.40765545527367,-36.982795754191955,-19.109289052190945,-10.580708385224229,-4.296349326715131,4.438905487527601,3.4744295071526565,8.211519360686946,34.7119851569753,42.867587382047056,2.4495866879990125,-32.867706551676235,-15.068625789545038,14.783937492424728,15.501541870278011,2.0538805434821015,-23.5572839355655,-59.68188198840569,-61.351176236631304,-24.737187209494834,-6.630583080466529,-13.375698088257028,-9.458234700579823,-6.316443113942142,-25.09401509871067,-41.47891845817614,-32.06016052760515,-11.965057248697505,-8.563855980079751,-26.35936553725667,-40.14293531491002,-30.47338791914947,-11.103806269805325,0.025464478814008373,0.6459398240880816,-8.340255118956648,-13.995525530852508,-2.2819014895119647,11.204534616755309,15.214014050601246,20.957992932448946,13.165699532538401,-21.307836688200155,-39.90826970744961,-17.385194242218308,5.340911783787142,-3.3390996586566644,-28.720434924745717,-43.926685276447486,-34.64292895503242,-16.079625053477983,-12.547940190833023,-13.84734927059707,-4.199643135598539,-3.2778961082333034,-19.26851183024575,-22.155540346254202,-6.540888430906419,-3.323838030259969,-12.262179445378834,-5.057313436590972,16.61922344233098,33.31721789072866,41.18387418391287,38.88158052422599,22.681885992365743,-1.7085387639819452,-23.4096255757481,-34.053338738240605,-32.13116120503521,-27.31659012139045,-34.96384109320485,-54.12854902388271,-68.52271073702006,-83.36979720580382,-99.32943837876306,-89.69715128085063,-92.15994886852624,-141.9347740802282,-109.1193467144291,104.08747763432525,403.0277974560546,666.8381513447712,673.9668582342421,225.13023567259435,-290.04039930641204,-330.43539487902024,-134.6003669012744,-140.07546441700467,-181.2134105337689,-89.77204066261149,-50.26625332313097,-89.50465561728284,-87.21554818035848,-65.74437879122722,-51.763142073730855,-22.32587492748639,-3.0425894208208106,-1.7149265278908175,9.184687342145917,21.400546173937794,19.514479041726826,21.59274729174686,35.22272120159012,33.17190989033691,12.55892094879811,2.645627944909185,-10.270188145337885,-44.08883449784067,-51.91891762693625,-25.102230811750545,-24.335304210169518,-44.123525175738244,-33.83448490465837,-6.085300005175673,15.052878785784317,33.89799813063284,40.84884441896852,35.7620218593121,36.441213925659056,37.80881994247657,35.633463669286215,39.76366829576928,34.935483050281036,5.04923930628289,-28.552652217741592,-44.05783635310259,-45.44857631590494,-40.677557425483826,-33.530056426289086,-28.383022996504636,-26.01359792816066,-23.047667451617382,-15.893722406002151,-1.420172303871876,18.613047915127964,30.02884415782172,19.468689536221362,-1.2190901602905182,-8.871821294954945,-0.7535159993828016,9.35642069822322,4.774717935192205,-20.911237284262615,-42.09806565714008,-33.138165820822245,-13.15711748207342,-1.7440940689355209,8.420058056821876,7.501044121234404,-7.112765756789772,-4.427436425541068,13.364739365061858,21.93192732799067,31.482787394569186,29.805561686520964,-7.922077581521906,-32.398664024715956,-6.153119714442646,22.544209260396386,28.478092686208818,17.549181974379163,-31.81547818962741,-85.0825971800677,-73.14935217229387,-30.998327464682095,-22.16625421789248,-24.429522922716778,-16.356441160837505,-17.0353125469671,-17.45789858474416,1.2937746273694515,22.66457263096136,17.240066955852306,-19.85142587331394,-54.35478505141921,-52.69501949709799,-30.378974338096747,-17.616810588349992,-15.542110499264982,-17.870171421603466,-25.35380957479645,-30.529620795556113,-20.64594015451891,0.13020740282219023,8.089555681644857,-4.103351475663803,-15.537208329059926,-15.258276208114065,-5.267316707801169,17.451371014186527,38.1153909820699,35.36777756210212,19.87056837800609,7.945218415288059,-1.0292553129738486,-5.9711713234043895,-14.113158797691668,-30.756509280324906,-35.5033127984721,-31.987826508886208,-47.68454516929347,-64.66917052477129,-68.52390680428181,-81.73575666443796,-88.62157860055953,-92.63754073190469,-131.05274612502993,-116.23526517793182,51.0220293010979,305.76108194462256,558.2874419514194,630.3657943853872,280.0651290435884,-220.30026653532934,-308.7641114736073,-116.78432758530963,-109.33675790851926,-174.10738849175152,-97.03882556563858,-47.7234352398859,-77.53429162000603,-55.804736329050755,-15.86222197515741,-6.791349337896499,8.382089722190427,14.4828554360116,7.0865808579863945,13.403726585073667,17.883820072478777,26.318452102895705,41.0290169074801,5.774520989674048,-53.50987300102383,-44.791980949527584,-2.6475310224491526,1.3380678811363076,8.366973285094854,32.834639608023856,12.307460225315335,-34.02335468344229,-38.155916758035104,-9.94078834744975,18.17070940552323,31.13084903012662,6.284675551804878,-26.73439757182848,-11.888875390306143,22.78904517017403,31.53180707866985,31.339793592040653,24.023621070285238,-2.755017502431933,-17.731924125400923,-13.051597190096196,-17.938579989589535,-26.697861291000912,-31.540805127717395,-45.65890579232345,-47.279372520441825,-17.736268824215948,9.994211882428425,15.476620868604432,8.95287504366181,-8.86157664841577,-25.371136809794436,-18.68628311984864,-1.9417524217319304,4.016755165406769,2.5676145129261414,-5.1694711017622055,-17.3225899159939,-18.591285615638647,-9.08900819545471,-2.8130782342457987,-2.0045857498010395,-7.460459506420781,-17.41967386456973,-15.222670688056143,-0.0048119648324860265,5.610232434688926,0.7159513254135934,2.535764523230071,6.289322264168597,4.829803320437364,10.349828404488886,19.330098179182936,12.193447128577544,-6.118594151422123,-20.08232450818232,-30.62627239569431,-36.751177509791475,-33.295935222749435,-23.833685626570336,-12.323590168273018,-5.981662190505084,-5.338326306563644,9.215149484683115,32.03488011590643,38.221999824828444,45.58676078067491,52.66478356034565,14.183614825145455,-34.35552315046105,-34.64123848331893,-35.830151745397,-58.08977285849798,-49.951731876228514,-46.25762248419758,-77.77601959966871,-74.02028496051774,-37.24450492058527,-30.213683698017334,-28.029183728741273,-13.258287006025508,-15.771347982924286,-17.571139896882173,-11.775480301209022,-18.29329797604339,-7.826162741630075,14.461502305735863,-4.013534649222198,-24.977553162460634,10.125359811662555,50.58881017591095,46.05757809439715,25.84040053842343,12.87398542026488,2.194866154456875,-6.163741756164235,-16.53999352667372,-23.936203022821168,-18.85078002145201,-25.329809229062484,-53.10149312755473,-75.23161067340916,-102.82919975468295,-134.91918853637122,-123.10833558973937,-115.56848776510748,-156.33699227088556,-101.34255470976768,123.2520983212228,410.0996842344335,665.8382707651556,644.0266505572666,145.46809577299493,-342.78334564856345,-293.68174113392973,-82.41310104369325,-132.41935649295766,-173.9779894206793,-72.32610417995674,-56.23121662626649,-90.405155332077,-48.46473101926823,-15.886124257811513,-12.63531574899487,9.596157183190384,8.293518991416343,-10.798973147505583,0.1418204123723612,15.442937151361992,23.585184981712267,40.12832670371952,38.79437138292468,19.265940486007363,13.691504313364263,16.046208799992243,20.500965126921393,22.039434301100684,-18.461216420605254,-79.79666529244014,-85.4667464203909,-46.22819107086176,-10.074444167495,28.658787946220343,43.358031366385255,2.8405008305771773,-27.936230660555022,-5.710265110884093,20.138165174940916,30.66650071362128,38.418902008015976,23.341860732175995,-3.6527117983529767,-6.661022372450228,-4.271410397486999,-18.270896117631622,-27.397327336649298,-29.738450228308114,-38.824753628060755,-37.41797811875992,-18.050069656817612,-3.159273320694478,2.726732878727507,10.134986855241397,13.584209933287184,7.0292203047128226,-6.870078908992458,-25.361426810349254,-35.63677506620962,-27.59229257617319,-18.216904763326525,-19.548279595860663,-15.570284540634816,-5.801929139142718,-8.190157630639877,-12.97600746174405,-6.707846114244461,-3.2046946704663455,-2.760418751894557,3.0659027791036575,-0.6953046767620208,-6.903228537704992,6.129316254628108,11.383826304326968,-2.7914055977598213,6.021992349212991,27.97069292190985,18.405972034024195,0.9764573838353563,-2.2326027847778107,-17.890045178027925,-33.902474807251345,-27.220314397626492,-23.78042088802819,-24.812950018915686,-5.819198559647003,10.78546420395923,4.407027964432711,-6.365521118293163,-16.289332730357252,-21.52598252299299,-5.499914389384855,6.957786968279791,-17.7060178623403,-47.72124551630621,-43.23803813524263,-23.730751610077093,-15.363595087722569,-9.798990543199881,0.7600512191472859,7.160662645182221,4.522695278679267,5.948546805377434,21.944382707596702,24.09939605430636,-14.02520290691556,-45.7688381797684,-23.835136328206705,14.656117476853929,35.11334358437675,44.712418792491434,20.262085221163566,-35.888721405968845,-55.36673304448429,-32.19247404807728,-24.397858332783105,-29.749472120728015,-24.295833510177843,-29.34186047681937,-50.57011041198057,-68.20717133811681,-86.58259558611631,-103.58392334952275,-103.78498324708166,-121.93007353998605,-167.9218224975829,-130.12129538737352,53.683981494416756,306.6825275685651,562.9443435871995,646.7309647068099,304.20619718004804,-206.22475603496514,-316.0399484709555,-121.32140945043292,-94.0958514259784,-166.92285757844473,-113.08992009038425,-64.4412804854717,-80.80600223120868,-42.736223555427316,6.480335194689069,-10.903088627714034,-28.913092860604287,-6.651560594802501,13.256291288034554,13.586420497376567,18.823309553511308,30.617106832527277,19.56367281459258,-1.8974343062082584,5.042653675490415,13.782389270605568,-5.959875419687675,-15.63983812667458,-5.47030580294317,-6.698152174781615,-5.181201909103466,3.200712689419064,-14.173394584298947,-34.32318490987559,-22.2316917581076,-7.268819936578726,-0.7738523298859734,20.929743290168055,40.17809183972572,41.07366768689335,45.420407375294275,50.060052146595034,41.50609272108032,32.96993628713033,24.378680465600212,13.365106224099868,10.846240855992512,-10.473875928579957,-63.33674771226859,-80.93932366826996,-40.557226745320506,-9.729085589077158,-6.025254148723924,-2.6224471837670364,-15.323079113717878,-34.3433042556527,-20.379830936066863,-1.4882211414287347,-15.674040485502044,-36.83407415946097,-39.999088646981946,-31.300124649708028,-24.78281919767825,-31.34381424110583,-28.48655813067265,-0.04060737249313462,9.464565584754723,-14.676197787575543,-21.81936641676718,-7.709932468966725,-4.703097376390145,-3.480396371352162,1.0689274072910777,-3.9794072552635384,-5.756788830950406,-0.5793503062511292,-0.7255116519718356,4.188518631275489,15.021803719639005,17.43010194512592,19.735554838366763,21.08174676096245,6.058760075464218,-8.384254050697624,-7.798997724910414,-11.804582607869861,-21.793793202764327,-18.886068644191347,-8.268267946221364,-7.0406397688566855,-17.451399527866926,-26.231233361571952,-20.460586392987235,-9.337160112976612,-4.434473180188819,3.8101407195213,8.605903560147812,-14.23550303206557,-46.87832526053982,-50.93380669015036,-33.87817672797918,-23.375993850530595,-17.1971103995242,-4.957282176921556,1.2049031343375454,-9.853591830070677,-20.005973255462077,-12.872084240109896,-6.406400302225565,-11.33741231008429,-8.805360399880303,-1.2835676573353272,-6.588582623301731,-8.749946526446124,4.8884212285694275,13.925868907994143,16.979578175790014,31.416390466051528,49.17759140936118,56.854727080081446,53.58854050775669,37.39635422425829,15.905517215205805,-10.991265174701645,-61.098708019334794,-102.37751741841645,-88.06557460310387,-66.90974432296917,-80.5714118882243,-78.87305554889882,-73.10983028752047,-102.78042634385893,-105.93727819532668,-90.52804969290456,-110.06274444511415,-43.439959208987624,165.6292479903576,392.7035020184185,586.0767296423666,571.295731188472,136.9752273302256,-308.8343227901659,-276.89800910969484,-109.13599626314785,-176.17571217860427,-202.78662354231372,-87.75111607626577,-61.31820601139559,-74.96233467127757,-28.750789286055525,-17.196256763274036,-19.229792704561792,21.411122235340564,24.791680096819782,-9.991089488595701,-14.353097242614488,-11.781842590255934,-15.439405970098015,-0.22235312051761547,8.072268702737823,3.9015749664590142,15.444348462757496,12.31746109374945,-24.376064604023853,-43.04270484847441,-32.5417845814472,-28.16187858717757,-22.740309262486846,-7.3740734226917795,0.2444970686358514,9.440229836492659,26.85729501003173,31.609618328504528,30.162826633906455,39.07121305942521,47.24502225987518,51.0346456391276,51.63520161371376,40.27243772714758,27.96470665703849,19.66359128738285,-4.274313915255904,-29.326618419816008,-27.93167933960239,-23.68108486489763,-34.7870869325677,-34.849235805225376,-22.92417278331041,-29.115770741174753,-48.98760678767256,-51.17209418449369,-28.945226629532012,-6.238887918764391,-2.918920523656901,-8.42608325445897,-4.519316661596486,4.265172663356513,13.525453536188126,30.36295884165525,34.34867256584997,-2.0393166540910883,-44.42524651827152,-38.544741477717366,-2.030610594583221,15.720783891942197,10.362064628864939,-4.376651645939205,-19.860683866095975,-16.119597061144784,5.965659212566355,18.95906631649647,15.226738452390387,-5.502536769075224,-42.81251736268511,-61.17217765969482,-41.14304194795683,-19.425166985421257,-16.167002092135206,-23.35668737159928,-42.899209255100395,-53.33961008048388,-33.311401018362794,-10.716527196717642,0.7431696014413305,12.496674037599599,9.558171694671115,1.817962224300146,13.485048284787709,5.506598933067977,-32.75549826840589,-42.40288740703564,-31.533897605023668,-42.06040567616858,-43.574925604446975,-23.862603131009642,-8.496774558610653,17.26463134178784,40.32207361794604,22.850905161201624,7.588571593649625,25.014256572486893,23.49998517313855,0.32676326297089275,-7.695057087787683,-20.972050738537114,-39.335307603054154,-30.448202258954552,-23.74617726395746,-38.36063120332291,-47.79623657981469,-81.01852299745521,-134.15202007625197,-127.3754101018573,-108.6499597713111,-140.65220790970798,-77.64589490621584,147.6926851839637,408.18413564470546,619.3878501511957,576.9589943384543,113.0112269604501,-315.20208506810263,-250.04723797274417,-73.22354107954378,-140.93776901871348,-161.90176958678433,-45.954698498625035,-27.651522576362282,-45.57185238872222,-4.970964543894638,-22.676804878963623,-59.318960471652424,-16.92467070104643,15.182475005114142,4.566286719610158,10.848934953322843,-4.902493028232271,-47.78165603514689,-41.59737735471667,-12.870739373840562,-17.84221304636573,-20.937291076004676,-14.16834059523713,-26.056775595161916,-28.707520608106677,-10.365405364464943,-0.6051153282548123,6.513635212521773,16.982047315128284,18.665277995104944,29.37362269231033,50.39830132313362,56.354068520809605,55.32311725754737,47.74018083939156,18.826737451010942,3.1744575145406477,15.483009603971947,9.107001550403373,-13.382886271665177,-16.315176160726566,-23.351952994100838,-46.45075676744829,-50.677669424769306,-42.22424347067283,-42.99479609750311,-31.317205323358174,-8.73375413562864,-9.45420317553603,-20.24236531333011,-10.571460672859185,3.9206428703988063,8.627245285159411,14.6756620359116,12.582230875102248,-8.102000727160508,-19.8272789897813,-4.040072131762072,17.69966692481764,25.01433947117737,17.140197327519704,-0.5747699031555467,-17.8140591142824,-25.296720156117914,-20.603874614625237,-5.977495215094178,3.5334181825881004,-7.693293484165565,-25.049047011195555,-23.658498280419714,-8.151348638959135,4.073357981519562,6.874460319933428,-2.60963401812381,-14.953064600673414,-8.761329748801884,13.340847329996551,32.30434463882141,41.5128767180206,27.102753211603773,-12.91496697439373,-31.26189824167004,-6.65779834389493,14.074035989570984,9.693456615673103,-1.9469227885887932,-23.593297084746627,-43.35187377728175,-33.155341109620636,-8.019418974642235,9.658640782815988,14.071818487992495,-14.916496940097744,-58.202596790989176,-55.89379827729663,-19.283698065291045,-5.2475685534005905,-7.592486240257816,0.2030652650929632,-1.9698990931768279,-26.995500465122543,-39.04826572316748,-15.005422981608987,4.677043909870719,-16.219152066791295,-42.52983035938419,-37.942479054398355,-19.669406384768514,0.08221790942768159,21.500562027466394,25.425939957341242,14.455153408949272,13.842953737072612,17.132119125785024,7.082407932827303,-7.757860830284196,-14.505515729542203,-13.251066419894435,-17.478515710782503,-41.860277915900866,-69.49169653318563,-68.79735237195683,-59.44699301053825,-80.72504114988078,-101.07784704572138,-94.59471362835451,-117.12196001677057,-134.76466755055,-14.825981206812884,224.63112425604268,473.5000571099122,623.2965020836833,437.82960066567574,-60.85886571469672,-331.7182925126382,-179.11737005377782,-69.16878408906342,-151.72272949655996,-141.18840405115301,-61.32130570323855,-64.8527617327693,-58.99432591112952,-14.607189446127748,-11.036318362025263,-13.893497543608333,4.607586656478182,7.057752692572274,4.561638119078739,14.353450309547677,20.720120214786583,14.990527412644965,-6.701273559398471,-27.11299276003002,-16.289269958156464,7.696319774019381,5.495085517401984,-14.878607755633904,-17.517454944391098,3.1175709946483767,23.250906342159848,39.02309906405718,53.185910694724335,37.32702430706465,3.7217310838761826,13.814534710083766,43.69441656648299,30.420704598408392,10.990494528160065,12.546556847521295,-13.080488373910226,-44.0919110325763,-29.42337631187015,-12.335998919736674,-22.617240538579942,-28.183069812083055,-36.19853384342568,-55.232237825610795,-51.25186023438112,-28.66646059218032,-14.8377589722175,-1.7935657666493725,5.597919608282147,-10.194951376821095,-27.06184885432341,-20.819663227614278,-1.4848594687136085,12.184865670922782,6.52766034998792,-10.656466303225866,-13.036513658410811,-3.072359773271554,0.14434527415615683,2.3075610980661914,1.41884144668024,-16.72526892479165,-31.850248066079594,-20.230768216874853,1.7312372473813937,10.845038580362335,1.0891666670055145,-19.30112485650794,-29.106131425778134,-21.14628088131873,-7.975745889992778,5.889017521011153,14.344641642404348,4.719241126876385,-8.427922602831508,2.4972880006232385,26.991202782368568,30.505405021075077,15.421988625412004,13.74854704226157,14.454783519524536,-16.9765639653287,-49.61519569918876,-39.96326041296879,-23.117797150149386,-29.93810272610058,-28.078979301685557,-9.729932906081874,0.32361032638774034,6.326586278622557,15.792556233646714,15.587700575929919,-2.0780827148739824,-27.966637046935283,-37.84366448068831,-24.22902166391461,-11.390865859534571,-8.4028877480645,-12.320961079735856,-29.38405450914823,-33.783893517891784,-10.362345535348755,-1.9613543946224539,-7.182767840499736,6.994517736005555,-4.015702304308981,-48.08776420494303,-40.93801200922488,8.559652851298804,21.060526465000247,16.25276493048927,29.734810353662677,22.823517865702474,-14.594661232870777,-41.129684739775904,-42.777390548601,-36.71372876174342,-39.00060653382046,-55.39131597431967,-70.84388345469321,-68.18861191850911,-72.07172253616014,-101.31037158937983,-111.07641350880955,-104.64216335666241,-135.68891372555385,-113.31411285579698,78.42919833651476,366.5490482141936,630.6297716670647,673.1814871528475,261.054120568612,-283.7203819674305,-353.44060417855036,-118.45974103901027,-102.94054750283784,-174.1300730614501,-93.994462114179,-54.179845406025024,-90.97249460425996,-46.09165490509878,9.540122482039013,-1.4499763894667836,-0.5219243854716318,16.784359117768044,3.6302793312624857,-19.04838079360509,-19.686729068830626,2.114271176092748,12.130790254799127,-13.20652339478079,-32.27345598747262,-20.153711146184605,-9.996430705711184,-4.042003949283453,8.437117347157386,1.1438581463995972,-16.837170652784458,-6.891052430431337,15.280849233540811,25.38862730648739,41.293672746949646,61.41773419924237,57.69732248428904,33.319784373696976,14.955053474678481,20.33453005372803,43.99930799368781,49.009885863032856,18.473018161124052,-5.426889635751818,-1.1562825205292495,-1.831778968410207,-11.8121517307941,-15.723610238848597,-34.71419718226623,-62.51716573792393,-59.00831251841244,-40.3647507962376,-35.42286866689351,-27.433888098542624,-29.011772240961065,-60.70760922399113,-69.67043249622208,-30.777748413972294,-8.315579993724114,-17.89097303202699,-8.010905490672766,13.19291994310374,11.673872784051632,13.120485223713992,29.287981336066007,22.343038614769437,-7.285299346532927,-22.711193502240977,-20.190253185633598,-14.598597853363152,-10.62545642175224,-10.279449213922977,-11.001280626697746,-12.977939396453891,-17.486551670293146,-12.554638265604563,-0.9422112910296381,0.6557702428872041,3.394256275895172,10.853094550396616,1.6017902541032285,-6.120742869123948,7.840871813614051,6.816511184922617,-11.051175100286155,-1.2135393834885555,14.74271015629018,-1.5263764554767896,-16.542251171418286,-11.415857323084644,-16.38129763659233,-29.649735879054905,-32.434321270524634,-29.93271744300627,-21.294778694850415,-9.324346702828702,-7.864145685771499,-3.1558774493853132,11.878628406870924,11.014707611690019,2.80636859177174,12.008375095749466,6.533463117734033,-32.08656311379761,-55.48820070890913,-42.17008550483324,-25.882233218372036,-25.487675086368036,-29.92845811613813,-20.114311974486647,5.7914367645952005,20.416780222735284,22.879384437992563,43.25068165442104,58.12170078757919,35.58380560798858,20.21812545695274,23.899071187704283,-11.967547082681396,-60.93079759859601,-53.64782842335441,-27.38570263984594,-21.836472288269512,-18.34931091726215,-48.295686405370546,-111.01427543090294,-126.84374236646258,-110.0015299474531,-110.8358599991937,-101.28491911691532,-113.04101711627342,-151.31037745771525,-64.75289727984692,186.9458918992726,480.2270178026453,669.9043438046772,500.23084076082716,-27.024201590796423,-346.12411815457125,-207.04669280433416,-77.93029128863344,-143.75310845200582,-126.73650055374073,-51.799895703408666,-69.10692468911509,-64.73145098082692,-12.19271700738085,-14.314897646568589,-27.746687878235377,-12.998477438726194,-17.923337016759632,-20.609916566093325,-0.8442622651925813,0.4263604191342374,-3.8119986771960583,9.033571668584749,2.6933926155970926,-17.95241218697396,-10.244241686759446,6.848512182195319,3.1201604243415817,-2.450610297197535,-0.20228342095965712,-1.436731896783733,1.408065908247421,16.01930070689935,33.543126508900485,41.59082155193823,28.09412694139659,4.446156180813466,4.2464397390630975,24.95934053932212,34.609212934217126,35.30308837366566,39.88406178701149,31.609511076320537,11.132208765192857,4.744897432756389,0.9346254208718836,-27.011996898645826,-55.004802610090465,-51.087365225312226,-27.550146056865113,-4.4347620870167574,7.596491908848268,3.7069843580089525,1.2212150512329103,-1.9055794759918356,-32.637979729654376,-57.4768944146335,-32.47098111483707,-2.166688942851394,-0.3423235351865195,-1.2528717524703055,-17.360994942620753,-51.54852694370011,-51.391631318014404,-24.283422436339123,-14.153177011367408,-7.657268437237043,-1.7988261548634874,-9.50899534641168,-3.1386501935779165,13.395417050355032,12.012890799080546,20.508421300682265,39.83701914547759,24.61621656743958,0.8813214898505368,4.6401595373442355,-6.864782790603098,-40.80196975028325,-48.51425700056074,-41.124213931415746,-48.22077740361125,-45.53347592189917,-24.92207897737687,-14.933127282622099,-16.557144291628966,-12.88611180690733,-9.962811133633291,-17.113003340924298,-20.03717018904055,-4.590176481283168,11.721060246342807,9.03532544403041,0.29167108603748026,-2.47572143967289,-4.072082418248675,2.929416567643896,17.3909531719937,20.484762040479936,17.831168037751894,13.01713618549028,-14.961961213490184,-44.22275586377807,-33.2277133816397,-9.002764072521709,-9.691574317719809,-16.017109343989038,-11.30067456240604,-6.35762864190545,-3.7171094821715194,-4.613257632870706,-13.824479072043365,-26.37248402117829,-33.493796948737604,-26.956553881011192,-9.876438170413554,-0.8575929119404435,-1.586193977544605,6.5800008211897465,26.4747756694382,43.01618607434452,48.12861998386071,52.293615051187345,56.15563718131891,24.508212300922295,-38.48966457551404,-58.835257093490824,-30.538406063852104,-19.19971540142125,-21.588050860944335,-30.189186546570966,-82.09296024371113,-131.12567736587104,-122.09656933953877,-97.86722782741984,-86.00177209987085,-103.20999916559273,-149.45825809085946,-92.60493885382752,139.6740773675036,441.32082546317554,679.5226828061883,595.0864326520076,66.05742280287976,-370.47049135606056,-273.371923571307,-84.19122214396815,-155.5332511022093,-180.18263745389146,-77.1854252385569,-69.13319721889343,-84.27350903816341,-28.08570855527878,-7.2227683043620345,-16.633450076804188,-0.015163278770806699,-0.9497834289756177,-8.53766902556028,15.571932582370414,29.32263098657106,15.136985281176862,9.592137399276046,13.017564853221293,6.015362662271439,3.7488904080271443,19.811210703899548,20.93192879678961,-16.57632296509606,-47.89361252680881,-37.77186910307084,-19.204329019470386,-10.789047882444237,7.135857276075502,24.808659966473012,22.12221659739606,14.490077440595016,19.89958711979067,29.03845691749654,28.65575343379621,32.469424272584845,54.780214134121806,62.97908831347338,33.45214257467933,5.341197094198164,-6.987284716425457,-35.21543750483518,-62.44278834673139,-58.105639287693805,-49.050607719190594,-53.35522063294637,-50.96119850308169,-35.95866531754564,-16.462689465874856,-1.249354385163734,1.1661179783642037,0.6204233522503699,7.364080580750468,12.407080871492864,18.752483307037544,35.61429637938933,39.304567421159874,9.975820431193904,-19.51022774821432,-12.477675503491966,18.620071908129773,40.74886945208114,28.67110137763491,-21.087214251625596,-65.33252019645926,-65.91693305969629,-52.63442513994974,-51.98747445560312,-42.00477122287555,-29.439890962771265,-37.90445255498457,-41.47687195951095,-24.53770272573707,-14.07840696650171,-10.5956072532294,-1.9292742819749868,-6.013614393802243,-20.602756074380427,-16.664894461750475,1.8154104698582074,11.263896722316037,8.15043075845694,-1.6215100239991997,-9.324012028831154,-7.133739862194002,1.1798925505076374,15.032184816658717,29.39332976543442,15.951110940225213,-25.973274205639623,-47.28441467834439,-29.086108870181025,-6.860184154293213,-4.105145578374444,-16.076926414094622,-33.584584781314845,-40.46499136254039,-23.30900775115159,7.4832523372850375,28.898568224338845,30.938393334638608,24.342278945603063,22.75891861802189,18.833669356758516,1.2700327436579553,-11.224696497621888,-5.014205266463975,-9.493473428163252,-33.56635830997057,-45.744112504118824,-51.232257765887596,-63.90037710091945,-65.21906537941024,-77.63073707941857,-113.3444789903006,-121.4425625984153,-122.93849451210107,-135.2138533832897,-37.665083253214675,205.14167898816476,490.5042368310057,695.2148152245975,552.7371150184646,15.366418393016964,-344.0407551827089,-211.11131213840986,-76.33157052343432,-175.82283817114552,-170.07131458985128,-50.081368569010394,-46.82286733182955,-58.71881014736512,-5.538964026009012,-15.652160867815851,-53.251917011986194,-19.00763518324041,14.537088949124641,8.947253005996608,13.50206484725664,-0.9643003768586276,-48.49465181504172,-55.97384536941196,-24.537147680733483,-17.700700669152717,-21.21681386055647,-7.6981696057525895,-3.6848667712746206,-11.716177789142868,-9.578927339499032,-1.1163543990707754,10.442861962211254,30.04256808133012,45.209328207474336,39.2510208122018,15.179401361790758,0.7859779845197377,16.752428967514774,38.87445462752002,36.51981307377829,20.69491850722735,11.635362642246204,8.503926857190729,2.9681137247829295,-10.89244552173199,-27.66919048113523,-36.628309254787666,-40.88258539379983,-42.156406187683125,-31.452065930003304,-13.112625973263476,-0.8513043242162048,-1.5651653991515388,-16.649134979825476,-30.116326552557666,-22.304156240012382,-7.661246006552695,-7.7516369355201675,-12.58483193022484,-10.178110360391768,-5.828765547243059,-3.975269871272763,-4.610369378555031,-1.941329845779503,5.201267168659623,0.41684508238467366,-12.565133618092933,-6.671826487059464,8.782932505163004,14.09272661323775,21.832441680465074,19.229321202054372,-9.725034295033751,-15.650297681223902,17.930617956706854,29.64331392281484,8.18071064589718,-10.288351204358786,-25.656307278152838,-32.033709431424384,-13.67072239859359,11.287205268655931,21.676691967006775,0.14074946798123023,-48.1212499637129,-61.48478653624555,-26.866668458920046,-7.083238386277291,-1.197110905483914,10.521344490346014,-19.64149601355639,-68.48786259313228,-53.268829351579626,-9.510164930616789,-5.616241555047125,-10.694856865956869,-0.30400573001846354,0.9645693294845188,3.3200213347397085,20.248023146835838,19.41229800081591,-9.915960388407033,-30.857185770832796,-31.323647749836226,-35.77439367204363,-41.70099585230295,-28.495926737046407,-12.086419242825368,-14.8809530032039,-23.019749807933024,-21.38457921260691,-15.35690249414122,-8.32143093396116,1.2142313947128986,13.6594819964812,25.99495142235842,30.22843970512017,29.444132068227745,31.236240198815864,23.858945385932476,2.9248578023081784,-14.116479804395611,-26.63775443554296,-39.702564231265214,-41.16450362903649,-41.293599635758035,-54.56328828051289,-61.445840701955,-71.09097724071003,-99.18985874668806,-98.96295862739309,-86.7005452379137,-124.63975037189033,-105.20140220093111,76.95799860450329,322.27584191214964,548.637781971761,625.2250906178806,302.25807933843544,-197.54231145104873,-315.0220786534776,-141.12028803934533,-125.29269370706326,-180.25313150140818,-108.16334820558876,-60.20579098183301,-76.53395406930814,-45.591938817930114,-14.769992152232089,-23.2878700329754,-13.070558996777482,8.33825906613557,13.55551920234397,17.036394830272805,18.67414501679612,16.496420080387274,17.972303527312405,21.452902394729925,28.11325865277474,25.754586286914968,-7.346102290688414,-46.986026741824965,-47.81095352227659,-19.503193111917746,2.3376913479689776,19.640539849742744,32.09802216384716,11.883629426828655,-22.49880585641226,-15.803527731687035,23.912747545586562,45.400539783786066,31.488809598774615,-3.654722875206401,-23.33474466731744,-0.5015166512975462,26.947087758674876,20.469710691132455,4.384024911566318,-9.396885035399634,-34.570110567705456,-49.185593470794664,-37.395050581243076,-19.48101802937892,-7.818794366501415,-13.390679379821133,-38.88333764730878,-47.851513286643936,-24.946503262893984,-5.052147337658273,-3.2951730176677643,-7.477167051390513,-13.830568530775235,-15.353796382091186,-6.440832093504545,5.764898942070941,17.238458800929735,20.890961622539905,8.326150827040443,-6.839255250245667,-9.029265322955414,-5.451507557717777,-6.552360824713055,-11.5158477686393,-13.074017444762712,-5.116981093566023,7.329560854583654,14.15280725638656,12.310503819864383,1.9538548729872893,-14.639705924487487,-29.752242432583422,-36.55238718864194,-32.76301034606869,-20.993551477273492,-11.586059106396,-14.180806337777028,-23.309473541437526,-25.341728524489923,-19.083857311960458,-11.937845355160007,-4.615585910382464,-1.4232183417777406,-7.651097502196395,-7.006808990733614,7.789855569848946,12.696024283886613,10.283447720658835,22.845622947816654,29.647195877983222,25.12909552330132,37.63581972859288,29.41941175136175,-25.36912143521439,-45.04306136172234,-21.912462138592566,-44.50105667421866,-72.86787069196785,-37.60856081374262,-12.255669680501398,-21.162773781496952,-2.9174444589722093,