ECG_baseline.csv,0.884615385,0.884615385,0.884615385,0.876923077,0.853846154,0.861538462,0.861538462,0.869230769,0.815384615,0.776923077,0.853846154,0.915384615,0.938461538,0.838461538,0.923076923,0.884615385,0.892307692,0.915384615,0.861538462,0.892307692,0.907692308,0.838461538,0.869230769,0.869230769,0.830769231,0.907692308,0.892307692,0.853846154,0.946153846,0.907692308,0.823076923,0.830769231,0.8,0.746153846,0.746153846,0.776923077,0.807692308,0.8,0.884615385,0.876923077,0.838461538,0.861538462,0.838461538,0.807692308,0.830769231,0.830769231,0.776923077,0.830769231,0.838461538,0.807692308,0.861538462,0.869230769,0.807692308,0.761538462,0.730769231,0.784615385,0.846153846,0.869230769,0.823076923,0.876923077,0.838461538,0.8,0.8,0.792307692,0.769230769,0.823076923,0.830769231,0.8,0.776923077,0.738461538,0.761538462,0.815384615,0.823076923,0.792307692,0.861538462,0.830769231,0.792307692,0.807692308,0.792307692,0.769230769,0.807692308,0.807692308,0.776923077,0.838461538,0.838461538,0.807692308,0.853846154,0.846153846,0.8,0.838461538,0.815384615,0.769230769,0.807692308,0.807692308,0.769230769,0.807692308,0.815384615,0.776923077,0.8,0.830769231,0.784615385,0.815384615,0.823076923,0.807692308,0.776923077,0.830769231,0.823076923,0.784615385,0.815384615,0.823076923,0.776923077,0.753846154,0.776923077,0.8,0.846153846,0.776923077,0.753846154,0.784615385,0.746153846,0.769230769,0.807692308,0.776923077,0.769230769,0.792307692,0.8,0.761538462,0.792307692,0.8,0.784615385,0.8,0.815384615,0.815384615,0.753846154,0.715384615,0.7,0.715384615,0.746153846,0.776923077,0.784615385,0.8,0.730769231,0.738461538,0.707692308,0.707692308,0.692307692,0.684615385,0.692307692,0.7,0.707692308,0.707692308,0.738461538,0.776923077,0.823076923,0.846153846,0.823076923,0.792307692,0.738461538,0.715384615,0.723076923,0.715384615,0.753846154,0.723076923,0.738461538,0.761538462,0.769230769,0.776923077,0.807692308,0.838461538,0.838461538,0.838461538,0.846153846,0.761538462,0.761538462,0.776923077,0.784615385,0.769230769,0.807692308,0.8,0.807692308,0.769230769,0.776923077,0.723076923,0.723076923,0.738461538,0.769230769,0.815384615,0.8,0.753846154,0.784615385,0.823076923,0.792307692,0.784615385,0.746153846,0.769230769,0.815384615,0.853846154,0.846153846,0.892307692,0.884615385,0.823076923,0.853846154,0.884615385,0.876923077,0.838461538,0.784615385,0.792307692,0.761538462,0.746153846,0.769230769,0.792307692,0.807692308,0.807692308,0.876923077,0.907692308,0.853846154,0.9,0.915384615,0.830769231,0.784615385,0.792307692,0.815384615,0.823076923,0.8,0.861538462,0.869230769,0.830769231,0.846153846,0.838461538,0.815384615,0.807692308,0.823076923,0.830769231,0.807692308,0.861538462,0.853846154,0.8,0.753846154,0.746153846,0.784615385,0.784615385,0.784615385,0.769230769,0.815384615,0.807692308,0.8,0.815384615,0.8,0.769230769,0.784615385,0.792307692,0.761538462,0.8,0.807692308,0.8,0.792307692,0.815384615,0.8,0.784615385,0.807692308,0.769230769,0.784615385,0.769230769,0.730769231,0.715384615,0.7,0.738461538,0.8,0.861538462,0.823076923,0.853846154,0.892307692,0.853846154,0.853846154,0.838461538,0.8,0.776923077,0.784615385,0.776923077,0.776923077,0.838461538,0.876923077,0.876923077,0.946153846,0.869230769,0.884615385,0.861538462,0.807692308,0.838461538,0.823076923,0.776923077,0.792307692,0.776923077,0.784615385,0.769230769,0.807692308,0.807692308,0.807692308,0.823076923,,,,,,,,,,,,,,,,,,,,,,,,,,,,,,,
ECG_olfative.csv,0.684615385,0.707692308,0.738461538,0.784615385,0.769230769,0.746153846,0.738461538,0.692307692,0.684615385,0.676923077,0.692307692,0.776923077,0.807692308,0.838461538,0.838461538,0.807692308,0.753846154,0.715384615,0.7,0.730769231,0.753846154,0.784615385,0.769230769,0.753846154,0.715384615,0.684615385,0.661538462,0.653846154,0.653846154,0.669230769,0.676923077,0.707692308,0.707692308,0.715384615,0.715384615,0.676923077,0.661538462,0.661538462,0.684615385,0.707692308,0.723076923,0.723076923,0.723076923,0.7,0.684615385,0.669230769,0.661538462,0.646153846,0.653846154,0.676923077,0.715384615,0.723076923,0.753846154,0.761538462,0.738461538,0.715384615,0.692307692,0.653846154,0.646153846,0.638461538,0.669230769,0.792307692,0.869230769,0.869230769,0.961538462,0.930769231,0.946153846,0.9,0.823076923,0.792307692,0.730769231,0.692307692,0.653846154,0.646153846,0.646153846,0.676923077,0.746153846,0.815384615,0.853846154,0.876923077,0.884615385,0.838461538,0.8,0.769230769,0.715384615,0.7,0.676923077,0.669230769,0.669230769,0.723076923,0.807692308,0.876923077,0.869230769,0.869230769,0.838461538,0.815384615,0.784615385,0.730769231,0.692307692,0.676923077,0.676923077,0.730769231,0.807692308,0.861538462,0.892307692,0.876923077,0.853846154,0.830769231,0.815384615,0.776923077,0.761538462,0.692307692,0.692307692,0.715384615,0.753846154,0.784615385,0.830769231,0.823076923,0.830769231,0.8,0.761538462,0.738461538,0.707692308,0.684615385,0.669230769,0.676923077,0.715384615,0.784615385,0.830769231,0.9,0.9,0.915384615,0.915384615,0.9,0.853846154,0.823076923,0.776923077,0.730769231,0.707692308,0.676923077,0.669230769,0.707692308,0.746153846,0.815384615,0.769230769,0.830769231,0.838461538,0.853846154,0.876923077,0.876923077,0.884615385,0.884615385,0.853846154,0.823076923,0.776923077,0.738461538,0.723076923,0.707692308,0.684615385,0.692307692,0.707692308,0.753846154,0.784615385,0.784615385,0.761538462,0.846153846,0.861538462,0.838461538,0.846153846,0.823076923,0.8,0.746153846,0.715384615,0.669230769,0.653846154,0.653846154,0.692307692,0.769230769,0.846153846,0.892307692,0.884615385,0.853846154,0.823076923,0.815384615,0.823076923,0.823076923,0.823076923,0.815384615,0.830769231,0.807692308,0.792307692,0.769230769,0.738461538,0.723076923,0.707692308,0.707692308,0.715384615,0.738461538,0.738461538,0.738461538,0.753846154,0.815384615,0.876923077,0.876923077,0.884615385,0.853846154,0.8,0.792307692,0.784615385,0.761538462,0.761538462,0.753846154,0.746153846,0.746153846,0.730769231,0.730769231,0.715384615,0.707692308,0.692307692,0.7,0.707692308,0.761538462,0.838461538,0.9,0.884615385,0.884615385,0.884615385,0.861538462,0.830769231,0.8,0.753846154,0.707692308,0.692307692,0.684615385,0.723076923,0.746153846,0.776923077,0.830769231,0.830769231,0.838461538,0.838461538,0.830769231,0.807692308,0.792307692,0.761538462,0.738461538,0.723076923,0.684615385,0.676923077,0.661538462,0.653846154,0.653846154,0.684615385,0.7,0.761538462,0.8,0.807692308,0.792307692,0.769230769,0.746153846,0.730769231,0.7,0.676923077,0.676923077,0.692307692,0.730769231,0.807692308,0.838461538,0.876923077,0.807692308,0.830769231,0.823076923,0.807692308,0.761538462,0.730769231,0.692307692,0.676923077,0.661538462,0.653846154,0.653846154,0.684615385,0.692307692,0.707692308,0.753846154,0.838461538,0.869230769,0.861538462,0.884615385,0.815384615,0.776923077,0.746153846,0.738461538,0.715384615,0.715384615,0.707692308,0.707692308,0.723076923,0.730769231,0.738461538,0.723076923,0.723076923,0.723076923,0.753846154,0.769230769,0.807692308,0.823076923,0.807692308,0.792307692,0.769230769,0.746153846,0.707692308,0.684615385,0.684615385,0.684615385,0.738461538,,,,,,,,,,,,,,
ECG_sound.csv,0.823076923,0.861538462,0.876923077,0.846153846,0.846153846,0.830769231,0.830769231,0.8,0.769230769,0.738461538,0.730769231,0.730769231,0.723076923,0.715384615,0.723076923,0.738461538,0.769230769,0.807692308,0.815384615,0.815384615,0.807692308,0.769230769,0.730769231,0.7,0.684615385,0.676923077,0.7,0.753846154,0.807692308,0.846153846,0.838461538,0.861538462,0.838461538,0.807692308,0.746153846,0.715384615,0.684615385,0.669230769,0.669230769,0.692307692,0.746153846,0.8,0.853846154,0.907692308,0.892307692,0.884615385,0.869230769,0.807692308,0.753846154,0.715384615,0.7,0.684615385,0.707692308,0.692307692,0.692307692,0.715384615,0.730769231,0.723076923,0.730769231,0.715384615,0.707692308,0.7,0.7,0.7,0.707692308,0.738461538,0.776923077,0.738461538,0.761538462,0.8,0.815384615,0.853846154,0.784615385,0.792307692,0.8,0.784615385,0.784615385,0.784615385,0.761538462,0.715384615,0.7,0.7,0.715384615,0.738461538,0.776923077,0.784615385,0.769230769,0.753846154,0.715384615,0.684615385,0.661538462,0.630769231,0.638461538,0.623076923,0.638461538,0.723076923,1.730769231,1.076923077,0.876923077,0.892307692,0.9,0.876923077,0.853846154,0.830769231,0.792307692,0.761538462,0.738461538,0.723076923,0.715384615,0.707692308,0.715384615,0.715384615,0.715384615,0.730769231,0.753846154,0.761538462,0.776923077,0.784615385,0.792307692,0.8,0.8,0.776923077,0.753846154,0.723076923,0.707692308,0.684615385,0.661538462,0.646153846,0.630769231,0.623076923,0.615384615,0.615384615,0.653846154,0.730769231,0.776923077,0.8,0.823076923,0.846153846,0.830769231,0.746153846,0.738461538,0.715384615,0.7,0.707692308,0.715384615,0.7,0.707692308,0.7,0.707692308,0.715384615,0.707692308,0.684615385,0.669230769,0.661538462,0.638461538,0.638461538,0.646153846,0.638461538,0.669230769,0.715384615,0.807692308,0.838461538,0.807692308,0.846153846,0.853846154,0.838461538,0.792307692,0.784615385,0.746153846,0.723076923,0.692307692,0.669230769,0.669230769,0.684615385,0.707692308,0.723076923,0.753846154,0.784615385,0.784615385,0.792307692,0.753846154,0.738461538,0.730769231,0.707692308,0.676923077,0.676923077,0.684615385,0.7,0.684615385,0.723076923,0.776923077,0.784615385,0.815384615,0.830769231,0.815384615,0.8,0.807692308,0.807692308,0.784615385,0.746153846,0.761538462,0.738461538,0.723076923,0.753846154,0.746153846,0.746153846,0.753846154,0.761538462,0.753846154,0.746153846,0.769230769,0.769230769,0.746153846,0.746153846,0.761538462,0.746153846,0.769230769,0.792307692,0.784615385,0.753846154,0.753846154,0.730769231,0.692307692,0.707692308,0.707692308,0.707692308,0.746153846,0.730769231,0.684615385,0.661538462,0.661538462,0.653846154,0.661538462,0.646153846,0.661538462,0.661538462,0.653846154,0.653846154,0.638461538,0.653846154,0.653846154,0.653846154,0.684615385,0.715384615,0.723076923,0.761538462,0.784615385,0.776923077,0.746153846,0.723076923,0.723076923,0.723076923,0.707692308,0.715384615,0.715384615,0.723076923,0.715384615,0.7,0.730769231,0.761538462,0.792307692,0.784615385,0.746153846,0.715384615,0.715384615,0.692307692,0.661538462,0.661538462,0.653846154,0.653846154,0.692307692,0.723076923,0.769230769,0.807692308,0.838461538,0.838461538,0.769230769,0.792307692,0.776923077,0.730769231,0.7,0.684615385,0.692307692,0.738461538,0.761538462,0.823076923,0.846153846,0.830769231,0.838461538,0.838461538,0.8,0.753846154,0.723076923,0.7,0.707692308,0.715384615,0.707692308,0.730769231,0.746153846,0.730769231,0.746153846,0.784615385,0.807692308,0.815384615,0.776923077,0.784615385,0.769230769,0.761538462,0.769230769,0.723076923,0.715384615,0.723076923,0.723076923,0.723076923,0.761538462,0.776923077,0.792307692,0.776923077,0.807692308,0.8,0.784615385,,,,,,,,
ECG_video.csv,0.715384615,0.707692308,0.7,0.707692308,0.761538462,0.861538462,0.907692308,0.892307692,0.861538462,0.846153846,0.776923077,0.776923077,0.707692308,0.715384615,0.7,0.7,0.753846154,0.715384615,0.753846154,0.769230769,0.776923077,0.807692308,0.8,0.830769231,0.830769231,0.8,0.792307692,0.769230769,0.738461538,0.730769231,0.730769231,0.738461538,0.769230769,0.838461538,0.815384615,0.853846154,0.892307692,0.853846154,0.853846154,0.838461538,0.792307692,0.792307692,0.753846154,0.730769231,0.723076923,0.730769231,0.753846154,0.776923077,0.761538462,0.807692308,0.815384615,0.807692308,0.807692308,0.792307692,0.776923077,0.738461538,0.730769231,0.715384615,0.684615385,0.692307692,0.707692308,0.776923077,0.846153846,0.853846154,0.892307692,0.830769231,0.807692308,0.8,0.738461538,0.730769231,0.715384615,0.692307692,0.7,0.7,0.715384615,0.730769231,0.761538462,0.784615385,0.784615385,0.8,0.784615385,0.776923077,0.776923077,0.746153846,0.730769231,0.707692308,0.684615385,0.661538462,0.669230769,0.707692308,0.815384615,0.823076923,0.776923077,0.869230769,0.869230769,0.876923077,0.892307692,0.884615385,0.823076923,0.823076923,0.769230769,0.746153846,0.692307692,0.684615385,0.692307692,0.684615385,0.7,0.761538462,0.792307692,0.823076923,0.846153846,0.861538462,0.861538462,0.853846154,0.838461538,0.846153846,0.830769231,0.838461538,0.846153846,0.838461538,0.830769231,0.838461538,0.769230769,0.746153846,0.707692308,0.692307692,0.676923077,0.661538462,0.661538462,0.761538462,0.761538462,0.753846154,0.730769231,0.715384615,0.684615385,0.669230769,0.661538462,0.638461538,0.630769231,0.646153846,0.692307692,0.846153846,0.907692308,0.876923077,0.930769231,0.915384615,0.930769231,0.923076923,0.846153846,0.815384615,0.769230769,0.707692308,0.692307692,0.684615385,0.684615385,0.730769231,0.769230769,0.753846154,0.792307692,0.830769231,0.846153846,0.861538462,0.838461538,0.815384615,0.792307692,0.753846154,0.715384615,0.692307692,0.669230769,0.653846154,0.661538462,0.7,0.792307692,0.846153846,0.784615385,0.853846154,0.846153846,0.823076923,0.853846154,0.838461538,0.792307692,0.776923077,0.753846154,0.723076923,0.715384615,0.715384615,0.707692308,0.715384615,0.730769231,0.761538462,0.776923077,0.8,0.784615385,0.792307692,0.769230769,0.761538462,0.730769231,0.715384615,0.707692308,0.7,0.715384615,0.738461538,0.776923077,0.815384615,0.776923077,0.807692308,0.792307692,0.776923077,0.730769231,0.723076923,0.707692308,0.715384615,0.707692308,0.723076923,0.776923077,0.807692308,0.838461538,0.830769231,0.776923077,0.807692308,0.792307692,0.776923077,0.723076923,0.692307692,0.676923077,0.661538462,0.646153846,0.630769231,0.615384615,0.623076923,0.653846154,0.707692308,0.692307692,0.7,0.707692308,0.676923077,0.676923077,0.676923077,0.692307692,0.723076923,0.753846154,0.776923077,0.8,0.807692308,0.807692308,0.8,0.784615385,0.769230769,0.753846154,0.746153846,0.730769231,0.738461538,0.746153846,0.738461538,0.807692308,0.838461538,0.8,0.807692308,0.8,0.761538462,0.769230769,0.746153846,0.715384615,0.715384615,0.7,0.676923077,0.684615385,0.684615385,0.707692308,0.738461538,0.761538462,0.761538462,0.746153846,0.753846154,0.738461538,0.7,0.684615385,0.692307692,0.684615385,0.676923077,0.707692308,0.723076923,0.723076923,0.784615385,0.815384615,0.823076923,0.838461538,0.815384615,0.8,0.761538462,0.723076923,0.715384615,0.707692308,0.707692308,0.753846154,0.784615385,0.807692308,0.830769231,0.853846154,0.815384615,0.853846154,0.838461538,0.784615385,0.776923077,0.761538462,0.730769231,0.730769231,0.753846154,0.792307692,0.8,0.861538462,0.823076923,0.792307692,0.784615385,0.746153846,0.715384615,,,,,,,,,,,,,
ECG_interactive.csv,0.715384615,0.761538462,0.838461538,0.823076923,0.846153846,0.846153846,0.915384615,0.861538462,0.853846154,0.8,0.769230769,0.738461538,0.730769231,0.707692308,0.730769231,0.715384615,0.730769231,0.738461538,0.761538462,0.761538462,0.784615385,0.815384615,0.8,0.730769231,0.707692308,0.7,0.684615385,0.669230769,0.676923077,0.676923077,0.661538462,0.669230769,0.661538462,0.653846154,0.646153846,0.646153846,0.653846154,0.638461538,0.646153846,0.653846154,0.653846154,0.669230769,0.730769231,0.746153846,0.792307692,0.823076923,0.823076923,0.846153846,0.830769231,0.846153846,0.807692308,0.784615385,0.738461538,0.707692308,0.7,0.7,0.707692308,0.715384615,0.738461538,0.776923077,0.784615385,0.776923077,0.776923077,0.769230769,0.746153846,0.746153846,0.730769231,0.738461538,0.753846154,0.776923077,0.776923077,0.761538462,0.776923077,0.769230769,0.792307692,0.769230769,0.753846154,0.738461538,0.730769231,0.7,0.646153846,0.707692308,0.692307692,0.746153846,0.738461538,0.738461538,0.769230769,0.769230769,0.761538462,0.792307692,0.807692308,0.776923077,0.746153846,0.723076923,0.692307692,0.661538462,0.669230769,0.684615385,0.684615385,0.730769231,0.769230769,0.753846154,0.792307692,0.769230769,0.784615385,0.761538462,0.746153846,0.746153846,0.730769231,0.730769231,0.723076923,0.715384615,0.715384615,0.715384615,0.723076923,0.723076923,0.738461538,0.746153846,0.723076923,0.730769231,0.715384615,0.730769231,0.730769231,0.723076923,0.715384615,0.7,0.676923077,0.676923077,0.661538462,0.669230769,0.715384615,0.707692308,0.7,0.707692308,0.723076923,0.738461538,0.730769231,0.746153846,0.730769231,0.723076923,0.723076923,0.715384615,0.707692308,0.715384615,0.746153846,0.776923077,0.769230769,0.815384615,0.830769231,0.815384615,0.823076923,0.807692308,0.776923077,0.776923077,0.769230769,0.784615385,0.815384615,0.8,0.823076923,0.807692308,0.815384615,0.807692308,0.776923077,0.769230769,0.753846154,0.738461538,0.746153846,0.738461538,0.738461538,0.738461538,0.746153846,0.753846154,0.753846154,0.784615385,0.769230769,0.769230769,0.715384615,0.715384615,0.692307692,0.692307692,0.692307692,0.7,0.707692308,0.723076923,0.730769231,0.715384615,0.715384615,0.7,0.707692308,0.730769231,0.723076923,0.723076923,0.715384615,0.723076923,0.692307692,0.669230769,0.653846154,0.646153846,0.623076923,0.630769231,0.630769231,0.653846154,0.707692308,0.7,0.707692308,0.676923077,0.684615385,0.676923077,0.669230769,0.646153846,0.638461538,0.638461538,0.638461538,0.638461538,0.638461538,0.661538462,0.653846154,0.669230769,0.676923077,0.707692308,0.692307692,0.676923077,0.661538462,0.653846154,0.669230769,0.653846154,0.646153846,0.646153846,0.630769231,0.630769231,0.615384615,0.607692308,0.6,0.615384615,0.623076923,0.692307692,0.723076923,0.761538462,0.792307692,0.830769231,0.8,0.823076923,0.823076923,0.807692308,0.8,0.784615385,0.761538462,0.753846154,0.753846154,0.730769231,0.746153846,0.761538462,0.746153846,0.723076923,0.753846154,0.738461538,0.715384615,0.730769231,0.715384615,0.723076923,0.707692308,0.753846154,0.769230769,0.776923077,0.746153846,0.753846154,0.746153846,0.723076923,0.730769231,0.723076923,0.707692308,0.723076923,0.738461538,0.746153846,0.738461538,0.776923077,0.746153846,0.761538462,0.723076923,0.715384615,0.723076923,0.692307692,0.684615385,0.669230769,0.676923077,0.676923077,0.661538462,0.669230769,0.692307692,0.7,0.707692308,0.723076923,0.738461538,0.730769231,0.723076923,0.723076923,0.692307692,0.692307692,0.7,0.692307692,0.7,0.7,0.715384615,0.730769231,0.730769231,0.746153846,0.738461538,0.738461538,0.746153846,0.730769231,0.769230769,0.769230769,0.769230769,0.761538462,0.776923077,0.730769231,0.746153846,0.715384615,0.715384615,0.707692308,0.723076923,0.738461538,0.738461538,0.738461538,0.769230769,0.769230769,0.746153846,0.730769231,0.730769231
ECG_final.csv,0.884615385,0.884615385,0.869230769,0.861538462,0.861538462,0.846153846,0.807692308,0.830769231,0.838461538,0.869230769,0.838461538,0.923076923,0.923076923,0.923076923,0.884615385,0.930769231,0.907692308,0.861538462,0.9,0.861538462,0.830769231,0.892307692,0.884615385,0.853846154,0.9,0.869230769,0.846153846,0.892307692,0.853846154,0.823076923,0.869230769,0.853846154,0.792307692,0.830769231,0.8,0.846153846,0.876923077,0.861538462,0.838461538,0.853846154,0.846153846,0.830769231,0.784615385,0.807692308,0.846153846,0.830769231,0.9,0.915384615,0.9,0.923076923,0.853846154,0.9,0.869230769,0.846153846,0.915384615,0.907692308,0.876923077,0.969230769,0.938461538,0.884615385,0.930769231,0.892307692,0.861538462,0.884615385,0.884615385,0.846153846,0.907692308,0.892307692,0.853846154,0.923076923,0.884615385,0.876923077,0.9,0.876923077,0.892307692,0.930769231,0.861538462,0.884615385,0.892307692,0.846153846,0.907692308,0.892307692,0.861538462,0.915384615,0.9,0.884615385,0.9,0.853846154,0.907692308,0.923076923,0.861538462,0.938461538,0.9,0.876923077,0.938461538,0.876923077,0.869230769,0.884615385,0.846153846,0.830769231,0.884615385,0.846153846,0.869230769,0.907692308,0.869230769,0.907692308,0.923076923,0.853846154,0.907692308,0.876923077,0.846153846,0.892307692,0.869230769,0.846153846,0.9,0.876923077,0.869230769,0.907692308,0.853846154,0.861538462,0.853846154,0.807692308,0.838461538,0.869230769,0.823076923,0.892307692,0.915384615,0.869230769,0.923076923,0.9,0.830769231,0.861538462,0.846153846,0.807692308,0.776923077,0.846153846,0.861538462,0.846153846,0.884615385,0.869230769,0.792307692,0.784615385,0.769230769,0.792307692,0.776923077,0.723076923,0.746153846,0.707692308,0.738461538,0.730769231,0.753846154,0.769230769,0.769230769,0.776923077,0.761538462,0.761538462,0.746153846,0.730769231,0.730769231,0.707692308,0.684615385,0.715384615,0.761538462,0.792307692,0.823076923,0.869230769,0.892307692,0.876923077,0.876923077,0.807692308,0.807692308,0.761538462,0.8,0.8,0.830769231,0.838461538,0.830769231,0.892307692,0.969230769,0.907692308,0.984615385,0.969230769,0.892307692,0.930769231,0.861538462,0.861538462,0.853846154,0.830769231,0.884615385,0.930769231,0.876923077,0.953846154,0.976923077,0.884615385,0.946153846,0.907692308,0.853846154,0.915384615,0.923076923,0.869230769,0.984615385,0.930769231,0.907692308,0.953846154,0.892307692,0.876923077,0.915384615,0.876923077,0.907692308,0.930769231,0.884615385,0.938461538,0.930769231,0.853846154,0.915384615,0.892307692,0.838461538,0.9,0.9,0.876923077,0.907692308,0.892307692,0.830769231,0.846153846,0.823076923,0.8,0.823076923,0.853846154,0.830769231,0.807692308,0.853846154,0.838461538,0.792307692,0.823076923,0.846153846,0.815384615,0.853846154,0.9,0.869230769,0.838461538,0.930769231,0.907692308,0.846153846,0.907692308,0.9,0.838461538,0.884615385,0.9,0.838461538,0.884615385,0.9,0.846153846,0.869230769,0.9,0.846153846,0.838461538,0.892307692,0.907692308,0.838461538,0.9,0.9,0.838461538,0.823076923,0.853846154,0.853846154,0.830769231,0.907692308,0.876923077,0.838461538,0.861538462,0.9,0.861538462,0.869230769,0.9,0.846153846,0.846153846,0.884615385,0.853846154,0.823076923,,,,,,,,,,,,,,,,,,,,,,,,,,,,,,,,,,,,,,,,,,,,,,,,,,
