ECG,-12.016400798126135,-7.8530455676543625,-0.25305421615277623,6.956815434552421,5.255439785743235,-7.888435764337931,-17.97457477837647,-12.779186013564644,-5.420199324254407,-3.8350934168897197,2.06203624645061,1.6560399284716425,-15.771834044135975,-23.70535578043915,-11.63341060340732,-6.776979804916849,-12.815650713279414,-13.327965552118254,-13.80958417673374,-17.520395253347083,-14.315283779822394,-8.732972330917537,-7.548777930863324,-5.387085103621402,-4.216844819503095,-8.204527393924366,-11.523032117663941,-12.13885651615849,-10.032302948447263,-3.0773932336282854,0.671421405975142,-1.4763040927979691,1.6403005969683981,3.591348646189852,-8.681223113506167,-18.59222234442545,-11.107782286195723,-2.9325531039182593,-7.330176839296259,-14.9430123594755,-15.167323110833632,-7.562539221072981,-0.3052831966235523,-2.420706645589881,-11.043955540629955,-15.48190097787058,-16.517290256417958,-19.77351905590761,-11.675837753025643,14.36105163204897,33.373415760920054,34.567701812050984,21.252061727183765,-13.015786328048431,-38.498201230000745,-43.0435976888708,-72.07751240852781,-95.94876829519475,-97.1094955863472,-179.35422247249565,-296.82176544455757,-269.0077828296848,-0.16278088276209246,585.8522031830981,1096.2016090440802,696.3462823597044,-279.4764732749294,-498.8512705651525,-52.89985792692568,-22.421342469547362,-236.08369676254242,-119.54523502387929,-15.156715873717047,-99.12393650983755,-68.95743800803224,-1.4609368069648454,-37.95006031594921,-32.72060273943791,8.828233938315696,-2.2445013525994657,-4.829228674070421,2.9022460395498584,-23.261280605710994,-35.026061519297755,-17.060101422724166,-8.818269076400432,-7.355832304277931,-5.941389707273408,-12.154041646138815,-10.809392323152746,4.544758897429022,23.91880840120748,50.0217036397309,75.46705840310476,83.6747878335091,87.75543018513015,103.93075431604667,116.88391286260429,109.84277588136545,79.40393634988247,25.781667551113102,-32.150702631276964,-67.87197323779566,-83.24021923103864,-94.2434706987618,-100.66043226157392,-97.03007444546114,-85.72587434024857,-69.83905264052281,-51.765796583968,-35.734341976213116,-24.668522760422903,-18.437374366424848,-14.40590201643002,-9.16064902592258,-2.5769754864935024,1.6886466675231624,2.3635232699250857,3.2322861474562394,5.580688452127472,4.728511138083558,-0.4846833840128433,-5.132531090416418,-8.3360982339712,-12.97015189567064,-16.631448898756553,-15.130550571317807,-11.282043741686746,-10.757579963849889,-11.246496199238685,-7.016389366625738,-3.9221942607070446,-9.190510259725738,-12.292391232367066,-6.006017329223564,-3.8185295649613575,-9.163381481992303,-8.799923648840622,-4.368249281561912,-4.5459983893165425,-4.912839865865255,-3.900832003935207,-4.695459612050451,-3.5170568220412797,-1.5941463450201674,-3.667487536453301,-4.938633999801413,-3.8926831219921407,-3.4580232615251543,1.2826596480636763,7.1196665748733725,3.8560696470054525,0.48953041497120253,4.883840136346629,3.7723693142742842,-1.135205602153941,4.810314660886365,7.29990282547921,-8.163760960802929,-19.4135620422276,-11.600480750721234,-1.3672728152130773,1.6347776766986986,1.0949433806487523,-8.642849414599063,-29.69601938945334,-43.533786534766506,-35.61812654832583,-15.838722411567069,4.5359526718272605,19.087895419265845,17.0127690726248,11.414573156471622,13.55654972925815,-7.061692008813173,-41.02133388010967,-52.58123146765344,-75.33875181888416,-99.16129422873016,-88.53020099662254,-142.75501164793522,-263.03260773888286,-263.6855645206794,-39.82613389685599,479.40634992228837,1032.482134931527,803.5399465177923,-159.3531764041039,-550.1067372969396,-126.34422836679794,13.421337992412418,-217.59173583794967,-154.46331275359464,-9.72464339781628,-82.51603349933356,-88.04489066863215,-9.584797285142663,-28.640853004915428,-36.84813060333887,4.28093913098639,-0.46446426866472557,-12.678729371343136,-5.284162203600745,-14.124231908800525,-16.055922886255615,-5.466526392798086,-9.82920782517769,-14.493899975585451,-9.322272179459176,-7.934394307137043,-5.795063656640828,4.229682832600965,20.11516059450119,41.73950167608235,62.92688331239255,79.51855377674131,97.39326320065975,112.56313296435104,113.80696885996858,102.73889531940662,81.27798469160594,42.90880211785011,-4.198260565029367,-40.34019839927048,-62.02813895386651,-73.52962224526256,-74.4064070527577,-74.13131036472627,-78.16860917831434,-71.34510628678161,-52.01485906486016,-37.64073115290003,-29.20564486858072,-24.642031603201183,-30.674271131639067,-34.05383771177057,-24.41972745262869,-19.14425768094663,-17.970780682085937,-6.62296728225855,-0.9450541117427882,-8.7680256196798,-8.669998390596668,-2.4855038389511535,-3.38125715352308,1.0219276169331017,8.528369579176818,-0.8564789379983182,-13.032555394816209,-8.129474740604142,-5.396338966410628,-16.986831944125264,-20.918425065801298,-11.287681996064387,-8.440546962087925,-14.667215614730015,-14.035569263546845,-6.274937829299322,-3.4355509976308554,-6.3974071801631,-7.719146244511332,-6.086993367283711,-4.632737607351366,-3.773547393456182,-3.2482810990894553,-4.556014759109187,-6.148185425838964,-3.1834726978989067,1.404168357069656,-1.5748312751893714,-7.136339227356263,-3.2879221635996636,0.8930643147997479,-4.748269158109613,-5.463227939637942,2.176356312419154,1.5709101593690384,-0.4329934274312244,5.482545851452844,0.6427342672947862,-13.398742650298091,-16.603363698398223,-20.349258418119614,-28.048888363531532,-18.829333834960572,-4.3264740612637596,3.0574114266389456,18.49746630183866,29.196163379089526,24.81490679490875,18.73609030646211,-7.288587947101909,-43.20023598195958,-51.69266587536603,-64.53686834206823,-78.283288367918,-68.27656248425042,-134.1918024075366,-261.777329243755,-236.15051605239722,67.58288994697233,630.7439453808547,1032.1399324346835,551.842992485725,-434.41848466047935,-614.9602787805527,-73.00341132325407,34.9405212622137,-191.02231755399075,-97.82060601951298,15.47714731573565,-80.1922461165601,-62.739370840428464,18.52849615135335,-22.45633716608745,-37.68541938218313,-1.7367994854664524,-23.18578593244759,-35.60666268153258,-8.88860284330443,-13.44271649772777,-26.443436199448364,-15.401062162277402,-14.059538755005278,-18.285902524074643,-6.10126348535621,-0.051051944261444326,-7.648120139241591,0.18411552078408988,28.0028304478466,53.83131361693113,73.8320213413473,95.46117908710858,114.36213616127304,126.16137386937518,128.1633131974312,108.93446046589429,68.46018926496295,25.350874748282358,-14.924048290477055,-57.532812534131196,-87.35001775090402,-91.0540274878154,-86.26255087274093,-87.379113992844,-83.9502606497446,-72.66809986033941,-62.12930618033717,-49.61329695326316,-32.62604345261107,-21.114796596713866,-16.51312746489352,-8.362425744218903,2.1653756708838046,3.970077675857066,0.2863813890457507,3.775638808530779,10.382782174474933,9.481742379212363,8.028729685944441,9.007025203341964,0.2592870338848865,-8.943240974692593,-1.7073620344201448,1.6475365568775615,-14.597962708691842,-23.850444481555943,-14.294785881488387,-6.332527956740929,-4.75603927598023,-3.605698480574363,-5.026140644780378,-3.666811138792742,0.6024222688111927,-5.7783345455465,-16.071830808985744,-10.574380391977503,3.3458203664168256,7.49073905908833,1.483595922215045,-11.790517527116886,-29.181392716126126,-34.9672383276034,-22.354671213013674,-8.122515582683125,-5.097393311601206,-7.938779874952846,-8.752669339757395,-5.858007456674823,-3.134279062596123,-2.3500225001609287,1.4607730370571268,3.41789735458908,-7.3198619720515445,-20.077524045405607,-22.037673308138608,-20.750886690862217,-15.888256743224884,-3.810659335909449,5.004920798405735,14.78599998412641,28.339721125422546,30.601170902209255,28.6833857353344,17.06167157736918,-23.833674274284174,-54.19214872948508,-64.25423275093125,-88.39606446339468,-83.08784321521023,-88.1110522620561,-213.1216309709869,-312.5275933426018,-184.03198569857136,221.17428183898713,852.3053042135545,1089.508291297744,304.17453558051227,-598.6319846059457,-444.6389607637417,41.338729195046156,-79.12063422277592,-224.67067371307252,-37.59811276555925,-14.016239804233962,-105.30070157816455,-25.465638875829924,18.325541469940617,-32.77619864349024,-12.369020765306967,5.269479933557216,-35.9562687144048,-39.765594125719204,-18.386282285957485,-22.935252728391127,-26.82441546659321,-21.874529283657644,-22.93089286897184,-21.945835242075702,-12.608972336263964,-0.22765295199873847,12.294079436717578,26.3253890900234,38.44459147077063,45.99281747177703,62.62674549107654,92.77781460417121,115.6554498911343,126.10110259811395,129.16050444730496,104.49464065980911,48.97792394219805,-3.3396495670192867,-40.47711823329371,-72.58556815005986,-91.79958089395834,-94.07442991387856,-92.17370726469736,-88.85504871931963,-79.60194042506419,-65.6388166103229,-49.06010189943179,-34.508462207237756,-25.886896071242752,-18.282461706113885,-8.98265052863055,-2.8736744427687455,1.3723029838400187,8.832061160103088,12.319290594397273,3.863746787738279,-3.3928204511077933,4.882727428862326,14.006722328882722,5.4997663672469095,-9.042977861640047,-12.910935354053159,-11.091745236897058,-10.704413565685796,-10.12656030190529,-10.18268166733749,-9.751757999552993,-6.372881973662119,-7.31577483943258,-13.939379719906816,-12.912983497556418,-3.5255383451857565,0.6427237176592495,-1.6005116199336857,-3.6979894474143933,-3.81630760726393,-0.25915074526671233,3.9522801039810407,5.143989603845275,7.329707198341477,4.330744515699745,-12.006347782751135,-22.29709739270626,-12.423036517724743,-3.7555193977960037,-7.867903123874871,-9.592066642210835,-6.415589835342816,-7.627381799668269,-8.273299215762732,-0.271314374131979,6.888033734444715,-0.3996471904531589,-10.864141452522988,-5.4490411891054995,3.6188897035245424,1.4271276279874225,1.2147110102760603,1.012707394453324,-13.525612317806633,-22.96705167534706,-17.59631930655698,-18.938080849162333,-19.064949231475513,-3.7598839984938337,10.519132297106417,23.634428974060597,36.617789459817516,36.07624258512019,35.071755202391394,20.65171274035005,-31.37537580562543,-70.98320382926308,-83.91073606151568,-99.93561031522826,-88.76217475422908,-115.07345700711167,-251.30466194562175,-326.0852954656556,-186.70299708769903,238.15830762781522,915.3837735542588,1112.8753401873068,259.1905805457589,-566.422800987447,-344.2840784542231,35.25110757618425,-153.94333448034672,-240.85279442969443,-50.160633134393294,-61.68773275934912,-126.88576104671704,-36.73415033626968,-13.163955442116425,-48.13774355635468,-11.617983185283183,1.0490621300260585,-24.24739045718789,-11.593555538525028,-0.7366119123690105,-13.451935801525378,-13.976615740053116,-10.654342194948489,-13.75453070435789,-11.973263003265842,-10.868329638085115,-16.339695415696518,-19.125383132012722,-8.731355463543895,14.687916544841558,40.467475942710415,64.91677017116446,90.09958073242484,108.54664412845764,118.55711152084919,124.97602798924049,113.81869267989784,74.66331086953011,27.167524948759713,-13.910882577651773,-51.7913883566563,-78.61252362924529,-88.09458522733755,-92.20041317047951,-92.70087121790583,-79.72783879605825,-59.185858342140975,-43.72595527091613,-34.97520434805095,-27.848681958757783,-16.89450379396795,-5.7519605190524,-3.6017955945764086,-3.951244729671984,3.407323362661142,9.010689126136773,5.604882186126073,2.758919811054877,5.384548726406702,10.712491293736349,12.291265562510015,-1.748099332598919,-22.740037961961196,-23.946583669347856,-11.14122270370419,-9.455653106806611,-10.979440183395429,-2.8283605838620716,-0.4791920243748571,-8.924117411523218,-11.722848049346092,-4.328645357961742,5.1287437716785025,5.41085811769611,-10.711977119090434,-26.54093815362811,-22.226399750127733,-9.928159328217838,-5.935692836603344,-6.122904815385985,-8.96838817233229,-14.239825769994159,-12.579825020415651,-4.4561458467982415,1.4155305238416496,2.889457639269473,-1.14447593989307,-6.596004334434003,-4.131406616193072,1.9092493548809735,3.500782277045756,4.493218211563551,1.9732990411946023,-10.610244505521456,-20.04472617246708,-14.067141047552688,-4.143122314262419,-1.725304064422593,-3.1195434070290435,-4.240610686598842,-5.239536539253388,-5.876657058770025,-5.698131321696149,-3.8017376628768407,-2.701205511231077,-7.0881845603028,-13.882381275940984,-18.917647697096378,-21.476658013828104,-14.057409028160153,0.33494671766149686,6.333170666791197,11.751420662206101,22.693471773081043,22.63080782573664,18.384752639609847,10.534272666325602,-20.925891198809417,-47.93622951553735,-60.93581607149608,-86.67640701342754,-87.44660172502984,-99.48008238997365,-217.69080038021542,-314.3731875458965,-214.2264385122474,153.63296734414166,792.6683156772986,1111.613295194861,426.20926550460933,-473.29352541089656,-417.08904572637425,2.733386356468074,-109.50008115542121,-253.1458031847514,-75.68807145699634,-34.01614866308789,-121.52310971316396,-68.06630290405622,-24.51879381085962,-53.2600315354446,-28.190861492761925,-2.7869618167419006,-20.782211534434573,-21.714160206407627,-16.593773913554678,-23.9200802261196,-22.087688188899257,-18.548951629676125,-20.135941463002403,-19.071734521527496,-19.721636231142234,-20.028231161694638,-11.918825869189758,3.457459841517755,23.581065568762465,46.419722810368654,69.18126622277711,86.78675187545844,93.06961657469526,96.00512667961087,107.13911388154825,112.25403723101293,88.63150205936125,38.82285306129158,-16.12328105100255,-56.117871951203455,-74.30676870489185,-83.58064364380186,-95.06848213663122,-97.60168052534527,-82.94948442754405,-65.51030856978525,-53.93164364321012,-39.49867241916856,-25.39844855860496,-23.87507579342448,-24.325884005464502,-10.940000986916786,3.1988944993778006,2.285629550989402,-3.3232188712470005,-3.2940238052232225,-2.260856668277526,-1.3532962503890715,0.8231437471172534,0.5717856786635203,-2.5636350038840625,-6.529164686434779,-9.680158791279428,-7.9371580186537045,-3.4494166336580854,-3.931408050153861,-7.328034304590744,-6.89363619845828,-3.880631263636955,-3.0549364222237294,-5.473615588401028,-4.946837790830559,2.0064740331741007,0.9092431817022977,-15.224074006467212,-22.927751786126308,-12.695250588657583,-6.336869719640703,-6.212102090453094,-2.4085368576456716,-10.418188303768016,-28.677605772494463,-26.4773279360412,-10.329116993884693,-9.05910678638315,-12.583191557093443,-7.253177236200344,-7.495023333636762,-13.020248717966469,-9.942349094599713,-4.474463883409019,-3.303676370547244,-0.41249340490460185,1.7342275369669693,-0.1105303715461492,3.5557124584967097,12.622270607229451,10.925475763540657,-2.3806415241430354,-8.48548514495273,-5.164884026227234,-9.65419527368702,-21.207403068490976,-23.908950497747824,-20.40815465004847,-22.04612531500424,-25.209756441373266,-22.24237533669206,-12.766377232860766,0.3384869625441347,15.88971196631423,30.704995631425493,31.141787724473595,17.866915530061185,9.675937234381928,-8.71764995503826,-45.87525171296533,-62.03538066340259,-73.09014901502321,-102.08167681938049,-92.9922483241916,-103.87516481177082,-223.28137530603857,-289.0161168959224,-130.68851894983203,291.25736657046514,882.9177730639823,991.6597156143273,159.61338316152188,-605.0432108154566,-361.0056851934076,54.762122293613885,-97.54909437888021,-205.41986109911593,-36.90771972268888,-35.106587265634516,-102.97204692388547,-30.65307011999232,-8.97419174667894,-44.99023096458548,-13.699758325450869,3.054310650716179,-16.52361061615594,-5.808809249700589,-0.9811075642796503,-16.724045579951795,-13.909918388799277,-7.47248485081135,-9.621851812016624,-5.382718869143686,-9.197934060471749,-24.397028377616405,-21.02548397915032,3.5732630551097486,28.901529674221525,53.979716689359854,75.9422605842595,82.77618389405319,88.38725756367927,107.78688180541221,121.65387455309066,115.55553598535232,92.71852851140892,44.949091755370446,-17.868836519547596,-59.87212767465563,-79.497527059306,-97.96257003106092,-106.93744106801009,-98.60137768413445,-87.99679263612371,-76.89928719851864,-57.78111017591709,-38.25775525427954,-26.0031873269486,-19.346634484387465,-15.042616013383451,-8.479047443294629,0.6723510714909544,6.488167469192087,7.19136504056009,5.1035326710011955,2.1776999619887967,1.237216594412935,1.956094218592055,1.598014017655144,0.5333526012727088,-2.901347791668371,-9.647526606475463,-11.138894244827796,-5.2304914312900515,-3.6742068013148614,-6.434540950363724,-3.684332352557039,-2.058823198744051,-6.741300223946574,-4.6996223233658405,1.9905725139076598,-4.545965677623133,-16.860685175577593,-16.812214868454532,-12.130196159318471,-12.473990077081496,-9.265522924980539,-2.8891276694549717,-2.5993758723325,-3.362893291220871,-1.3624609633204638,-3.1022978429275874,-3.773494723357528,1.9848223892129768,4.616822546189941,3.7572597460026045,5.270116038179948,1.7566557435752976,-3.518858877072459,0.4423681894656504,2.6586647281077287,-1.0470521139656501,1.5013161986048793,0.09154275543818002,-11.085390680018747,-9.372453506863849,2.970358303089551,3.6938489310221208,-0.20444529760129804,0.18419621988294566,-2.1499082859860295,-3.0454498342103413,-4.210021435804485,-15.641351097735114,-22.349900958150677,-18.132451185848378,-26.035580687846256,-34.0800920573586,-13.658306620785009,9.915452595593765,16.095238451015504,15.504282391747408,-12.628157583421881,-55.720614129993606,-65.69455833989115,-78.2454480594344,-101.95030484184491,-91.22909613929963,-138.897532519545,-271.1310234596184,-288.84666164199905,-65.3641639762669,452.1453550651018,1042.2445317540314,901.279344374764,-69.83949365281421,-581.9057285057457,-184.34554212318494,31.352905056993478,-197.96597132067433,-172.5067839892232,-9.511790164470966,-73.55921196096608,-94.84541633848356,-3.4084633634648007,-17.989607102334674,-48.05561971733163,-7.886555194968862,-3.668885738309257,-21.617849272129863,-12.16337501795006,-11.428279000258362,-14.556819212554986,-9.251528160719763,-18.302332790474384,-27.42374803518352,-21.189035192327083,-17.97001714468836,-14.987694359320987,-0.3008949698341681,13.732865116505508,24.75596781223301,45.383935210188284,71.58079247321973,93.69140925499107,109.9604805165207,116.50542935014418,116.27738986152201,113.39392039281356,91.46738812053962,45.99347333753899,3.9657172505777085,-28.810709856610856,-68.22459221197897,-97.7530412553263,-95.6706733738396,-78.86615258403842,-68.3501526192877,-65.77189639097932,-66.08254463114139,-55.99166891645886,-31.83034676832297,-13.151659797378517,-5.322710871945219,3.509935532247365,3.5490999947309128,-11.966525351298351,-17.670913145841475,-5.8292326559870205,-1.0936565072399844,-6.0456734706367286,-4.821734156663581,-2.9991616233576686,-7.380675250943618,-8.420582183584411,-5.937781328027478,-6.7487748392211095,-6.89054646952588,-5.9360558674325645,-9.34644523836716,-10.792104594095296,-4.513290554447053,-0.768179154149049,-4.828660321126909,-6.752295794760034,-3.4621444850064442,-1.050630007705113,1.40543534710406,3.097313027275746,-4.164318870540361,-14.75888669175782,-13.600888288326772,-5.302370540586946,-4.263622392494835,-6.7728904657702245,-2.9233862063259,2.6216835791903277,1.620604290357857,-3.537258056361658,-6.03992045853018,-4.913353597528422,-4.7339484371154406,-6.382439274922749,-4.626773144129028,0.4849301652345819,2.372087733834615,1.1635343551421196,1.3946990597282216,1.1770927224909107,-1.7497467421500943,-5.335187115294781,-10.345078677700277,-16.915284524256354,-17.21065068851762,-8.34061584682221,-3.4409271435288886,-8.448726150052405,-9.136582303630131,-3.5119724329153126,-0.5020770034202684,9.538190879887225,21.426768386926774,18.16380711631182,19.691703458608806,16.328770781073437,-31.442324051639215,-75.68151440282422,-78.91642828258914,-88.7695068410747,-93.76182465856897,-106.91377557393736,-205.71389880839803,-290.099312653206,-194.07480772561567,167.70531993328638,783.2875978337668,1065.8545059241183,380.79354851537585,-486.4418240989695,-413.75735113540924,16.312303561648047,-78.75018602389544,-230.54496062410863,-76.75493698707143,-31.869972240487627,-100.48130241544125,-39.759344898189,2.2465472057994944,-36.200049900327365,-27.735399492638738,-8.614946929160036,-16.739109375963302,-5.385745320905624,-0.371566607512019,-21.09391364539892,-29.35170002163698,-24.330892437369727,-24.902522523344558,-24.12209860569235,-17.66199675721789,-14.849439958288794,-15.210914344092338,-3.202945361978708,22.121776206792877,43.724530186101674,63.20110557080951,87.52467521015956,100.39840252625302,100.53608298969638,109.05811897065864,116.47595177656629,96.64597107312063,55.7744854815925,12.625554139771799,-27.786726863693694,-60.837603731291814,-80.91210538454142,-88.61840323205548,-87.88003683038417,-84.11961816722967,-75.06908083386385,-53.54877195347198,-30.22849886629509,-20.328901925897753,-14.930139247208587,-4.941784503703399,-1.2320205530010817,-3.2650745714094214,4.2150553872174115,13.661714132679943,4.041182006865416,-15.947907626934207,-20.70637684578375,-12.193720173928558,-7.520816067412767,-5.407943242272665,-3.0144629347832463,-7.05622866253692,-11.006580372612888,-7.879950531293641,-7.657066877420203,-9.744665045167327,-3.164173361422847,6.665086430100873,9.78547123324583,2.810664429562866,-12.01464761793587,-18.50070659679124,-11.38841623356765,-7.898623558042775,-6.360859383186403,1.6308005986948206,-2.909483257413118,-19.391877240323456,-19.224812162497386,-9.121645543596962,-10.93140161734742,-12.610159272329533,-5.634219305995462,-4.674628167249683,-9.63720551939782,-6.535684338142373,4.072127002299178,8.62400967690683,-0.22814265795564737,-13.415602638387417,-17.68036617739582,-11.58508731988855,-1.3722761133861656,4.708472149337737,-1.0815235057550296,-13.858561305106488,-15.844506914873604,-0.5954486439810251,16.023445768145134,26.4580947945989,32.40330558519533,5.407470470249537,-51.390771260676324,-69.66488804002928,-64.55580215887227,-93.47453548306501,-96.67626529063133,-94.57418707698072,-197.66083056364263,-272.0201061575681,-113.10350907545067,315.3049718486113,896.0446035645085,1006.8100089800473,152.05341053722702,-699.7238188360593,-473.7125623100853,44.581487307972864,-56.40187508521964,-201.96413521530314,-34.21218396716908,-11.609211166140625,-99.07741004992116,-32.76899435125232,11.732134578187228,-28.737287481440593,-20.485285083784994,-3.723102720509063,-12.184166654896615,-2.459583641558485,-0.311637747176416,-14.858388596833198,-20.805428215024588,-26.755698498933913,-29.65922627393772,-20.81447544972277,-12.290729306966426,-0.4415842727659154,16.152889297164563,20.255817418720092,22.085793568083112,48.278639632056894,87.20139270552365,110.41547122887536,123.68585099481658,141.17880279733023,145.4739453359631,120.87703613407054,78.87418015529855,30.860032882222757,-15.535095255053013,-53.52672065385616,-91.07866447959715,-124.28172225037228,-127.86207052236009,-105.13575457361517,-83.66680073480492,-68.8526761282971,-56.77363386742164,-47.87137831901856,-33.83104279789616,-16.764179184802018,-8.38039030564127,-0.989709844537046,7.270315369717128,1.1428319809666405,-6.299648975438991,3.8686556018552416,10.296040893841878,2.5792770207327553,2.076857380317012,4.151135963459621,-4.364705927430187,-7.9847204702366525,-5.18555920032399,-9.143171478716926,-10.691980428493652,-7.354200667735309,-10.91197184177652,-12.91016788151737,-5.04903117537555,1.6925248417271703,1.5630444307448492,-2.005677242843584,-2.1583127864289935,2.985341981129979,-2.689248395280984,-19.345374833726552,-19.085073375527227,-5.798788290825069,-6.6627659277723,-11.282851893270834,-5.235801323028335,-4.202243396246178,-9.882089116474443,-8.683459553275894,-3.9130222890789383,-2.1134929185099676,-5.356206973168968,-15.56116964372063,-20.613579783760887,-10.726754001964576,-2.6703367260661945,-4.09059259633611,7.29087112002117,28.330787033172257,30.06684690701072,24.663666949753292,21.641996537826056,-8.937731403721223,-42.855888400592775,-51.78897790849273,-75.67667412392791,-85.31111583399107,-72.62507768474306,-165.92894133376822,-303.5054466490324,-248.91217158342766,83.99630390522205,687.7930863215428,1120.668901364138,591.2837445606285,-450.5856058572843,-603.3742475175493,-53.424287367220046,-1.4582441167248277,-237.25731381836727,-116.1426627577084,-8.686076920643671,-105.7111590409034,-72.71711578404914,6.3994963565543515,-29.047252224075642,-25.599405943818457,9.497883462487318,-18.902751417463264,-32.15551676553348,-11.482245991027547,-13.634988763204174,-16.22188017107692,-8.599735170855979,-15.302468750773249,-24.728340039233547,-25.2734778737025,-20.239986743249034,-7.0445301999378165,6.505852319754382,17.758529712601142,41.48470980721385,74.66012023137499,101.20095698796119,119.41992506063923,126.27202824492929,117.58162752094856,104.257810202959,84.79050699710653,42.88856159344031,-8.81750342190864,-45.614168385724874,-72.7445337657703,-96.50329545573831,-103.83362660371611,-95.7081838693953,-83.93550582537452,-67.43574463484585,-50.06723987906643,-41.751896902881015,-34.042385650370036,-17.914935702320932,-3.980021427874501,1.5308081901958204,4.620549316043348,5.190389599449077,2.2795038972025985,1.4812075156452043,2.3847357220897027,0.28309444627169356,-2.4855999795812274,-3.6065911652857103,-5.312110756722339,-5.972118914521722,-4.639363206243976,-6.6495151983866965,-9.981591170020206,-7.1256857596460215,-5.2567427689795565,-12.521554309952325,-16.541152011472157,-9.654411503457524,-4.292950562578227,-4.28120302186284,-2.805145019487968,-2.985108889802964,-5.560048439071384,-3.0226560947620156,3.1227075463185425,7.610194750521718,8.083952004397101,-0.5468361030708131,-12.566267220839954,-13.533561720096708,-5.876518659378007,1.2201526678034078,7.114314327770806,5.561921925670223,-6.950024735200785,-19.63225111388474,-27.946303969271376,-33.529990238195005,-31.599542260006427,-23.1999992308233,-13.573869012494153,0.4120419205936283,19.95942606064834,33.445821597548246,32.13209224891178,28.802669570815702,20.507230471222293,-21.612428745722163,-64.2202887964857,-63.645654330984996,-77.01081526527031,-105.40456592816065,-94.60900154061125,-151.0101306333686,-293.6490624861649,-310.53101294868037,-95.11480816807318,423.20690190612174,1072.275647269507,989.7542211353409,-13.45176294504185,-586.0938665045016,-190.05395244991212,39.305754388852336,-203.17762322613567,-185.14906380653576,-19.043070890543788,-88.17151413408249,-113.98592484192218,-19.940709627226834,-27.92242916335359,-49.39187364629198,-7.429508933610171,-6.672167136248726,-18.91779738822958,3.7776213131436993,8.322214589645242,-7.422940562082244,-16.080765394805752,-23.10952014316689,-24.180682191693958,-19.060164620717593,-16.419923025713082,-11.490002511836797,-7.337443967868955,-4.843276761267947,14.730702349553052,50.52087439522551,80.0031902415864,99.13348402549722,110.63362099804347,108.91707366422492,101.86566531259801,94.3024909076541,67.22596706724391,18.992063825628886,-25.021444532097767,-57.31992612326417,-82.55064338798488,-94.63352969159638,-96.76643419168335,-95.85373894372024,-83.97771710926435,-63.2660559052455,-47.82841362975722,-34.906485341313726,-18.559551445433165,-6.9817608232949055,-2.1197186232805514,2.972672950111914,6.221386367670341,1.6547532707179116,-7.312269999910843,-11.787105353816962,-10.14596413620162,-10.00258898359673,-12.401743849035864,-8.666519066392745,-2.6457270247879947,-6.801588189293341,-12.85426544457528,-7.711023977145363,-2.919867030167751,-6.916142314765409,-8.053558696595436,-6.616647318376348,-9.146507441972059,-6.339263469143166,0.11085168863323602,-1.6055070856879663,-2.1396896285767255,2.125025305529178,-4.490573355080755,-14.506148661910071,-10.722327513480774,-4.817975899162695,-7.8552663172324415,-10.606259260285174,-8.289532857634232,-3.0960816483291467,1.2639697789920525,-0.6719742999886211,-4.214419240621911,-2.7892884313825306,-2.5153756067596014,-5.508964834628376,-4.676299010207201,-2.511377346287736,-7.831323338559212,-18.66598132738052,-24.06900850428952,-17.675853075692846,-4.743004869700675,4.666443721563524,11.31035127122546,21.79138671010969,27.16316392113281,23.163018903508295,23.360360348884754,12.84743430537264,-21.908817825262453,-45.63624999218945,-60.99306971429752,-87.3345695859054,-86.79300175359916,-109.37698553899774,-225.03249112609,-298.4802990136733,-170.6513987957012,248.23253668321624,877.8954631628228,1023.3638519905826,217.4808176689976,-538.229949695664,-336.76342586574054,21.07380202080755,-131.18146373129292,-210.0439666559449,-47.71816995420005,-64.32295085869679,-125.20396435425694,-38.06252291966506,-10.564160530139539,-43.01812143577982,-9.280532010324201,4.372993211829797,-21.619139503638774,-12.097327860311536,-0.8205144663834005,-13.864081960540574,-17.036615273060498,-16.305942824548037,-24.075449137300758,-24.63718829617883,-14.874769113640683,-4.910462355634386,0.7390803975356652,8.498779784699028,27.34146348469214,50.04095560412456,67.12548503267043,86.10324233153935,108.19836334685567,119.43913115702824,115.32105970164189,99.824137185382,70.53649911178256,27.445708484389186,-19.14222572827339,-57.36873214874134,-82.85471318025998,-98.2650281775127,-103.98287427847151,-96.32747635771995,-79.18821925130186,-63.10553119530012,-50.76427775788366,-37.31013280279937,-21.86843147212909,-10.74431056766078,-9.306955799980834,-9.491222549904627,0.37178103627675085,8.738939604368369,0.17859246566824893,-6.182801652613232,7.1575237961765055,15.922293747156754,4.023657460560365,-8.879332416550223,-13.85534997659459,-15.801682129536548,-10.610447560680955,-4.351899224963406,-4.848353079823177,-1.5863447110780555,1.8908014823592758,-8.796853886155894,-19.257752969286564,-15.864611893625241,-10.958555797403395,-7.720376697886271,-4.792293276755046,-10.961489762392286,-16.395602095755613,-11.151106239378649,-9.591782889864088,-6.165263774042259,11.101520655330656,11.49079042785332,-14.891600847940122,-23.88424141939143,-8.352765893774828,-4.0926311583843535,-11.18735653448729,-12.608403348328068,-12.423539955834599,-9.771261696498044,-6.102713972906599,-17.115978275911292,-30.447413295651227,-20.447400350721114,-2.707827305268042,5.6346314174762995,16.478970435823395,23.12928263106565,18.864705513861033,14.265672675039424,-9.05625350190263,-48.08784107079947,-67.89783236735876,-84.30686099428502,-91.79436050813146,-80.75483683483652,-148.47561610226143,-267.8820678831926,-226.95963641665017,85.39441285641175,658.3530702545712,1091.255711317749,623.070059360386,-425.0922048321032,-669.2551992198381,-104.34325587257288,41.36360170355354,-203.40802555343095,-119.0359402382061,23.227534015201627,-69.33106388085471,-72.27270342522064,16.747027142063537,-2.8335107090982703,-19.905239500929845,4.8793166501596525,-16.696698115658336,-32.10972315786801,-13.672310680033995,-12.009527966907934,-15.962483735470508,-13.266481723995275,-16.64745969908708,-14.462839133559267,-9.40231614799698,-7.846645254500898,8.578262905557201,32.0956937562333,39.85697724750694,48.65538624845852,75.28938648985422,97.92248491607758,105.9698760892538,118.82027320828627,132.34045601283947,115.24305751983096,64.9496370822671,9.148894083122904,-35.4685351825435,-65.99251003336889,-84.24652235949613,-99.36737259064104,-109.72134303918703,-100.6680924161672,-78.74439991391651,-66.60689048877752,-62.89168375777631,-51.80577016553484,-35.63560661930647,-24.032013971874377,-16.940038630652595,-12.345348129160342,-7.767595964907528,-0.13461431891043674,5.2862629941243675,3.920411778601995,1.9271074572490363,1.375613732628569,-1.4338676539626363,-2.7755856303098945,-1.8848990310013356,-5.441701299875103,-10.552311421693144,-10.625332976223177,-8.950799955579804,-8.616295474953112,-8.471833002454762,-8.606225347007298,-8.68651622202443,-9.813784641493026,-10.978156425939861,-6.669594726230397,-2.5566746259471547,-7.062780816447628,-8.413406808986448,0.4091790513597715,4.584377392327672,1.610396242836858,0.8232116198787995,-3.884765972293808,-13.38186531119082,-13.345640681806216,-5.225714723776706,-1.7327951196739964,-2.8870560800404768,-4.819998250411622,-6.857649697770576,-7.879155386295734,-9.586178166171262,-11.735514250371835,-13.016038102781476,-15.937919083281589,-14.920507590941579,-3.005334574214687,16.352536593341803,39.1402858249938,48.80198899847238,32.29673275374466,12.02304988363322,-10.468070383547717,-46.60940774357091,-61.3313762546925,-66.53455182708957,-92.49555622676377,-89.27250424498467,-114.8297765516169,-253.1490118402785,-326.3510475496718,-170.94059589765655,256.1956556933319,920.594197651719,1129.7236817858861,273.8073628412134,-606.5433833665713,-399.39966366890553,37.57878410400752,-131.3256405033432,-246.36030302416583,-53.348023074876636,-51.47362387787854,-123.16765248858513,-28.74846681439066,0.3910546434033222,-46.21814142919569,-10.70001200224541,10.466524028532055,-20.24498509634795,-12.631629194676353,3.537944367006599,-8.736083238192363,-14.679638097050855,-16.923546564231152,-27.09154102637429,-26.588282736668507,-15.709078934080571,-9.429827155689159,-6.804153206472699,1.666023040588886,22.845846018983657,55.276605940536044,85.65630776355553,102.70571761868928,110.30987344998914,114.88426749577249,113.85408375400547,101.81243227196715,72.13752326356769,25.170687341626333,-20.992621939242596,-53.52464422964117,-78.62002485521137,-95.14194901232254,-95.50781302524844,-86.71798297646399,-76.28658070911176,-64.5543224849015,-53.864109826206175,-39.42993030962779,-18.804870587392884,-7.087265825869164,-6.499293589294329,-0.006537504347349454,8.068318082343183,1.9391811464975675,-9.473971103297902,-12.204029328451988,-9.262841617436361,-6.070957150969448,-4.87341376944644,-6.623025075808492,-8.02511318297682,-8.176146265433303,-7.8886136355357195,-4.885154757808657,-2.991052194431262,-5.97482270877723,-6.872837606392796,-5.205765129538115,-4.641680482381426,3.226098103379803,10.824090964643737,-4.103319823966924,-24.234951230281247,-18.910941075739405,-5.784102653458374,-5.111548423421638,-1.265846216250667,2.255669019877139,-13.110970158519187,-26.447806853935237,-16.471302750479172,-4.4838447690490355,-5.694466986124102,-7.661761958501863,-6.5492009326184295,-7.676245785761331,-8.0611014085354,-4.725175654617317,-0.5817921292919124,-1.1292531453858814,-9.6921266994141,-20.98255587402819,-25.725196370900477,-19.812883006018644,-5.845088133569027,12.105061919802756,29.522151083214276,32.04388155221657,18.044269759023653,13.253164180737077,8.553251437336353,-22.653744103174372,-48.92496865804299,-66.81634893060473,-101.3994121417856,-100.76565167482707,-100.60764389259033,-206.8124495640828,-298.82748463060943,-205.7872944245458,148.5386305635207,783.9252989687996,1112.756756352395,436.97485815638186,-460.5801125684802,-405.4783332303159,15.633235341391071,-88.58348086156069,-223.53004456686324,-55.73011561031949,-38.90149936225819,-134.58621203326697,-66.81148401831058,-13.237536587752821,-43.40152480172268,-20.071326515344147,4.078542244544712,-12.787140137994005,-7.533537386716368,-0.21707966320600747,-12.08708062298824,-14.68483738366671,-15.689072513169492,-22.31740701573701,-24.039017058525225,-25.520289864101983,-20.468292581946717,-1.6366430874442948,16.329527075701485,32.124314157181125,54.52314031558037,73.20522494191846,84.62293858602592,99.59921284641442,112.62716440586946,115.46555443515751,110.43031216974005,83.74237553047546,28.055813817652467,-25.014500239715797,-56.4090043873336,-81.77577098394083,-98.71814252783793,-97.34162653238293,-94.55101117738161,-93.50735702813658,-77.07815412271997,-53.71015810481353,-38.484352829686856,-24.684249218389752,-12.447806803404546,-10.563096332049831,-12.628675917789906,-11.047962896410674,-8.088128879581731,-4.1215605144054805,-0.5792690625903845,-1.6764980197404533,-3.9924837390893515,-2.0462983993516524,1.216477831706527,0.3594951326732101,-4.795061301860471,-10.146106091932197,-12.526466847452006,-12.348773977155783,-9.535108546167795,-4.0680898267576815,-1.3407069602621817,-4.479119131592865,-7.408481387621123,-6.175216420884848,-3.296938496938619,0.9737317177585272,4.843886501734126,0.5625519622179116,-11.541092059541954,-18.14483031384877,-13.375003474323554,-7.95550758618867,-7.453546908971676,-3.701972851907822,1.434766101965602,-4.123669374595298,-13.785920876708051,-11.470240861493352,-2.3367907122302576,-0.7760842421663199,-6.00709919795446,-8.961475965255177,-6.657836345486775,-3.397257075668037,-1.937062994542611,-0.3187380925670187,-2.3725475291493687,-11.611427533808914,-18.55904546278572,-19.2850035520947,-18.253885179203188,-10.623784559353581,-1.0147631406581663,2.0734046774544,12.859241319379187,27.8693231779757,27.424706295656854,22.462874790457455,7.607198822106472,-28.89488173255026,-51.75846568094621,-64.91590464892428,-85.16310493982932,-74.61604515307882,-96.88176811292276,-215.74813905809103,-265.967933031745,-75.57123553239256,399.0706877116286,945.6590602350643,847.7816047753469,-78.33257771767227,-654.7723791974332,-268.0435599856089,54.511524096607204,-150.65563897408106,-177.1203138498053,8.359391787601481,-32.513710406891306,-91.82356633190629,-4.669944201753353,2.996800096464945,-40.42610477966524,-10.08370807580569,4.77927747950473,-17.798351595543384,-17.77707985907861,-14.978153929261754,-19.842786025894178,-15.00507458368761,-10.744846860824868,-11.2287098019973,-11.286442590668006,-11.607607256747912,-9.838982532362557,-6.121900173487226,3.29792246984508,24.28843987732376,47.05666220813431,64.4123575139024,82.26898525963057,98.38943635469965,107.96339950247663,111.09663152481001,98.29936642708438,63.66014710809915,20.25781760115334,-20.64850559822304,-57.06823439366519,-84.06446836759366,-98.49934108139965,-100.74775948291841,-90.66553769021955,-76.23969773399979,-66.31341099481803,-55.450434195242536,-39.292290049655186,-25.417792011424577,-17.307509691613273,-11.096469334245654,-3.8564254368229953,4.370920796082242,7.920707432582093,5.493252509257669,6.634638761305563,9.805049930913258,6.416612944955849,8.305713340974721,18.616152650949562,10.850363430918163,-13.914005101549467,-22.31734312691825,-16.04644650033698,-14.71138719481242,-10.030420157806713,-6.1378276467589,-21.904863316667157,-36.39283922369691,-26.26928476256525,-13.069391614735686,-10.504805471503275,-7.242778583579714,-8.303633968549846,-16.214673649653214,-14.753646626509903,-6.391277130228284,-3.8703435209681025,-1.394784447895704,1.2843986075868,-5.227139209460493,-11.26857755003885,-4.263540534213739,6.449376217804544,9.001978716646983,5.698564855903658,2.734146889318116,1.8170142882511655,4.098194703659055,11.669971988202366,14.84148326760965,-2.7185318240509915,-27.469719327829058,-30.140892477578056,-24.040882790885128,-33.14864933254185,-34.32626594435362,-13.905577048503773,3.42124040759445,15.503989692233965,26.0832053215575,23.648383437864243,19.593274986161962,6.923652825175186,-30.0157674532557,-54.743542357577994,-72.12297391879011,-102.46760750138516,-93.84919230404151,-110.38463023394497,-239.7502257793969,-309.3710275857454,-149.00165116804027,294.1255080625597,939.1798340401157,1071.4437239855067,193.80603676494388,-601.2768872800516,-344.09860734067865,52.3014333152103,-129.2705570405323,-213.81378254127762,-23.51841022968528,-37.172430664613316,-107.83958538030507,-19.495231606135242,6.7557197048315984,-34.435619131135965,-8.859209046100018,4.234379376485444,-20.953274917384647,-20.19482310305998,-11.328850359136101,-10.516576171916151,-7.482886141536589,-12.314642070633024,-23.21793101508382,-34.447186313747224,-42.05720799967346,-34.69305913931676,-21.59027018334509,-11.91854020859924,8.620150988344548,38.68724167064875,63.120675158250464,82.35785394820131,99.10126912838473,113.75514226996168,125.1886787556504,116.95355345727927,81.64938203293681,39.44060014534323,0.5160484939881491,-39.01882465914774,-64.94712641049625,-70.971065609474,-79.80243697537618,-94.48712357337942,-91.99453847050745,-74.34565205154472,-60.252659284363986,-49.55957747719772,-37.57512701182479,-26.904549516728242,-17.451972891137686,-9.720359081092628,-4.506619839238304,-0.18157228054586838,0.9675315423954913,-0.5019283106327599,0.20578320856874655,0.08759024474691657,-1.7491747593025586,0.8269767992394925,3.146308538382396,-1.6017340545936456,-6.6503445660035005,-7.136216408109686,-5.500608315906689,-2.885387008523473,-4.272262435195639,-11.189232491647552,-12.632515046540702,-6.800057819594089,-5.729134739356098,-7.4665205928603395,-2.5532651171311223,0.32259672439345266,-4.963535568958825,-4.885100610673291,0.6714998143636137,-3.609438712883117,-10.344288181181435,-6.8807897919369,-6.632349807016606,-14.797345389081055,-13.624939581176726,-1.8344200371238664,5.378918192593355,3.278171428161846,-4.202788892959889,-7.375225809987912,-0.00027628448147254403,7.036724554949249,8.704658657802748,11.804397903152775,6.865114446531117,-9.363350954398477,-15.428504757643228,-10.649648577854938,-10.640492179830702,-10.889012571374224,-15.158633199666749,-30.679645070859117,-32.67775924166666,-9.238780161564902,16.885384391164312,30.3804910243906,29.675484212010318,25.231278982949036,19.240948863153918,-9.911827895219666,-45.98177450505952,-67.11574984165622,-98.68694653196972,-111.84154822921592,-104.72981851084482,-184.80929165123487,-294.3465597981806,-245.19344880796496,46.699583438513685,630.8917240687714,1101.4485664779384,657.7426411781744,-317.98611998706497,-508.6107229742852,-54.40422273147331,-30.943563480680062,-240.98429008811667,-120.47470943289052,-16.356135586402516,-94.88152706771488,-61.75433250413711,3.868692927496106,-32.134080349182426,-30.25882327649143,5.56888706678939,-8.960385012604668,-19.630085709246558,-10.76748209740602,-16.119397948686803,-19.355686990678223,-16.350447827055035,-16.95805511301552,-16.108136910760635,-20.14758688154973,-26.96044758795337,-22.177086378592584,-9.962134964881631,4.793565017548394,25.767245167486873,48.171318530552085,70.39476489238308,93.80097589182371,108.56657108258001,112.3424976281645,112.91104081042272,101.4775190852026,65.51530287741107,16.85944248337261,-24.678650010205658,-54.44756340131232,-76.19476393661559,-89.66461962884281,-90.41661292218024,-79.40971888987416,-66.32969895980621,-55.82128224104327,-42.537005688960974,-24.966166863478662,-7.810322236302344,4.8577293890347875,7.210519970076668,-2.252735288496641,-11.149631978519245,-8.265365024496589,0.8090444966004817,4.191486415041279,-2.9092682876821314,-14.084144143756408,-16.699226207314545,-10.669627464707155,-7.104333772798196,-4.024708049411867,0.6787717476072856,-9.019405471980793,-29.397147115116667,-30.899831453812812,-15.706901150992064,-10.23894660678869,-11.599886964767329,-8.438695782478423,-9.158791508368395,-13.607721155750891,-11.9096968775536,-6.667323375737228,-2.9822565164203017,-3.2082661810185122,-7.913370233885967,-7.514956445288291,-1.0654955142352271,-1.7381797903020875,-4.15476775778394,1.4210076960342697,0.8542491052239978,-6.864486626667157,-3.807352878236351,1.7078757992379394,-2.5430019304140465,-2.4481103873833447,0.91284670262025,-8.327408946793486,-16.53349783033738,-8.686776765396825,-1.284901703133487,-5.420830234935956,-10.601469908852943,-10.565342058333984,-7.85413042353083,-6.6159739162146955,-11.073976092188502,-19.54573291372216,-22.54818836605814,-12.987471892671456,0.7710795101994687,8.806196674835048,18.861952780210412,29.704628399011902,28.723818778005732,21.291950592448295,0.4661992262776451,-36.717698226635534,-51.06660309350437,-53.5538898506865,-77.52405442127201,-81.69803858693346,-103.71249601941145,-209.42946650721564,-255.82778859207093,-91.14451530127246,329.95510915470527,902.5818635235413,967.583738393273,108.706760019844,-640.9640736404647,-379.5973872919524,31.405603895533517,-122.00877030658845,-218.84103095221866,-44.70920129556241,-41.98650672221672,-104.67143644549152,-24.41606734313642,4.599019288900067,-33.74672803162565,-20.132570308076325,-18.518521434266574,-35.63585161881907,-18.15075576606285,-13.071078738718988,-26.622439123376214,-18.479467237827286,-13.592658646712902,-23.867398897258315,-21.74446588422722,-13.412783921509888,-12.21182781368087,-6.365217536672045,7.636379169424767,23.815357777993473,44.8395259242371,71.22494297953337,95.72079133464439,111.12698091629609,113.20600826372356,106.84657595727819,100.66618182612453,85.0746147179604,45.3592830642824,-4.446379009731887,-41.65852628368094,-68.30389878104924,-89.73408999358372,-98.5243544397988,-94.98642894390886,-84.59978775132532,-66.91463141647611,-49.79819448619485,-42.47155959193694,-35.563714265496046,-21.256685847223977,-9.115512837714775,-3.097629586116682,2.7667932641893778,6.0729739130934135,2.2196278588096057,-2.6963181469289026,-0.08956334209645433,7.8719468831744805,9.040394443955186,0.5919508188649925,-4.149079720726927,-1.3040519686917484,0.48080555198639985,3.2650854504846336,5.016950600929821,-5.222345739258685,-11.366894406967258,1.1156955842540004,3.591700788883454,-11.540936201666613,-12.077040990559027,-7.918461756611158,-23.428884331652334,-28.599051969924055,-10.746437407358462,-3.4234843653288323,-5.483604179909662,-2.424728504604463,-12.367536088189361,-26.25105155280168,-15.980271313419959,-1.330847090048053,-3.8365734769925126,-6.813650436614086,-7.122444506820848,-13.728692567185382,-13.876281847331203,-3.381452573154247,1.8640317145085064,-2.0255375306625645,-8.718231462177766,-14.876431082688988,-15.904318508359205,-11.438109813816359,-6.759899709969115,-3.9648717664719957,0.5884742411722321,11.90162918881392,22.455341761986247,23.744732415160463,22.52474261959246,5.610000858036553,-34.38504422038024,-55.533330598261394,-64.37310478625032,-92.4908806426732,-89.8096197722669,-96.83900488808406,-212.39850773190776,-302.3001385908118,-190.97593196519574,193.7761725079519,836.9282230752561,1108.7326707500454,357.8059137781559,-538.9756424086172,-423.67687517578156,27.649756688830117,-86.5810447663213,-228.94130692048932,-55.828997433255516,-26.344522943859587,-109.76725944469186,-45.4559769316523,-6.934768103322504,-45.7798341053508,-22.39837171652494,3.279058752735425,-14.75030646029657,-12.519523470858097,-5.467264840010044,-13.811304399462472,-10.858517366051402,-9.21915764795017,-24.365088393303587,-36.17711862083599,-32.872583416081106,-24.229203386653147,-18.6431853736171,-7.299914320850414,17.249836033566645,42.40865790839388,63.06350175341541,86.6855631386099,105.6941582996649,116.79883809763274,131.1180530288812,132.54268454163713,94.11284731282943,34.948663230394644,-8.583815766102745,-35.190162023985025,-56.735869131104636,-76.4121979766042,-98.44645863912362,-113.24231000759426,-101.61394246082804,-74.42502036651678,-56.3499678678522,-44.205721320921405,-29.84318098892591,-22.76178083866225,-22.797159626555903,-16.346859734635096,-2.1691308107622476,8.545063554037682,7.7054771118235905,-1.3011207552637423,-5.785577522845848,-1.2767077519420589,2.639497632808112,1.4568943082614645,-1.047018989716566,-6.217353779181192,-12.856354742032298,-12.409308674532465,-6.897117362428483,-5.371653792191722,-5.66433859986709,-5.503255924546652,-9.314305740425706,-12.047762901277077,-7.485276096604284,-2.9390885367190336,-3.4355166067743284,-5.759308548615923,-8.43041228015142,-7.692012042904286,-2.7662072054645,-1.7718973566561829,-1.836191456083779,5.4325073548394816,7.274274912548382,-4.736277922517141,-10.133025289120596,-1.1865410091062447,2.8944873452469597,0.45364739587171776,3.6611861374285635,3.0577637442189225,-8.745865423119191,-15.161674409610011,-10.868413091209433,-10.340366591612518,-14.871597072257899,-14.56614768210844,-10.21669375752507,-7.534896841237284,-7.664199506888066,-9.68013531925438,-10.537692487410196,-9.024270656931341,-7.596809449832431,1.8508103270203158,26.352444597308846,43.13036624995393,38.20166570301369,28.280792344370102,0.34050921790167266,-47.49941974305648,-63.69504342527435,-68.50268863897043,-98.05430737487393,-90.37079106326661,-100.16442097021263,-229.14819561342821,-314.23358331394365,-180.90085401188531,222.14200712079634,861.0765789183171,1088.2608039084182,312.0570860170967,-525.7280300173463,-366.35192782324236,30.577910363271727,-123.83508685858554,-236.87701298273782,-62.50663916561625,-61.81572334873087,-133.97768928967417,-48.39605894662323,-13.767327498223295,-51.40109580008165,-20.326711768515526,-0.13273208045715634,-21.801612544020863,-11.456516888827558,-0.10382218211090688,-13.63534294809182,-16.748156539881634,-14.562500013797157,-18.736049053488617,-17.673534231063837,-15.203223258369823,-13.698276236717167,-3.6698150097366415,9.635638433494101,16.083520214636255,25.142860735909487,49.350727217584804,79.30830234114705,99.12551868702273,108.25311091142554,112.34165448959938,111.17049825183668,95.4767924019039,54.74593292430465,1.3106871751957794,-39.78020943632087,-67.42471998477588,-88.91607675576468,-96.01422423695368,-88.96088034546172,-79.03647503928526,-68.11042348598644,-57.08005147475788,-46.85139477081235,-33.18517205677275,-20.03001204531172,-10.222889491007177,1.4544348543255339,7.347787012660458,3.0140324715366447,4.408910022569362,13.436585362498036,18.779536516631616,21.858466422873942,14.96523494723432,-8.980557055401714,-23.619797947480656,-15.654513647472573,-8.66042135840075,-8.015966724122919,-6.385798870158457,-15.941294344505156,-30.489204331733657,-26.41125556256638,-12.226166585152878,-7.642286036650368,-10.52886123763706,-15.216018398391743,-16.892791880574517,-11.752199840783767,-8.860520421226681,-10.453292550292144,-6.359338598561704,-2.0642359155644083,-6.071295820006959,-7.932123341567447,-3.426359211714031,-2.6880519798930074,-5.376989072636604,-3.3054352733537353,1.1900749745614903,-0.46783450058005016,-6.5618947780336825,-5.1691437863647725,2.820342496900931,2.209966469096983,-4.121599542058934,-1.1129382809925161,1.2847429390369722,-10.673342557736403,-18.909003525842447,-9.091129918185272,-1.4091992714812154,-9.987110551214094,-16.279035900393787,-6.8898369869986436,3.181467879175351,5.4168823029154485,9.666827235541064,13.241732263084506,15.280998182606446,20.958841277629766,1.2458503569859491,-43.97857601597451,-60.35445836503233,-66.19005384423077,-90.12939541472619,-84.02504906316003,-107.61194796090803,-226.69534911583855,-272.39603693638526,-84.38912377302589,370.35891350057784,922.1046810447509,888.7647878280601,13.297074260278308,-598.739385732546,-266.64777700219906,58.662328551603544,-133.05110475316283,-182.77959006958594,-19.724462576177928,-54.44742443938824,-102.62080247220929,-17.81084808802077,-14.566288300160345,-49.82602736989375,-9.519130012815289,4.369393921712101,-13.554258540060445,-2.1795181750551755,-10.830525025482292,-39.958175131334315,-37.127389689221786,-24.091992514691064,-24.303234157602905,-20.885860438370845,-15.59943481737842,-13.435886652692986,-5.056402901114632,8.0191661360411,27.332697469619866,59.75981353085818,83.70524762411613,80.13570693740628,79.85022827334122,105.73085543142543,122.77038620204846,106.9143721728291,79.73500068593708,45.763491302261684,-7.079556098177248,-56.11843236211104,-78.79007728261846,-91.17421128170066,-101.3210193874958,-94.97038613613988,-78.55599766944754,-68.2407255331236,-57.71265439860878,-39.48873188532559,-19.99847052104395,-5.01946066204696,-2.314259308122132,-14.180914818729725,-18.09142627495023,-0.6604421211855822,10.820939792224266,-0.38219312738750943,-9.876897439829172,-6.873844695215283,-8.150123241357388,-11.035984658411678,-4.901780247763785,-3.6764189812091566,-11.748731289710424,-10.172308481687855,-1.6026261364621561,-2.955469393068057,-4.924296577844395,0.42618312246404955,-2.5160720048383176,-11.035710291625602,-6.588396573862276,1.0992997029182145,-3.7820956037053666,-11.146970506262443,-12.968151397520064,-14.3969476318011,-13.409676123084582,-7.410576929997799,-2.192294803749183,-1.154219514495475,-3.7356447401478974,-7.786749874502734,-7.27627913839973,0.06011815745751825,5.777638853966146,1.7574598063876685,-6.316744862650246,-7.693329386732593,-3.4330251829904954,-1.4365927213349003,-3.6306390484644844,-4.658852782231973,0.5406997806634433,3.89786229197294,-0.6377583367997008,2.7277579503245892,15.505836284404143,22.360515463036194,27.646393993887123,13.677467013019541,-36.65540133613918,-71.14693353795144,-80.40375251960052,-102.46843500771978,-99.6421817760118,-111.92912775162908,-228.0993657114389,-297.86809082358513,-127.36325101842213,326.2228646847483,925.5509285281922,1000.0539459956816,124.59273592722053,-648.4863638852561,-374.4712220134731,58.947325044245616,-106.64430791562002,-213.28757393912267,-24.704837338598423,-23.88585500295433,-101.90867371030944,-22.405638535589343,6.309345921061322,-31.31226337053556,2.097779832965786,16.40339494054372,-18.607209197073324,-20.19389558465688,-13.257190627110838,-23.77929484507715,-21.71165775146688,-15.694598550539697,-18.79753407565837,-19.708344721575287,-15.334255139239925,-8.151486757452911,-2.893667631353151,2.9731433579826216,23.597864177239387,52.62278820707287,70.14388798338192,80.0559614841656,94.94831853040219,111.15685105638502,117.27925972621348,103.6766958448048,70.39109265943446,28.966403698865463,-11.397573068280115,-45.84416448508961,-70.65451963354835,-89.421410936754,-102.01533447909331,-98.7287882168096,-81.96966352427732,-63.52396768360471,-46.10926072890373,-33.49953823979389,-27.59411601541196,-16.842788073711912,-1.0610007362723337,8.11707703468419,15.182115179905988,18.65320443020711,4.31112094220574,-10.246693808221062,-1.442714083920162,9.065567719652167,2.541154958371795,-4.619337778198915,-10.377687697283864,-23.895702547861035,-30.77176645834318,-23.451771002423783,-16.212286277406704,-13.913100724859856,-13.770053037813575,-16.255134104120714,-15.210377806735377,-8.243323483394477,-4.0994775380505715,-4.979536249836039,-7.129805719412195,-10.15273029397759,-9.815661252559437,-3.184538621579387,1.744945133553749,-0.46625981958577967,-4.353108634138971,-4.998745855073228,-3.442973413526291,-2.2724777747754565,-1.9827365922126088,-1.026398288269064,-0.28403284054276945,-1.4409463222072656,-0.5759877959567516,4.374137780622547,6.165378441602149,1.1425756180541828,-3.989039683355447,-6.980038960766164,-13.064795281603253,-17.539688374348422,-10.417051207158028,0.5255060182180706,6.4301791830866755,14.841955083887377,18.894315422838766,11.916198929447017,11.55891578487655,0.565834427325802,-38.796090019978706,-60.54705910459093,-70.73869777171862,-100.58162502177893,-97.43942515214627,-114.02180217891933,-240.5011710923568,-317.79436056436975,-183.07211796151893,227.75282958624956,892.9638211114143,1131.0531927420243,328.49425640234216,-528.313962056121,-356.80179432140545,42.933726906676526,-128.30538879552722,-243.10643883609768,-52.88796373774117,-41.79930632129114,-115.78443494007264,-40.58276650816833,-14.10354482828189,-47.15690479637067,-8.549570284994472,11.79937773019274,-8.540524613792066,2.372739390606263,-1.2470432219464271,-33.20536875425,-34.52700006509376,-19.57949992061095,-19.12152651311147,-18.531415632885775,-19.934059035007028,-31.238345117489104,-32.79572539775854,-14.667013971799747,12.413625399084417,41.80873322766318,65.57650550624055,75.44605851151434,82.91769954566539,100.40827268164023,116.2714657116721,115.7844229405733,95.40469628309657,54.35714175382677,4.130859943222808,-34.55348320225075,-57.69927631534833,-73.9319147906904,-85.86837326243118,-92.50375175788355,-89.57169012256408,-72.51397443847713,-50.53922327957853,-34.445598608771164,-20.17640701783301,-10.348414380542174,-17.16970539531888,-28.765388634326158,-22.478070911469324,-6.9361638104433965,-2.879500918924542,-7.226205586223653,-9.061602672621817,-7.85609839522337,-4.414530829654147,-0.3680169054150042,-0.45651774872640516,-4.114218464624173,-7.14724712493868,-8.430064761030323,-7.09259728471333,-3.788507806446102,-3.2328708970365234,-5.803817812216714,-7.121347419223497,-7.789152387258387,-8.510222158522282,-5.149302576928417,0.14741502093362158,0.9679955233444257,-2.5924511359151676,-9.54900079030609,-15.859069461865563,-11.645980948421837,-2.73995171988215,-3.7343938019800227,-6.961084492573352,-3.043862436672498,-0.8483231145186743,0.614976306851486,6.002585256855683,5.923041435676428,4.967286152017427,9.277708227970301,0.49960304102550523,-16.050563831530674,-12.502250223247966,-2.1737214093547834,-4.89132209791345,-5.43464142503143,-7.0627612401457895,-25.96117372295715,-40.10360139834326,-29.42926296966879,-10.466303358895303,4.2237163393086306,19.18526594636707,29.622172132911867,28.505885989106527,25.426966242031305,16.517656015146464,-15.037935568414367,-45.402881816350984,-63.03136401430115,-96.43422275327259,-106.71194227914152,-91.0432314041783,-166.55366936777412,-286.1192348500173,-257.485097540606,15.154057693158336,590.5107473322454,1091.7285542022414,709.8601909788038,-263.3758467743954,-519.3351555401941,-82.31553516787037,-20.052351725539445,-230.16919348568524,-135.04973086435075,-29.13501433929099,-105.27873662492719,-79.23557534239617,-7.368884560708821,-35.09044225176486,-31.28958817907602,10.610236753403933,3.073247599731449,-4.298506910837137,2.1121466660825785,-13.727089096892968,-23.659595466132505,-18.591402867716948,-20.52864775155644,-23.731216549119065,-26.16697528797641,-29.03144343334986,-21.053916956478695,-6.946362751483706,6.9780629494854765,28.150444691760395,49.9252726809297,64.48157763031267,82.64389457549129,103.74438246942279,115.2027622275881,117.61189443557278,106.74823815513892,72.17742336022195,26.94249001688477,-10.86312887873854,-41.92948493681232,-66.14396831933873,-83.40333245662772,-99.65976416661604,-103.37626339300157,-82.84816110796476,-58.35850942753932,-47.347904284272204,-40.1656713576203,-31.9811260742263,-25.171684052546077,-13.870294432024377,-0.883778238483437,4.315399947551587,4.706677916682835,3.2134897284971586,-0.901316337541882,1.079707864748677,8.616504335081949,7.3367903121586195,1.5428156198124974,2.1803248570745204,-2.323856440901178,-13.90658185489988,-13.605043725789088,-7.507329713318949,-15.655533816524283,-27.15217138395056,-25.773357452554787,-18.914161599530953,-13.91611565284214,-11.88657339028898,-15.021693928834186,-15.845395659646474,-10.025813232292705,-8.786812859394477,-12.278661605351534,-8.080899227415614,0.3621426154234033,3.131950079966863,1.3914343543784007,-2.6118940552638588,-5.876777117471313,-4.153213185914124,-2.468706796971116,-3.1914251890070044,-0.44491219779210667,0.4792411222754076,-5.5619948607823755,-7.300590115382825,-3.328153192141661,-5.246180041617102,-9.698243918462557,-8.373028396782097,-4.973230705660525,-4.370646072345423,-8.658819231469469,-15.976300773797469,-19.040656229393115,-15.279453655349739,-6.869285467569458,1.9224673067583105,6.61638864353918,13.530384426543774,26.641686212467807,33.230562862009286,19.21115162193217,-16.2686979586682,-46.62875336977474,-56.21779777373352,-78.07342251523889,-97.0365801245218,-81.80140341446246,-127.95314276317504,-246.78589474595103,-243.70328185729025,6.188775512795871,522.1714392495984,1021.0043845792094,756.6335507974392,-229.48540241774734,-650.9159443996944,-174.500124659567,68.23270312589878,-160.95739267031436,-152.5324374120985,-5.90080450986143,-68.9791332195993,-89.64352292745554,-4.805863554419194,-12.293097172296598,-28.947860339200425,5.2953787326909865,-3.5177702919719493,-19.433932682726503,-2.9679951889942515,-4.023812324068459,-17.456456477023416,-27.712949852340422,-45.589886925653715,-48.40945850835627,-32.11258328870768,-23.47518406557536,-17.953218226624468,-6.197853487921266,3.8883347477243566,19.739484557202275,48.432660603627795,78.16329794711821,101.60955158638082,116.70723497301167,119.65751098664491,115.11569357012752,103.47870572302651,73.39200162679606,27.421645356374864,-17.599560070968277,-54.72323455141594,-83.20378892885556,-98.38535538764444,-99.44879068359931,-91.83492331385203,-81.09731519060159,-69.8131897928658,-57.50969205431056,-42.562185505692625,-24.946184786090043,-9.71839338456849,-4.0194353784429,-5.192684494856323,-3.4657670424818825,0.7349700462216653,0.38870768685694657,-1.026981976931868,3.3735685459295652,7.417346477419592,2.5126640729575875,-4.053954176023753,-2.295131449951077,1.0217278939400138,-1.628950837109107,-3.414581129056053,-1.6929929105015784,-2.3603798274872485,-3.9830021807430978,-5.569083638257776,-8.602206919762304,-4.646214003124456,1.9428613383199522,-8.71211290075388,-23.781672063942466,-15.828822043179354,-0.09953254748283413,2.3791535974215385,2.523789962244413,1.522458720761886,-8.566340140851306,-16.029802143179396,-17.76564196800085,-21.166130093484966,-18.67725385920363,-12.874714780052706,-15.848205552025467,-16.761507682304966,-9.727136760970204,-8.342367621838283,-8.259423885090825,-1.2265231482928822,-0.8300326861233245,-9.236010548633502,-11.613347817709279,-9.526995221746834,-10.81038019575335,-8.762648677165114,-0.4824465887415563,7.247347572715684,15.290509755538391,21.197282145069764,18.41136942063843,17.652363425158647,10.479337383458255,-26.106386159685393,-56.54379428786477,-63.70442490024837,-90.24897342581929,-101.04165452177668,-92.66947023029964,-180.93417910255528,-297.3511906985943,-236.17986319989882,89.86203026778861,698.9120421434196,1129.5061844722288,601.2876779250284,-400.2042053393561,-540.127925156484,-48.15014993894462,-25.386060176806794,-228.92860835991516,-98.85630964605859,-8.029702777242136,-101.02370451368216,-62.697798631447945,11.29918638847791,-24.57778669708265,-23.305275258167022,10.295234972662133,-11.94281052437065,-27.288747350666355,-17.29910480513058,-22.074520610170566,-24.676688960929564,-24.029752592009395,-33.05128256637288,-30.623607446596136,-18.484381747962775,-15.007831170557884,-8.440144327663603,7.017000455728574,20.345686668709515,38.273032460423416,67.29700637116973,94.85794020398326,110.70463354419259,109.84680824428435,94.98794780042549,86.58128206352319,87.64772355181847,66.61471690565651,18.239493816665313,-18.40461736189689,-39.1311353606103,-83.33310489692667,-129.93684825211713,-116.44104008848194,-78.62333032785656,-82.1429375095006,-71.99881394511812,-17.514006865751888,-13.803697741123877,-54.9794986154815,-36.58986793014773,-3.9166571048380057,-23.527491836280078,-14.880677661831195,30.18988106359906,24.38254186507686,-1.5452243433045005,0.15439398689235873,-7.451208658414913,-13.826518003504553,-1.6463477713641144,-8.168266308641627,-17.607382918562138,-10.574573466492218,-18.998395401033214,-17.270627172217907,10.269981506904125,0.9119909888263518,-20.58154645901781,16.569438030414375,41.28200385352957,-14.731523872306486,-55.179305224831836,-2.9505489428397365,50.13064402033662,6.942483035215016,-58.16028813494977,-32.50008512167756,30.557270591810656,38.52780101080999,23.86192569969757,7.471079631342928,-32.40430876195114,-35.13175857020992,11.550910755072529,10.873293866749666,-25.715174775155965,-22.073020168555978,-12.045720795808823,-18.216953734408925,-6.816831890716161,4.048482687579547,10.295091890880997,26.548715346182846,9.205427195241436,-24.97775764598586,-0.778076218492763,37.1805005658715,13.73734719629774,-26.83303651480852,-33.46410586383623,-23.39861490045355,-9.628981042910873,7.163910754254811,12.04054945823251,6.369002623983638,13.67638687688098,21.02299828034089,-5.754703719675648,-37.995397743623556,-42.773589838870755,-45.764972854718565,-41.89899887893755,-41.54562272705641,-119.24437936267954,-222.87107184657324,-187.2350607719848,91.64715143363358,571.6363828874771,805.4201322937955,313.0621625980099,-388.73451920236454,-413.0836598933101,-48.55209574819361,-25.14130149256006,-158.92044929892802,-101.32624119546577,-32.23695823353381,-39.29378367798047,-25.58205170010719,-17.489117385237616,-12.87207466814786,-3.6167238611476513,-39.224186767159594,-51.898813660308846,-0.41988877555608894,7.56498344514543,-28.398205178063527,-22.708143907888246,-9.273069325823263,-17.606019477109104,-9.964053697593116,-8.133411392986293,-25.69093354232596,-14.695515860973156,9.935865207466573,6.846304673481313,13.979495790779954,54.46500358350207,81.74000241198252,82.45771019774685,92.98564367757469,115.70720661752232,115.7640523675206,93.06417609091349,73.66429366224799,37.44757587067752,-25.522784387226793,-58.030736014968944,-62.14154773388812,-88.60900723756708,-90.53358102926276,-56.649216767668946,-75.91809163284398,-101.77330010538367,-53.17011004574095,-35.3710809878493,-69.61286432254417,-25.290096700098786,27.1453465092407,-35.06200865762937,-66.28966325223354,24.4551190798508,57.12353676456527,-15.285150656800262,-7.6991259963548035,78.65586979192949,62.79906801006871,-10.899191072227573,10.948294945031407,28.552468724687046,-65.75934096709696,-113.36476571295084,-37.20840512616202,10.036198715085042,-8.181879283408433,1.2974857863556295,25.398673090074926,18.51350112842086,-2.350786495030512,-30.629182774708287,-57.91204516178436,-48.49266732314335,-4.426768547967349,25.2084790237522,10.452889287575475,-18.210112455333753,-14.908951630022093,1.0439344303438336,-11.647928552376579,-21.024348505084166,5.941215585966065,27.712908457447487,28.555055531056567,30.40929404109631,6.585812393309036,-37.184478202664614,-40.145380899150744,-15.37683292805563,-5.9151638352633675,-23.39341790868827,-74.87044322886614,-92.57722128074575,-67.54724766534471,-156.17558464839527,-278.1360094716329,-85.77702326549999,441.86316248117765,860.9174123809782,654.0662792787357,-124.68681707235243,-585.813518407098,-276.99882155435165,17.807473308357213,-116.61950923614145,-129.94774927569088,-0.9250793410448495,-58.029546065033614,-27.49207982058885,118.41488900030359,20.149820669901096,-109.09182742207574,-24.26916982685009,9.356536098468922,-39.422738662187534,-21.33787240035795,-48.03961257781124,-62.516437535229585,41.57094193845151,28.956396140056924,-77.77652105010469,6.685783689628913,88.07950051541363,-22.973764588736994,-21.26032789534653,105.04600776375635,62.52272172096989,-12.902112135386844,58.56270601659633,97.78827630261054,31.102719969005175,-19.673366517142334,35.385705597744504,175.80230430137328,171.54378174077448,-38.64566236866658,-97.72362690605317,34.18567046450718,-41.54957546731005,-255.68129390308533,-209.22624762735302,-9.616913327753458,12.809788302014837,-92.67626741346385,-121.29048918734145,-43.532998414101705,38.40444870525654,16.85660647182593,-65.93634342445745,-35.272446023327,99.47592809216067,121.23519304041233,6.97089702688266,-54.04358816877745,-44.15650346639557,-66.6189741058883,-62.96083223108058,4.670963607324801,15.097575985143095,-11.213249008478497,41.18923832425036,70.6419946814618,3.873260387947184,-28.062979046752393,-27.93864343365125,-56.57458453540038,-11.411199633641669,49.45850026026236,-35.26108759027353,-105.7365483193677,-10.384161049157969,55.64771448557238,-4.008259380020345,-30.013761057059725,1.8440218976173028,-1.5617600373008411,10.467727506831338,68.99854171744224,41.837448464708785,-63.568492626343925,-51.78064432721415,39.83803715769865,-8.446553654898594,-131.48653210072558,-120.50628677981705,-46.409944286529566,-84.5994324222771,-187.42579327667858,-168.48807852360773,119.33392363255976,593.170688538281,761.802111232566,254.92154013907154,-397.6585038855726,-432.9108323328845,-94.00209801661747,-29.7911824032226,-123.53888816495014,-58.81354987636905,-10.657308131846804,-53.632322411773885,-0.3651392054470577,66.71171297968348,1.1085688254569384,-42.13416707850764,22.749302586316954,28.212621880950685,-53.2285106029641,-54.021654633869765,30.612548446669727,45.90541830545311,-21.14089293764004,-50.32653665370846,-23.2036998026481,-26.26916251644951,-55.39913044552215,-15.03213559448777,62.849571330500495,51.94795445779353,5.089544147295658,46.1247438242287,91.8034253111254,61.89871093477831,68.25438941036504,122.56708952700788,92.61295843991553,7.7947596952590725,-15.020676113734506,-7.32882266498513,-31.337992428710272,-57.471777107527004,-62.8302486247113,-60.74791029500753,-56.57557252380687,-59.66803310616608,-63.9363634326546,-41.9417341101723,-14.021852791660141,-15.0055017430772,-10.123119812413037,17.822892047386688,11.413283663774507,-31.65613708718051,-46.591804177043734,-26.61991652872551,-5.254914499593834,6.843191472348828,2.6356237518941796,-10.002283450322711,-11.56382105589747,-10.393771948467013,-9.557826224888444,-2.450547133600111,-16.91212520616225,-47.31884419045755,-30.236892213639706,19.026868980508404,15.61476306497177,-26.889503585887894,-31.33731250023358,-11.921122274988967,-21.179856601495423,-30.591623214989273,-8.425574328786496,-1.6001380297287398,-18.662746215496753,4.215772440392567,45.05200507810004,32.52924831287417,4.15543098104127,-3.242495823037274,-26.800055897689134,-46.00808567916012,-46.57143497738248,-68.25297669171096,-70.12570312249828,-62.50679544520844,-149.80703031425702,-217.95808180619017,-41.96849329797752,366.1923367069554,739.9941155473437,610.1526029369179,-126.46603075212582,-635.783230597608,-332.9976366975161,63.95895898142941,-21.567508518655195,-113.54922277418501,8.252844163864232,11.16516209911228,-55.13061457484001,-2.9548487932886855,31.515361748188067,0.05193823630233041,-1.3401861595467377,-10.877659268538501,-45.37546184398133,-35.85480156885565,-10.844176444093288,-19.705909836066795,-19.35427151235492,-2.0258822386654387,-16.91126405858624,-36.545064349489714,-12.280954858916614,11.069631246912094,2.3047286770793747,10.537635335807305,38.507680635816754,44.241591733781846,52.92649360342007,93.04359986992243,120.5385859083208,111.05507746161572,94.3635477789051,72.80253311377339,29.556552814449304,-13.406761852521559,-35.43349206656353,-55.245944595685536,-80.44805043070409,-90.48116524852426,-83.10865546076248,-71.51774161072677,-55.710372409566645,-43.63895497776391,-46.711119336930885,-40.84600242929041,-10.714222904185284,4.647989092054008,-7.1392425106917194,-2.2276701229332865,15.339359027653662,2.4812255106319157,-16.739175731920437,-1.1668546870338599,19.392377343924608,10.65896646880184,-6.948578051336611,-7.645327828691125,2.2264399986718857,-0.34247570511866243,-17.166402793209162,-18.770769797193633,-1.6805854610875528,-1.8011065520001992,-16.04955936365394,-4.505673643181545,25.258271936598252,38.10396737708413,29.496092002574272,-1.508639618400947,-42.47728714360818,-52.780236418664344,-52.29126004030608,-76.83427527572644,-70.84288599429662,-57.25858149253424,-147.61260946453373,-236.03466559943035,-125.10751652376238,201.30743733211563,643.0131371625686,786.4283329103438,182.12828437696635,-574.8491026406857,-504.05354501471294,-8.914219475676779,16.50204688055503,-142.04430172133968,-33.5424878604555,30.896643538518333,-50.61126078905579,-32.81486480194791,10.927470748254883,-15.604810608893182,-5.031638122723431,16.89068426932994,-11.939970005612167,-22.575927963758094,-7.022637782420398,-13.721926284970117,-20.306969446069864,-14.708371266773776,-21.36291163804949,-26.00377579152105,-16.40244639952639,-13.989417432721268,-7.317834975944695,23.777393295288697,43.51451149028217,36.83517262494923,50.205706669121,86.44320771850163,102.915638130214,102.79096773706632,98.29207659458983,69.82239922777192,25.776323112455948,-6.752259007581593,-34.392733276975385,-61.15233899547603,-68.97580936101858,-64.58890245672973,-68.72159145832491,-71.21042773698919,-56.77894329549184,-37.622911629628604,-25.085647719579157,-17.201466008751076,-17.36368778981288,-19.864420135513008,-9.525378504911977,2.9760404550166477,0.8639731776590232,-4.465596511707602,-4.777001361761009,-6.0571043938394915,-2.9015008162740656,6.045573595429742,9.586931184328883,4.318123182392693,-6.712144361069319,-12.092922999969833,-2.512218967334327,2.918523298277865,-5.17375718029329,-5.871057619301073,-4.766316833048766,-14.38219404435327,-5.7731604944740225,27.35512802745059,35.78151551729009,-4.4230119895830295,-44.73454490387928,-44.51358237005708,-49.8553309490739,-78.46834781244765,-71.35917647820158,-89.41871023816537,-205.9808536957624,-259.09085765584456,-105.92045177784073,258.82483056783786,747.8269346005529,810.2943818420503,61.909434904420806,-597.840029609238,-342.7798458642081,54.47444682150129,-77.45689675851813,-168.7047500215411,-1.7718663417579066,2.9538890123018433,-74.53474122807158,-18.756952260572753,12.766845488285604,-9.085655855671654,6.557605816985944,-0.05856909307445335,-23.737941599829714,-5.893114047858607,3.7292644770883356,-14.330340152197124,-18.229112068165346,-15.478798533177315,-20.279568941748373,-17.111006637507,-6.5773674394918125,-0.7105668445486106,3.2297789906251992,12.652845708790359,23.723173895071625,31.63165031159203,43.22389767775973,60.79040332017033,77.57872166878725,90.31878763176704,87.4415942228116,57.73505027216555,17.901041425166603,-14.04450577321093,-41.195801730989345,-61.488333495698036,-70.02581674710024,-70.99153724359012,-62.8588019364863,-51.22986065705133,-49.227791305785274,-44.972308395939564,-30.897199118939874,-28.229774032493303,-28.31999425979125,-5.078519647713996,13.422850828513106,4.242052995060522,6.42900597609087,24.796305189309493,12.683515194013458,-14.286990190457953,-5.568457470773463,15.758173507061773,6.255097896823596,-15.887320700844164,-22.194468463710866,-20.828441728002076,-25.830834401437357,-34.31634171561812,-36.40676689590249,-31.25528321382186,-24.471644319349068,-15.416246064626698,-1.5190851411652666,15.841449336306079,18.25893863336543,-14.806401075564594,-44.63130610648987,-40.11267535740396,-57.47569858917012,-84.5975191998688,-65.6033287171685,-106.32986369024565,-224.41941950895819,-201.62134417018984,54.700066824854105,495.42740232114716,874.9895530137348,577.2233968546739,-324.8551951521909,-661.2066935779303,-174.14332475822812,59.824770159340915,-149.21637482749324,-109.43556125328132,59.518982216125806,-5.474264508671979,-47.42599290997786,26.658994406550665,7.422436394547795,-38.98729495776033,-12.957896978137681,-3.0502570338710235,-17.920641611519834,-14.155189524611712,-19.615320601492176,-32.49228672923471,-25.32431170697202,-15.452459830053595,-17.555269307784627,-17.515178241159685,-10.339893938444671,-2.5691656993722063,9.791273667872975,33.6228233230009,60.58413492076717,78.72814511764142,90.39225303976522,102.08420779289729,111.57215202645462,109.68209052249252,84.72865712735808,38.34467489410925,-5.461656154981255,-31.69223730819047,-50.82119157157145,-62.56173498438932,-57.06937732528961,-54.810388534141495,-69.58823347162567,-69.49151198230291,-48.375395256729306,-44.894906036926365,-50.96351810397553,-31.97230981078944,-14.177907543577582,-23.185898642459932,-24.901629246517793,-5.8312907509487815,6.630134411631467,5.328827745523402,-5.60909355069278,-22.32344244676305,-24.95734796916073,-15.276840387131262,-17.13611613851127,-20.27283756437496,-9.546529727043499,-5.408052891593538,-11.22814247214098,-8.608497379047588,-11.29967445180322,-27.16887752493019,-23.503857477367987,0.06342928977871587,11.843038432964022,21.0873005167613,21.839058621733443,-20.024624981680795,-53.1588326862889,-39.12654028000028,-49.3810021704801,-69.62729415630116,-60.62123958003569,-131.12884985376843,-236.12097135285248,-161.58919131416877,124.71567690851433,586.6205106193383,921.0957292264918,451.28598385335465,-526.4795708113119,-704.5395857135672,-103.89215476591595,72.41439460780754,-152.9777206914881,-79.36279414205451,53.325803115567616,-28.85265284207988,-32.439374198442074,38.010063241607114,3.6544456655753343,-18.718210626155358,12.296687475397409,4.143617705874169,-10.004964436255369,-2.9872778425478925,-9.743330138842541,-16.92540203950852,-13.253776579285944,-10.471834631676074,-4.032227366377069,1.3495151886860715,2.7004172541952425,10.368022297493313,14.204973470972961,12.669672733827266,32.5439148089021,66.48780496894045,80.37659907730898,82.47162976077848,93.68625998188618,97.93246138096589,80.03656887837803,43.91666827312075,-6.97786170519504,-52.35951016625486,-69.02103431400872,-69.84940513373593,-68.93142346002969,-61.59504190117861,-62.064106649304264,-74.04572783876083,-65.67846061561472,-38.327754939631944,-24.555011081252726,-17.848090316509264,-5.712137696381223,-4.311827489418235,-6.397095091844484,6.219138840956049,15.144532743937882,7.5201280977058715,-1.321431202533823,-8.168171165325631,-14.492528499312108,-11.203996835077788,-5.675943495168578,-10.439480119410149,-15.489169749831774,-13.824290306270559,-14.728727483419178,-15.451678825661663,-9.68701464312936,-11.304472088512977,-20.623193610466636,-15.70073438202351,-1.3314286515504143,10.578921266289303,20.909562945896877,0.8908349803531745,-39.8100801505864,-43.400007517645165,-49.651057959565094,-83.41696238506103,-72.93185824581573,-102.17726326217948,-236.21573762833873,-261.4784315007359,-65.29279482825328,353.77053899118386,920.0057525430391,910.2242762794082,-56.015125553742735,-728.3531329214502,-292.58993568535095,109.97609345301757,-122.19811152121059,-171.14038042636108,39.005691222629025,-14.042012128681606,-104.41111389937176,-20.70727872521676,-6.763710455107528,-41.66078216468723,-5.545267835185545,3.4764307097644416,-16.269346293201473,-5.116739776870379,-4.371054830018396,-11.582058092082079,-2.2113266383572725,-3.5438485057498688,-7.789191264486964,-0.27275327512200276,-6.467696892194908,-17.675505856356708,-6.6349208748006365,11.51364311471603,25.61341452206903,45.88731359081157,59.77745176142473,57.86188805209998,62.1088359529102,77.10382829321068,77.70428858245525,55.199350138248874,21.422548722727974,-13.526193579769126,-39.975532891961116,-52.70163186017655,-59.258432802992175,-65.91535349897454,-67.34134099720204,-59.73718221398955,-48.78009520319048,-38.700405026359974,-27.151444275371365,-14.282584762307629,-4.960662058830071,-1.3623986462942241,-1.335078085154045,-2.443262649158008,-3.748537586075372,-3.6941573024929646,-0.8701928931652816,0.10037777241366896,-4.914846108250735,-7.682908078569891,-1.737945409565265,4.540946514504235,5.354084545306286,2.094624881087782,-6.559580936818925,-14.450619289992982,-13.670027314223391,-11.653707651124051,-13.691252177713963,-16.703512083464894,-20.07765328748681,-14.858866462552266,2.1629884976046956,18.910687279399404,29.151155152329473,12.800657386604014,-32.76796237048238,-55.385261485340216,-63.88692173930433,-93.70555945896864,-85.29565983769442,-87.56341637557054,-210.6869515926001,-293.50654419270643,-167.3768792459942,180.40811258141196,760.4013137573191,1027.5944767522512,310.5208184146826,-571.5095959304533,-439.17112553668113,38.252782471123396,-73.31703641779414,-217.4757452969997,-30.79719410740826,-1.0963015357967265,-94.92474373100765,-24.11733511657731,22.929097109629556,-20.482401026602925,0.6977770051908632,25.14166042718336,-6.4737356275282885,-17.885090861974348,-8.729353598020248,-8.342059027872507,-4.343476127749261,-6.332975353450369,-22.131373982499845,-35.070289584960506,-34.10025640538973,-21.360090707931064,-10.446153865632631,-4.250953591746673,10.019195157656068,27.388406434703143,40.38845069366878,60.380389001694454,81.68255803867598,87.65363202889233,84.51179185371646,72.48999628575102,38.96832763097504,-2.752059777240068,-32.71911651867415,-53.008975145692176,-62.72127329247621,-58.94647274987262,-55.25515333196313,-55.78494370315645,-47.874285333032674,-33.257833894826604,-24.079269177542468,-17.76453564111986,-6.541437249418962,3.358919873992198,4.124523116154531,4.618664367272373,10.91137468654762,9.669984082501877,-0.051923292865783566,-0.848644815579302,0.6784500844942443,-12.851622111315962,-26.640564148742488,-22.969573801203524,-13.8296755598953,-12.513639586876998,-17.192020595611844,-22.38453854538565,-21.69499438476443,-14.43997393277709,-9.095490262755579,-10.543026299299672,-13.736033969867425,-12.132860206343775,-10.142360745028647,-13.940502450830515,-12.811304043581217,-2.1013035178757313,6.942966060190744,13.421362348282349,3.754430061951748,-30.46384870951873,-44.228204920576054,-40.20744696367924,-65.43814746278966,-72.91504954358214,-73.72774482416747,-165.0075082472993,-232.11876802071794,-109.73787840735889,209.80927477558032,698.1712700603086,900.9030766091462,241.52448945855514,-586.5806803273983,-477.64314855530404,19.51156568764658,-41.49679042516668,-205.66990839511624,-40.56533443188769,19.33583630885792,-68.24177758878977,-21.366758049463975,19.496308036789003,-23.864428616557408,-9.88339468193462,13.755613506684982,-2.842897715122856,3.7959961246032456,-0.8090347608386832,-34.70700253920445,-31.18895196407599,-9.755392795736704,-17.57535010471142,-23.44325289963863,-14.654773325910881,-15.630467199707406,-11.567760500444829,17.88819740507489,49.10529871399036,58.4675669977876,59.30688498307055,70.2155682146221,85.27954367185015,93.36371681280563,93.59744972684211,75.30629131146304,26.31324194273421,-29.508241555539794,-56.92707494240354,-62.47299978102813,-70.1816687426805,-75.38363887970715,-66.76599711846306,-55.82056345402373,-52.97726916986341,-48.50710424632445,-36.18001314298118,-23.168429689389725,-10.367780414369914,0.05734607811996639,-3.3890685131460287,-8.330665961262408,6.5009002353662275,17.712072083468517,2.3088109170863866,-10.213480907757816,-5.580580327887176,-9.77212187802008,-19.709295013659222,-15.203620104216904,-8.667299782879955,-11.087508802769975,-12.06232711071533,-11.278689493556847,-13.325707447325357,-11.996225332138298,-7.335969374186664,-7.714018003662865,-12.061235835438456,-13.617105438459888,-11.727852655593015,-7.669567123548475,-0.04721095996841029,16.933861427302237,35.79741172539715,14.574251414687156,-45.03744062311752,-60.4039607526454,-37.37705530521887,-55.77803355790196,-65.20785959897522,-60.71264530514686,-161.90998247965888,-253.31898254403137,-136.1662173336082,174.18470583353962,655.803010869393,924.537255041448,307.3761395327464,-635.9518704143887,-613.6743793597318,-4.16403613479536,34.82534314381536,-175.65476786437603,-38.1704236260596,47.74242219262703,-57.71338130381859,-26.57324382310815,39.05322919690234,-1.4885409396863203,-3.0885288585339703,18.100320224910927,-13.495180106974123,-25.428711590444433,-12.493895627823996,-16.1255257259114,-12.100759047696261,-7.2851539177426865,-21.903052833627278,-27.337899418966806,-13.235981905684612,-0.24749575476510444,7.001753750506747,15.92995074324328,30.121598625017004,46.50782649399339,62.42399892105374,82.72281117900543,101.26575801185862,100.49609343069358,83.18064964184524,62.39200509281466,32.60636649826418,-5.916446217944021,-33.30323784242593,-49.09542373244227,-69.7792306419755,-85.16952247267605,-77.07029358671227,-58.1021568359728,-45.18734580597683,-35.33560555349694,-26.66916917556096,-19.54364323210715,-8.31965430354554,0.8329287466919233,-1.9619011981803212,-6.387211430942134,-4.525349576021192,-5.682263827343256,-7.239472994776584,-0.5295292403687633,3.9249573241439553,1.0517703979132236,-0.8551066217703962,-7.674368189273238,-18.511372226778924,-13.715432857587313,-1.1782565866451087,-3.5480368707119823,-10.898763724860729,-13.197996441741605,-18.489578617590247,-19.008371470343945,-12.3826071761383,-14.018654412166093,-17.900161764805254,-14.41157825385497,-11.34486371125518,-5.967186703189702,4.842730733502749,17.90990190509337,24.9679495048376,-1.5742392742738058,-40.13232068031427,-40.595601960578094,-47.92245807562049,-78.41629207924457,-80.00689750924339,-134.67897880041028,-255.83974619508518,-242.8168749698753,-15.90974535488121,440.2832446344618,951.1564016496307,758.1441314373405,-233.53062967304473,-693.9615707309978,-182.83342789699446,89.2354894893892,-165.31355539035053,-147.21779620121697,36.30175610368889,-35.10675494978466,-74.54556583311631,15.065877168908862,1.5162127114135373,-27.884474313475714,13.013793741438077,12.484094663555759,-8.34071739428032,0.46833010723776347,-5.741905312894469,-15.368651883156955,-6.9730983011360355,-7.498965406347687,-11.680667630064782,-8.521720807285872,-10.654123257930934,-8.72344379591557,6.341111566005344,19.84475974057956,28.680080957159387,40.99827815923475,54.893104939147804,67.73517256703121,80.790388640349,88.37301807998492,77.77626831573215,45.49775443970922,8.14518543724465,-17.503600381975787,-34.078426438131544,-46.040135624834754,-50.037362845942845,-49.5015446973711,-46.93417302911103,-37.43168837747932,-24.9130566600138,-14.482418225404444,-5.596533420178137,-9.337807539801766,-27.024293622583578,-32.075492228206095,-17.658368609718814,-5.594938508391554,-0.1588955248411068,0.455764822752748,-12.485721086784267,-24.132351231521813,-13.962565595760502,-0.6113017122265916,-7.738867614063842,-24.679486345016112,-31.712279763464487,-25.753912003915808,-16.70596692364208,-12.960346897133018,-11.039247275740486,-7.755738842765606,-8.547099839210112,-11.197289737009644,-6.88648324772371,0.8614733501310088,2.5863529383977646,-1.1188386759502897,-6.823606777305123,-14.362222428795706,-13.907017401075805,1.0535927378575618,12.69601770457782,17.220341493008775,24.326817370404793,4.67771625085032,-37.48736279688394,-46.20566879833322,-52.230490064097154,-81.44347198133156,-73.77753476617988,-103.15261788869788,-230.38932067656373,-263.3820368851873,-87.9367039632026,304.6018295178738,847.5121883703215,886.8654582567046,38.4632697417093,-610.0315950573978,-276.5840772606832,72.83828236548348,-128.91657570098778,-182.5418991658211,0.43891147433196664,-30.627133265482108,-87.29593193274953,-0.5090942126535349,6.953924805517598,-29.857675386097437,3.63420953640534,7.816738408162515,-15.751398078315303,-1.9807627372011094,3.258570653726903,-6.138061978112331,1.126696154638297,2.3338234633321906,-5.849441457366099,-6.237045474532848,-5.552985319156768,0.18237453933433567,12.585016851118857,11.66478523950465,4.627441350853138,18.43815930265164,45.138892156439915,62.99221840015363,77.6475726339319,94.69473369437836,94.16390671471487,64.25424292463288,23.231039333639153,-8.077767079047517,-28.369080009223097,-48.586004952149345,-73.24693400481942,-88.72731201000244,-83.04025590842402,-67.4333894027598,-53.60386373137882,-38.87935871571941,-27.86206188547935,-25.86097374549092,-22.21925379685202,-12.984429777384612,-6.417152882930669,-1.531490956769808,3.2713770302616325,1.809974272453978,-4.041786774554787,-8.224499003942913,-10.603261486144824,-10.22323110329959,-9.623049184778097,-14.470305526696201,-16.98073337863955,-9.234055737723466,-2.6607207175992897,-4.113198007949524,-4.581790707603293,-4.522806905291544,-9.13322847508514,-10.446080558357792,-5.724836761597967,-3.088110865794752,-1.6874897127580422,0.5583197333263747,-2.2829068339617447,-6.423525640476315,-2.4228433209397835,3.50111774280702,0.6827970195497528,-7.190906830972633,-13.445167279256594,-17.351422253957416,-12.052902926520893,5.044945241087065,18.256516602264746,22.428215728870377,18.179750887318995,-10.258727512969434,-39.621234581893034,-39.04225665646747,-53.2938606548665,-79.48704544622633,-69.29292746995333,-110.78468329932723,-219.88613953501695,-206.6000429815465,11.095239759945144,424.5001711266464,851.4619122530835,659.5708962930449,-195.60726130887366,-586.3965641874358,-157.3105975111269,67.13036816313054,-152.69606878287772,-143.35765378234188,7.728255126561578,-46.44480200678076,-65.41427641290962,19.01577434595631,7.498356593838231,-18.79586980363866,8.040576713728145,-6.653833402263553,-27.07337413983029,-9.230849941146733,-5.836254218725562,-10.618038649851062,-7.767183090597882,-18.90842217634644,-23.371810151502945,-13.371595998764622,-16.630305614603902,-17.184296459680827,0.0016385385350731196,7.8294749245740105,10.64665345744823,31.04637056642936,49.02564214266026,53.1951728727893,66.5506998629518,83.65137725792884,79.31871726553116,58.657846903462485,30.703953300428477,-7.25249419692515,-38.8153796034982,-50.365220597960345,-58.1824751393954,-68.53461660331142,-66.74925276370907,-55.15044261272133,-45.453363693479176,-37.33928765568402,-32.291425644956604,-28.75360000550444,-15.606984957897062,0.5917262498890352,3.201867209630933,-1.8323766938454824,-3.127692179407447,-2.1550573703276257,-0.0622612568616816,-1.752297645339457,-10.921694934697825,-14.063135971892564,-9.083806630673465,-13.999156552852348,-23.475361504948687,-18.680845284248303,-6.9130677019452715,0.14333238310580754,4.414322531752516,3.2980570408370617,-3.2383475327284827,-5.896859592347544,-1.759247979377804,5.054228634167552,4.777875349069161,-9.294459643788652,-18.4712657536552,-8.752883455385753,-2.5812806309162255,-6.594426385482716,-2.1198085935324897,-2.4948244068992196,-16.941057195491595,-15.406225229020155,4.693888187194959,18.257990788357333,12.899080607265118,-19.838191270790972,-50.453852033671204,-48.49399729305655,-53.40729863980012,-64.62697432129568,-61.67258638294029,-123.19236701756483,-212.6839694035537,-147.49982669210561,124.9946936278784,558.3855772066091,835.395400855775,377.684721323178,-493.1217981241767,-629.3872850802181,-90.87816087865512,63.99150664754271,-127.3870542841257,-59.4608125860197,45.07172602138931,-38.741114388589125,-38.26835612172833,31.01010871448869,1.0981871767405487,-16.25431100873797,16.69371401350044,6.759292084268075,-9.761280922983795,2.6537185277985555,-2.718596088216513,-22.21182726740885,-25.16645978120764,-20.361254023083575,-18.453915627832835,-13.417837945231481,-5.503499938728398,-2.6946211182225124,1.4938803854343217,19.35154726275707,39.186650479130186,50.027854357633295,66.18680024865452,87.80632610571983,95.76731927373145,90.08629694682452,75.84985169631989,45.88816255240476,6.217207653555363,-27.126944718507918,-49.606323987567045,-61.10728272254341,-64.3481465521608,-67.79661962572479,-71.37456700415788,-67.72836623111061,-55.78216030636359,-39.42191198072261,-25.326205318192905,-18.125373580437692,-13.075130213604329,-8.186962534189423,-8.095073921126001,-6.864058430343693,2.2129486802743017,7.866165000217526,2.298223569513855,-2.786638239594602,0.8426276488605282,6.939555719088148,7.882880595731812,-0.384995115372309,-14.886925399773133,-23.215541208551514,-20.51487291030154,-15.842752175609455,-12.10899907517834,-6.726856105847183,-6.560340057894866,-12.707047491628906,-13.263346290952672,-6.05118831577669,1.2217269972346738,4.913842068027808,0.8704547609066537,-12.854324716909453,-26.79265000435142,-27.20683432675417,-12.131543542907739,6.193795912368207,19.24829915251997,15.060323979809336,-20.173066649476606,-48.31877195916795,-38.55735628965353,-44.84883342078005,-63.09329770482678,-51.51174804249208,-106.66633917292279,-219.26752567648887,-184.2576916172784,50.09116660453705,468.79264950056495,890.2038266056524,631.6988157442981,-321.9844629699504,-710.632862326042,-183.34101493003257,93.51788064364199,-140.5560430092023,-129.89390518017154,40.439306443781916,-16.465930971505628,-47.08826211819037,37.74237831416248,23.774355870148646,-13.417950506257904,16.2911492623195,11.482736161527011,-22.44624570386327,-25.805281507396874,-24.919558126537638,-30.05034672034286,-27.387908138519798,-24.4891492472359,-21.745084705659785,-15.518009624226208,-10.009644535213496,-4.90380382759989,3.5089917934049657,17.59974852413314,36.552800190464794,56.11103653893008,71.9360256205615,80.39006487459241,82.8196128287358,84.08551953646403,79.26302703235835,57.522607920142775,22.41084624208248,-10.827229092028512,-38.39652513291725,-64.66489562422231,-79.3943889238584,-72.68311648645005,-57.59286210897136,-45.9179646440899,-37.96781122947478,-40.329231305312874,-46.151043017542534,-35.38902924536612,-18.161464566563303,-13.355869344670587,-10.29729004932478,-3.731504173917486,-3.742795371935138,-4.671055785533419,-1.8761682762237406,-2.8545344833821424,-4.487550898685704,-2.3730646766832795,-1.4659365645445845,-1.8707648061212652,-1.5116275596181108,-0.7012517206374937,-0.03290831500123659,-4.707879918804576,-12.228383391123614,-11.555244354392308,-8.398901599905146,-11.446977238537196,-9.74793245932122,-1.9801261621509596,-2.5356722300556758,-7.280952589158046,-4.711812212142574,-0.1151617874007318,2.6140734983706064,5.9809095679454956,5.989739541219352,1.005072365236673,-5.809069180005903,-7.54034173069277,5.507722612804674,17.21127437487048,9.053511366228728,4.255482589203824,-1.4089206688467533,-35.60709451764844,-52.938083922195176,-42.68295554850641,-60.554964282886814,-67.54936263792867,-74.82464490840385,-184.12363238334953,-270.9014590018906,-164.3587952619535,143.33812974945747,674.9703040769884,989.4754401921073,386.2530954012317,-508.8013221605635,-470.7927081925679,28.73228688758992,-26.78896452643638,-215.73181691543584,-64.26722967693755,-3.595484299964639,-92.93757550072777,-38.924393139739465,15.488740627098544,-29.188350775023796,-23.05756360415748,3.6807359260488584,-12.78165537465852,-10.11347229113542,3.84579329961689,-7.2097656155237235,-16.336707147373062,-15.67330395388973,-16.241475460888314,-13.057768407338653,-8.218809041858872,-6.827828772191391,-7.295359528059917,-4.654524718482746,9.16108048798449,31.339970119800476,50.5778366966767,65.24687354604178,75.76370481414041,80.40312691280195,84.06437780076824,82.24166183588648,58.356847285360345,17.21147339926796,-18.312980204620033,-42.37018313481744,-58.315464418529515,-61.91031875348858,-56.59038316271182,-50.358040834006815,-42.49129135595343,-36.90873191806872,-36.944181890043,-30.037053578630285,-14.244208367269628,-5.762003437896897,-3.070738028230206,3.971987524239548,4.375168803212482,-7.313812049280585,-15.046911876009581,-13.383547151697549,-10.647129370804905,-9.570451992626918,-11.45171132731311,-14.38066096812005,-11.21146126294601,-5.75289950781054,-4.702435119776846,-3.130988157132519,-2.0375698983976616,-6.8434278476053905,-9.318573173479068,-6.122010835305428,-5.812411675138225,-6.110671169632983,-3.5535676277635773,-5.20485416313184,-8.56927806506954,-6.7312805071529525,-4.878104786390484,-4.954229039639893,-3.1250099955263977,-2.858728420628797,-4.8255009843019145,-4.284004991289853,-2.854657780060551,-1.7729595232387556,1.3216300552546674,3.6576743894049013,2.7514539515066367,-0.40321782719931676,-5.457311306197743,-6.737686237031184,-0.7714858918810945,1.5521499741948475,-3.5923435670653534,-3.6042737171627444,2.5818226823220227,5.033693515976182,3.4967115126029924,0.3943025030779701,-3.9426888095956336,-8.729400379600452,-9.66054121513038,2.5820303844171297,7.43704761896713,-22.5852439228031,-49.39977318832868,-54.47797087503785,-77.09778367754075,-83.0770403765222,-75.7880852303472,-161.01241509136943,-257.60115193293643,-189.08038343819305,84.7106563491242,591.5495476210223,960.2633494965036,493.96637244449016,-381.5954969563786,-476.4457889937925,-22.553933847812417,-9.989080345334273,-197.18997816299301,-84.2250134041229,-10.005686488314737,-93.6070824388352,-61.51507026779729,-2.9336157129024087,-30.85322281367298,-19.858394074240383,12.56942996720263,-2.1428722199644312,-9.123818999863282,-3.222583699463833,-11.189951247610548,-7.983650964370115,3.426960212704479,-0.6978677579295685,-15.554198213497282,-28.600118080018497,-27.663794597353295,-13.648009745456282,-3.4799921760571872,3.718679086807655,16.727203469415812,29.1845511525373,41.71369855907589,59.72462341690436,73.5591666153703,77.89978730960839,77.23200413286364,65.21994002570182,37.69858325201497,7.771480231466183,-16.03426331758779,-36.70094750786209,-51.76973846068261,-57.659015454384814,-56.967971804121106,-49.87652027630919,-39.43704515629854,-33.493930632392996,-27.440891541652505,-15.014930805589543,-6.914431643394245,-7.6703270280317675,-6.962262556283381,-2.7325245797920346,2.9583212226753908,7.795780380964764,1.1346469058394035,-11.131317632613609,-10.23301316136282,-5.153132828144749,-7.354928787808163,-5.453755666594244,-7.015428250897408,-22.814186639153107,-27.30126180432985,-12.70943537805449,-5.488323105109544,-5.806035636793009,-2.651874098736439,-4.938732399341319,-7.851560922234302,-3.4983069195362955,-4.674185396302448,-7.904746846581405,-1.2750186607012157,-0.3032535891361121,-11.243976874186686,-14.331947133683022,-5.699085733704511,2.9177496898093693,6.84302934682836,4.363210013810075,-3.1361926023829625,-12.744051287611477,-23.013586095613196,-24.993465193388772,-15.795949604573753,-10.358697863557982,-13.565813776050518,-13.973317182971527,-9.893792807989053,-6.613879199656193,-3.4155075462409066,-1.5690686170616353,-5.262994796687721,-11.901775449038755,-13.979369986818996,-10.164726046195291,-6.299103490042938,-3.626864974818549,0.4120583217926246,1.0043943486336069,-4.76513347966076,-7.926186847118015,-3.86830558194851,-0.9422842931142981,-4.654767686913292,-9.741634447940147,-9.754328033767205,-4.833496488168512,0.8075256365469654,4.840814136591538,7.492216435718483,7.269116434032606,1.0972042381216625,-8.169132350608905,-12.001583046326397,-9.283591839680636,-7.679752766106924,-10.88537519410077,-15.215111337738207,-13.240052393529233,-4.176443347470819,1.0589680402249932,6.733229305021742,24.60267718378175,28.770806101926446,6.891758192883764,-2.2817847781006595,-3.364650641031517,-23.367974371229735,-34.60370695895163,-49.82476936525797,-85.44501963181229,-80.52540709974689,-89.75959154154427,-191.08592698439196,-219.0420429570655,-39.5210290189071,320.9677546417414,757.5043551978306,748.8608462336651,-15.968438395435115,-616.0279907099401,-314.93726681609803,61.6167234545536,-91.18937330012203,-172.04068706866082,-7.120928768841544,-10.540288019414803,-71.54787454288032,-3.7106226763758627,9.913650938276827,-27.951590249805147,-0.38490785081775414,12.434880138375071,-9.244841636245301,-2.925063245472641,-1.6812017955358343,-14.928024628537916,-5.5218600223388545,1.83387467497315,-9.781537847907444,-10.330854846032576,-2.642182365328101,-7.654392841021139,-12.057107643162597,-2.9780661047179997,8.775988606817291,20.26844679024149,36.659391526105026,52.5259378929854,66.3497778012688,80.67310515686134,84.86239699476761,75.25423734704069,64.21112497565124,48.21440349546581,14.737617934702449,-23.344702131233355,-46.281495967453615,-57.97076220684248,-67.1223101692347,-67.52960564565527,-58.74589458430981,-56.33405565696536,-60.44397592434517,-49.39625539775161,-23.721217686049982,-10.180524116189186,-13.918558029617152,-16.68636654455621,-12.336312964033642,-6.092884523140725,-0.5040448494809091,1.5865197402763016,-1.6893791979745991,-7.333023154679488,-10.924171641485096,-9.548743462303744,-3.3181765887204424,2.9186910573247076,3.2511392618273085,1.2554408962730061,6.322506642826562,12.00067405535661,5.065085917587773,-6.7809569871460695,-14.313061121057753,-23.01333624376173,-26.728511548396817,-19.63703839646091,-15.737653419765309,-14.796132861073083,-10.145443968392083,-17.851645884098737,-32.17616885590221,-25.355528584481846,-10.319850117502888,-8.720956954009804,-7.0704719859676715,-4.097249323525812,-11.02645960822953,-13.05297986179631,-5.706947141113396,-6.955541807118848,-12.942578511525902,-13.555907166804214,-16.62634002766869,-19.10426756304978,-11.097267574008022,4.5944881635687995,23.80110770434469,29.945454461155848,11.188129192906107,-2.774482073559338,-3.7509175721074994,-18.853835942803087,-32.88099737697956,-44.651265412629684,-73.02903604420106,-70.0221448570465,-68.89324916662733,-160.72647501553288,-211.23065660967234,-58.890294937888484,275.9576517579732,707.9751982943458,786.7618415116444,82.65357425944161,-644.2953356222663,-449.31855038542744,35.32629972210095,-22.99358413033484,-151.383953264909,0.46336369560442847,27.109515374267865,-62.53611245563609,-11.286787626657427,28.159161518701143,-17.158631633730675,-7.692331744860578,18.103797476166733,0.2828106158940997,-3.164478324374562,4.781771413213814,-4.055700715360269,-5.8991953781817035,-2.7743366396961857,-11.842848486285162,-15.905139918302975,-8.869929661979551,-11.595209094378966,-17.770076837570286,-2.4472148510087735,20.67068994426636,31.5550934443022,48.6840265353626,73.72194834989203,81.95308778172598,83.83803108485412,93.91705232107313,89.63336229140164,60.26785171290802,16.457869662081364,-34.31537093206152,-71.10050233163908,-80.90603344636145,-83.13495790354183,-83.40293153493619,-70.2421169767844,-56.467020790501145,-53.12661506475999,-47.51662791364365,-35.61238743228468,-22.99135807920915,-10.736693750826735,-4.829444894429187,-5.987248775414567,-4.213850807056044,-0.16030530191854808,1.11749690334781,4.392025582413492,7.37096981977508,2.5373344463581837,-2.752113428981268,-1.903044745657704,-3.991325498877499,-10.88057521645232,-12.11819010799696,-9.263869603957367,-11.452048313514544,-14.611567792932192,-11.732838269190172,-6.000350852377684,-1.798652666518958,-1.991657940895422,-8.036541929042293,-12.577536681727366,-9.315957825731605,-3.755454051172947,-0.4354779927533894,0.33229747088961226,-3.765974779754913,-7.590432347872259,-4.378514274700129,-1.4273367887558823,-2.801017420341644,-1.0397405597764822,-0.1346296911280671,-6.311342707540689,-8.663213127457217,-4.767587356119893,-4.706402799968054,-1.4507754215300768,10.514878013756437,22.273317572925485,38.141302397783306,46.65313316977163,22.685477622021253,1.5202562540331739,4.828471906584792,-23.299840417234517,-67.49486761677707,-71.34720345884162,-75.00412760045052,-77.93935524103449,-71.01701140628715,-159.11280096549245,-274.33646700172085,-208.57379753525444,71.16581034667331,568.7319589742438,969.9646204909168,543.9404847166991,-402.30627345324024,-572.046046520802,-49.988961215365364,30.217777878358934,-193.52011092281782,-87.29485586344519,24.707169490207093,-72.31804188137079,-57.37719392088663,17.453046532654067,-19.960081044620246,-29.98221032340351,7.832553248489518,-3.970697104341749,-12.754611921908054,4.212571095299701,-4.882861093966685,-21.366506459292978,-21.450714854722897,-23.225141075995232,-25.466152742201903,-20.91148337870372,-18.057536831825267,-16.798055929051465,-9.723806033509863,3.032624826190643,20.00368174727894,41.5008618008014,62.18608819704316,77.91110480643717,92.62967827444952,103.82196531819524,100.80203635413083,81.22373875658903,48.93184732406803,9.142751378124064,-26.715998762697435,-50.84291588164122,-65.19615304810284,-71.31985777801566,-70.01232428186596,-63.63672277877065,-52.31017334528955,-38.2094770099516,-26.67500385174443,-19.618079410948216,-14.720055673836285,-7.897980045519347,-0.8098853774862924,-2.3296714199670028,-10.123220608604758,-11.425813738698121,-7.68094087775178,-6.977938547507431,-5.523808808886404,-1.7473450569789435,-1.8989256807889738,-5.60222493089924,-8.24302420691063,-8.148005294186468,-5.170943516738799,-1.8310234247517627,-1.044884796987878,-3.0435237307111027,-6.169468376179243,-6.058625489651541,-0.8375464882952208,5.944218360822049,10.462690506557383,5.3973856160921,-10.73539356329079,-18.599369664483596,-8.373324676414835,1.754681883758379,4.979708684535749,6.828052559239778,-2.9819976095965544,-19.998690349575934,-19.09447678817564,-5.006834618062683,-1.4544992296415344,-9.772073323458448,-20.50441131565717,-26.183715085353878,-23.113241085041444,-17.911977066983425,-11.292162687310716,2.451057829061071,15.722841843098605,18.81958817122971,13.204441607256065,11.303887021049494,16.6584399683645,1.039091380788073,-34.20045411068229,-48.77809536967264,-62.09009409064642,-82.09150993115982,-70.64125537474399,-107.19135225290549,-223.39663542896847,-238.87972630998553,-54.24613563272986,350.86663830038106,856.3136026618058,803.9723376844493,-36.39992531884094,-568.8607331546857,-214.55600448395802,62.10013455212872,-137.18776719559838,-151.10391187438182,13.106898104747785,-34.85157039844361,-81.57560168928967,-5.995143456483934,-11.414806788454833,-41.53946362811992,-6.226252950911626,-3.8292670200946795,-25.775234474847437,-16.386939155306212,-14.212456378377452,-21.79935381034027,-17.034161638985225,-17.48101124185553,-23.726259020697405,-24.797118075383317,-23.03081280886458,-16.25473494679996,-8.039681592786307,-0.9194645291269898,15.148072206178146,36.650752397927235,55.216975919100435,76.51194182968712,96.56158001202927,107.52116936050467,113.2393815832212,101.13736913304334,57.857960616946194,9.460361628597992,-20.150201033564603,-41.072125312471286,-58.114114362467035,-69.84010905676674,-84.48476586999632,-91.85980098621835,-77.30210787353519,-57.3897936001763,-46.64156929917037,-35.79159406193929,-24.751430032655236,-21.009280740538216,-17.02480493870881,-6.679457269228212,0.9820331366185471,0.03848150900176961,-1.6743667303744623,1.897138861698668,3.4352329812995386,-3.3199107739172256,-10.554555755539013,-9.4201422981006,-4.096774526615208,-4.59755438470382,-11.032813618573034,-12.439414727231462,-5.172430045044209,0.5813278187480933,-0.5482946438935823,-3.7780886930055058,-6.757719346108075,-7.995938700460114,-3.769932274487995,3.531308816258843,7.28363826014523,4.667984827568717,-1.168041069188444,-1.332913047242771,5.0097683768432315,1.7642441560997764,-15.36836687319321,-24.518087618730213,-16.99660031850066,-11.292618674398922,-13.492134794741597,-10.45528708618321,-2.891758961418347,-3.9186507347948414,-12.302526447245725,-16.37963220629173,-16.411751238009618,-18.609071938706577,-14.174613819286902,1.8989330114805423,10.250219303536053,7.262147594731065,12.020801804303861,16.073536394095036,11.52548272842613,13.117132815893171,-0.5458079796806077,-37.23614782378911,-52.04178787726475,-54.89423640284105,-65.38254609272218,-58.89822752238673,-99.31653821262017,-202.64745512619325,-192.24465554759976,35.80179606114157,448.6921492385322,821.9952280798262,594.1191436551045,-225.2306786686358,-595.7310475064648,-187.45531012470394,57.26886924825479,-122.77250387932884,-118.76329800897817,20.19878836245691,-34.384257522181116,-73.71219883531182,-1.8960246994432879,-2.1254438126955364,-28.363722205038755,-0.2335974567811263,3.0590584006168697,-19.228374116685032,-18.02155743459605,-13.022739301733333,-14.99760326043173,-14.859460051132025,-16.803063777358044,-19.907008157804963,-21.80087596628331,-20.38809582983951,-11.32092908620073,0.7981733182226449,12.673103926068688,28.558896620343468,48.56085859545468,69.66159983007047,91.1160390267608,112.78405413482321,125.91323114024914,113.74134799722191,78.16822457435492,38.57953056002527,-0.2309971645891027,-36.97867622592074,-59.290235579168936,-68.22066347820635,-72.30759471955972,-70.30765840968027,-67.24103886050486,-65.75647900624595,-55.66750882173535,-41.22148707042753,-33.13265283229865,-25.8500801257674,-20.11723072559843,-20.932758788785367,-15.481194298662174,-0.8579431213998028,5.346834305997767,0.1999286604031809,-5.07899001353168,-7.163162455412213,-5.991102742631231,-2.127956785288191,-1.0478515679221374,-6.2049076322694,-14.451779942562233,-19.151892685989086,-16.31770654713534,-9.106642845467302,-3.2692360308875834,-2.8946708638417213,-8.330620919938962,-11.719685856216604,-5.7341494340176205,5.090377533571353,10.857655489480418,3.9138706577578226,-11.65155298562244,-16.040014709096248,-5.703394645193994,-2.20652350253906,-6.419385975733572,-4.569344404121754,-9.846796742285704,-25.909827691804544,-25.77407589448016,-13.167406343894331,-15.403039561001613,-22.59191144205463,-20.15081884246376,-21.552263899556806,-21.13006864829158,1.7335139608640269,29.719568216870165,30.97908272274876,16.40521742991575,15.349012165073924,9.019278618122817,-25.719832675605026,-44.22219802972423,-36.38739462194104,-56.153461258621434,-71.60391953050724,-67.45514355441742,-138.7333891946534,-216.67896720760632,-122.9487521880563,161.41591654172367,592.3976546256675,827.692830208726,306.74095737009475,-528.713749475901,-566.8252654924792,-44.174582313867255,30.261655711663387,-155.26798760285632,-57.86188533756913,31.27769604776941,-44.45086260147111,-19.698256881755036,36.45911057811511,-5.223050423425438,-12.38660528479547,18.00828974043796,-0.9536463413199705,-17.213188765732134,-6.335071417240095,-8.080286615486857,-15.23282326687161,-19.926230733719184,-26.975777956834236,-24.381002376382362,-18.868882449369494,-21.558582141180658,-16.9025791012497,1.7306839902518796,23.098647804258093,46.5358308489959,74.08739584264163,97.5048932405697,113.14907899839305,125.96365887493353,132.2906690569394,118.459628736282,81.72470254335043,33.22729897681036,-18.49681222127239,-63.15084127494785,-86.4259159559799,-90.91398777701437,-86.54195933579415,-71.50012674505463,-55.66768102962499,-56.0156105265098,-59.57517421792204,-48.76238449684979,-33.86639735429142,-23.57639796727905,-14.417077128685396,-9.739598845980915,-10.754750143296668,-12.73589563745232,-14.992703991349057,-12.81270720571392,-2.515651006264818,3.3217010437357537,-3.1894594105777827,-7.409042868131159,-1.9384858576904342,-3.3776963846263612,-17.87926742459868,-26.810341360136057,-22.584560774022826,-18.264552878744997,-16.509665538025924,-9.938116093191052,-3.4841678191014296,-3.9323718220139554,-6.48793915580535,-7.204772826192041,-7.483749277398763,-6.411806569937777,-2.7344016442847767,0.844436226238308,-0.893878983630163,-8.284275888159714,-11.109826780619908,-3.7481228179832584,3.2986454948055144,3.9572504952653356,2.575995462940371,-4.053438018260417,-15.680558977222647,-21.05715317405414,-20.459229036905178,-18.541485391267944,-11.594027848196227,-2.129023092188847,9.640768998041104,21.495769396493856,17.951707513309334,11.88911174363134,14.049003795951435,-12.427179466579078,-51.16343001586157,-56.04068235436757,-63.64934310654261,-71.50307397609242,-62.92973708568203,-135.82051013119678,-238.16211945756373,-169.9222765942855,100.86977094226222,567.3369529639599,944.5199114344098,526.3113663962621,-431.05325467868863,-632.2714225342183,-85.82523300541257,47.53408183515366,-175.92172954975248,-88.24272682338027,34.3499746109821,-55.37872322717822,-46.37010787358848,30.92237404634585,-4.304869035947473,-18.028912925315492,17.343813036467676,-3.9375311586059176,-27.480994547649455,-11.868963742133355,-8.205271869180446,-13.79400105537693,-13.811290060308123,-24.17535256575519,-34.71329367859015,-30.14908127780487,-21.804369251678903,-17.413184104895215,-8.281738582635171,8.411940330547814,25.17201739469769,43.86266589735012,69.56225604554433,92.17557143576445,105.4352591056572,114.8547647634313,112.70164670023019,86.82728075116849,43.66049851292042,-2.06111355877829,-37.18183609567143,-56.28454836183448,-67.67346010164502,-73.98551533912516,-69.90471359380737,-63.73159844967488,-60.02826215381767,-47.932128926144415,-32.52619281471314,-27.479983283527623,-25.66354751310238,-20.216671125124343,-17.000164004108676,-13.572419674608383,-6.737035862966938,-3.1748943731880956,-2.3392057484306896,0.11470649893457008,-1.569168855580564,-7.799071873282468,-8.725574905913863,-5.6534352147678675,-7.606888961593665,-11.328416003795304,-10.144851417326876,-7.075939780698883,-5.343419930373312,-5.199410447034195,-8.392135916383587,-11.653222122980967,-9.70893907817642,-5.2807664609314315,-1.3185413246115658,2.1332741827322295,1.7205124605092053,0.09758257463313669,2.4295115796251956,1.298002614991086,-2.664678605355432,3.720135817426007,7.340475233331315,-10.090343144237787,-23.633165289302376,-11.624320358380821,3.455669635026192,7.530630394426712,8.970955016005089,2.4789946046367923,-13.081856370605099,-23.799036978552746,-28.752042707300802,-29.365396444940686,-23.55813528101673,-24.830013914374735,-31.41342974540339,-19.697066334346545,4.442298316498295,21.361095945142466,27.745534689668286,18.541713893989588,8.300253881629128,9.432768813537297,-8.667450992687689,-35.732643035368476,-41.80456559785749,-62.475173561065915,-79.03371744394582,-73.78260381840455,-154.40859995298246,-270.5738979561909,-225.32183169190654,27.19779180132045,527.0166068678375,992.8715843190582,645.2365976845703,-308.6221311797593,-553.7482429071529,-67.63478466677438,19.174464506815198,-214.56529264566396,-118.2896199923354,8.842316168534765,-76.66770101994815,-64.27074592856418,11.89034439697647,-20.103895323654307,-27.237920516529215,12.868069501188415,2.1780073913945674,-9.08077541389393,4.115763007040829,-4.909534463296659,-15.55338828323061,-8.960003037984542,-9.762055525199667,-17.055062497732518,-17.12955897773521,-14.245881534411648,-12.714637335539251,-6.960472973838284,7.223200154306046,23.046233468586244,36.80173273593694,56.339392766118934,77.78774677775844,89.35017143810038,97.47489896334125,105.02588307260262,94.02809607536548,60.54607445673332,21.553570391680303,-11.451065822734527,-32.682022338586336,-44.233857277764876,-57.95840694510637,-70.3457065383193,-71.20243768540138,-70.21968482213245,-70.02662415076804,-57.62117092434835,-39.33613803857482,-26.43558066268388,-15.21108030147169,-12.81611892563312,-23.185199884102808,-24.729050156620588,-12.452563484092096,-5.518393360298692,-3.8622776853288343,0.07234938849198613,-0.7916220434186343,-4.560623044058033,-4.086114310649471,-7.008412579512772,-14.721157838634948,-15.952572888515263,-12.290668827606535,-12.555980327766974,-13.833103151881385,-11.760918020329695,-8.68088407754794,-6.113871576459095,-5.398113945327598,-7.70333843579416,-8.872975563991899,-6.257403945244857,-3.101686693219488,-0.6171496835438148,0.16157378586631488,-4.206239042947152,-9.82097990845357,-10.152977954244223,-7.415213923766423,-4.230125044671626,-1.4831838498138268,-3.850607329195771,-7.558677202998638,-3.6139602543423575,1.9991763738770079,1.7237003255531391,0.5148355727084599,-1.8700044520288372,-6.902738941856959,-4.6931763391280406,3.422387268279934,2.021512061454663,-9.319591246107906,-18.14395174250089,-20.001099119150076,-19.507131439668786,-19.802956968723215,-15.528777706470576,-1.9369947595281403,15.966073695646347,27.486806988479522,23.02630737080064,14.476212190223738,17.383040164936713,5.665729800490459,-26.35226286507142,-41.92749711132431,-62.432840795110046,-91.12328127569154,-76.72692642500469,-102.679486446129,-217.4553306081119,-234.33339725812235,-51.9976006485856,325.9471205812848,805.3212268471736,785.9695207185742,-3.8705489925581134,-546.7313037701058,-226.15217142967967,54.41673590133998,-135.6415865628133,-159.91722511822206,3.2085790863889514,-38.7981679781181,-92.7341164981365,-23.002044264205825,-21.873254736473704,-47.40106220189094,-12.897145774260562,-3.9883191461995615,-13.570348081382228,-3.6706007464889012,-12.209386079583185,-20.612909805977598,-7.332018807343179,-7.125543623770222,-15.525343555496452,-15.671670033231226,-22.78527900070349,-28.51601364893139,-18.063717603801017,-4.261656575943347,11.051673903893095,34.564144334565206,56.33248466949533,74.51704126244155,97.2692600992502,116.78138783438396,120.59469320811672,106.0462163443174,73.71297811418944,30.86317590730451,-10.2470114084698,-44.480683223506574,-69.8208492686672,-83.72104233478863,-88.5272435098579,-86.68792732466557,-79.01285551392368,-68.58769755197387,-54.561323928859395,-35.842360014297384,-21.234729749368405,-15.60377776261453,-11.295679298045577,-6.0326550262178955,-4.088392361905697,-1.3974945171873543,6.294968246474156,12.955686706349773,12.890594646031694,5.495837357405005,-9.071479781950352,-23.753862907526756,-27.106182065061184,-21.86720715884005,-20.187472929148488,-20.606190343805174,-15.46580301546571,-8.505364011453661,-3.9766554031766184,-0.597655054923198,0.07462056027361541,-0.01996507707894679,3.1900603488275987,5.679012236784704,5.1729846671021615,0.4325735743679715,-13.610202868212575,-24.565906388086937,-17.290996467800692,-6.654619870093089,-3.4932663126498262,0.8292035424410891,-4.381496458147083,-23.26403065925275,-26.682066643205918,-11.625667171971944,-6.524142343899456,-12.895822708259711,-17.354769699720904,-19.764182486390343,-20.27055310282143,-20.0905840615108,-18.482908844916693,-6.3259343643754775,12.625314274508687,21.381095062358334,13.84290322987999,4.770639499235456,8.99975964255001,2.7660837113678394,-29.741095210134773,-46.55932174031757,-48.21958961336941,-68.4516879936161,-68.06251738254802,-72.36015150804582,-155.79680235271005,-196.77706013995135,-43.942699728791396,307.2859565837432,735.1952202230847,735.3970842227816,-11.56508900045388,-649.6886794373943,-386.2163397953625,45.532557606921515,-46.967285643275886,-144.15391466449086,4.135978904055641,14.92455075396154,-50.663936410918836,7.645249280610475,29.73800095475553,-10.092675025786466,4.720227698662736,16.452635267125377,-8.779443405809387,-17.056399070338674,-16.89414985126221,-20.833531638723663,-20.087721283753616,-25.627811271272947,-31.748864342230185,-31.07103607054018,-30.275230417784606,-17.732276576578478,5.836739285392696,19.326799764849433,31.252532499031695,55.896274687484706,78.81725173920819,93.1056151990656,106.58574789103949,117.56339118606414,121.33016354040132,107.18053214302323,61.147560922634156,0.2909067555621987,-43.065190017237896,-66.10339995167101,-78.9342409176473,-85.47032036509634,-94.04947410675734,-99.84206805378636,-87.80766167228003,-69.2622636126714,-58.32925532609781,-42.06967672660652,-21.328457253684164,-15.967543366655754,-16.940192037683502,-5.9599768119313765,3.2995495304869706,-0.2483030844575005,-1.3780689883333537,2.735286061978144,-0.7859423251455624,-6.336051826521377,-2.989798446330724,0.7487217923787455,-4.000826986077229,-12.529090735306447,-18.131045214163862,-16.8906992668277,-10.915433409886653,-7.86381252278078,-7.452311608801146,-5.315323597006344,-5.213225490007687,-6.7447143484881416,-3.5515406175327637,-0.7907941665038987,-4.123920830973798,-5.917989278827054,-4.155349834963646,-4.953992014830787,-5.4521134901655195,-3.2342250305732847,-1.6537645040151112,3.1925006337397406,8.478060413143218,-0.4300042500195804,-15.243846584478742,-13.351017943975187,-4.039863365809001,-8.341119647933954,-18.60067083375366,-22.306388755945562,-20.853195280978493,-13.616617622963947,-2.191720402742842,11.587964262137076,27.0353684833022,24.767172312466634,6.757241512152735,6.558839915208276,2.085657740944445,-31.410081207997973,-46.74580561245622,-53.33612492756764,-78.64655484001779,-70.73125905438042,-91.77609249759473,-203.5981631510205,-221.64510371182422,-39.8174250889648,321.55690236025043,811.9604711457871,842.052138719393,10.254556078267726,-646.4310568728772,-305.25172850639615,78.93906646912444,-127.2520836808996,-203.14878691079528,-1.888133639449741,-17.516059962224105,-89.99689998182848,-5.903292070004845,9.308794214512204,-33.76138468354526,1.9476327465622347,18.78145015443077,-5.252350084976488,3.3758262479627454,5.151560844082995,-17.108873663164974,-20.747067902693477,-17.512478201840914,-22.738808623062916,-22.03716982706689,-19.990988054179073,-20.606318501649284,-12.47815986418368,2.5608460464661658,17.569806785808215,35.77458082193604,56.11175424112599,72.83274927958598,87.42535397924665,100.87917754293564,107.16475657025818,99.83155393872624,73.6311787222304,31.316665600630408,-10.190783925998998,-41.064071552412145,-68.48330939446677,-89.49185226395392,-91.08369759631516,-80.47311177339986,-72.94499898845505,-64.56287925605473,-49.52572399460246,-34.909753259428506,-23.09654499853598,-11.889518366454837,-7.115264616480854,-9.63884531609245,-8.877228646840873,-2.1092943622717186,3.0058020847390985,3.7894868327827176,1.5713709359098473,-2.8763347361918115,-5.248833902227814,-3.7695160018088387,-3.3153487183285257,-4.577527775252371,-5.043494895964656,-7.406018771720021,-10.883472403985657,-9.461893949200402,-4.433038689834188,-0.9381722287740786,-0.36916189614796124,-3.0797988069065436,-5.118924017525417,-1.9103864162991187,2.6350881448434196,6.220091671757745,7.789157382645756,-2.1042688381265915,-17.490790181519635,-16.626065313706086,-6.031275796434784,-5.255907751474222,-4.59816667079736,2.347162908398971,-0.07034206444153135,-7.970450632319107,-5.741184786622099,1.8809203784390043,6.427490726051135,1.1662715504699843,-18.610151740576192,-33.17709450053165,-27.20145512211562,-18.189766757494535,-12.595796837827006,-0.07165584500398836,12.697361274928971,17.597240948556703,15.526073519449232,14.603654604964671,20.90550865785595,6.857235938073826,-30.516381037455524,-45.59056786503834,-54.7733639390911,-72.66782209389532,-61.718190406897634,-106.5294297629592,-242.53077835805894,-269.86717694505415,-86.98355832063211,315.1838259806729,852.4568761615127,865.5469255340824,28.497265189324438,-571.5683589765081,-244.13990631361202,55.451271692120805,-150.83549543002619,-184.93588928655197,-8.927133713764363,-44.829186103534056,-95.15003213321125,-11.562520735452084,-3.584112657897549,-33.129805230009616,1.1364427619336155,8.290412878416724,-9.30026255503148,4.14923591560637,8.854177301131728,-2.2275070069942338,-3.533573860369537,-7.025321976405063,-10.508212939805805,-4.9747286706162175,-5.173492437843155,-13.046945301979147,-15.47682119836492,-10.0216581035047,-0.2209265137609826,13.726852431973077,34.22110570760301,58.71978597315858,78.35670690944954,91.6878422277917,101.21542163029898,96.84069985392007,68.91088246478255,26.528335173089122,