ECG,-1.907365206051776,-3.3542984400698588,2.514528600897105,26.864065243015823,47.356196554903114,42.06856539914567,30.600172668280717,27.308974189070632,26.010357843351713,29.814528237503403,36.80241175579311,38.044029570088114,37.746446671208076,32.19636018581572,8.18342634144998,-20.187881316549813,-29.505863968960057,-30.69578953624714,-43.11091914097531,-52.700947372918165,-40.90387898216781,-22.265299410048996,-14.184862970329212,-8.4214674857698,-1.2378877875725074,-2.4075670994961094,-4.828295883623488,0.9504154912369867,0.8056176629690732,-8.372439084201536,-5.482999431589236,7.412470216922369,7.415607629399256,-1.7694241102939579,-4.458208354411465,-5.398469897559158,-8.36390925763196,-6.861750320084688,-4.125285213166075,-3.325079167732989,0.167836381902978,1.6254722043634722,-4.134739978031384,-11.784229184771613,-19.528881169799785,-21.17378050483933,-7.096720270320203,4.6571807711243345,-4.445662656005425,-12.54663136023688,-5.869681643349626,-5.687066461479773,-14.151566982744534,-14.27381444911181,-10.764486070213058,-9.788874839507155,-5.444509306991883,-4.516734824000501,-12.55714122920606,-16.660772659197896,-13.0572669641598,-11.043694450060535,-8.611106644184055,-3.765188386143681,-5.5714357165519495,-9.576565762039735,-3.2429458589750766,3.1719731653139114,-2.64643283841154,-8.121133168569113,-4.514031064341152,-0.8349511944913637,-0.15253603629245482,0.908220800633055,3.633083056569208,5.081264903222856,-7.131799886033818,-26.324671607935578,-16.754982382444688,20.718115023669665,38.494831860642954,20.70104576785646,-4.966029047422694,-17.42919887998054,-18.003565858734795,-19.261316410387845,-25.40164476121899,-34.41816970285074,-48.08962715221351,-52.37568889168834,-46.313030910488926,-55.323971248782485,-59.700428085167616,-49.02588075495832,-62.99180993003258,-47.48684086237023,52.250814315016726,179.13665404502677,372.7858444050879,529.5168495196917,229.7398735383165,-352.6127470279863,-431.55116974721665,-73.29271391601529,4.590650338839122,-122.00526737651279,-55.751250574776876,16.336240753199235,-35.732557567671336,-22.80552640442682,21.684863213909246,-1.2258797243800466,-5.661860181818251,16.597326256653606,5.634031958706283,-5.966671885089356,-0.7799250559502937,-3.2437204686017758,-6.353274852761867,-5.72841005555189,-7.416450432644789,-5.499203479838489,-5.626384009876529,-15.182006041681301,-22.715986462974584,-20.342914496720056,-12.285044533051387,-3.859239258417511,0.5735746730129332,3.586800261749543,11.486681688602461,20.935495171002945,27.699426543980064,34.86548831093739,39.01136466522023,35.87407368925696,35.832321357749606,42.69927774673071,40.57584172330825,24.78301181224356,10.130719665935297,0.3507716698884722,-13.670689708383978,-28.727743332271192,-32.46890633853356,-26.965538925262575,-26.356959368995444,-31.063832974622734,-28.042585752540447,-17.558542940001583,-9.928332205872582,-4.033429542501119,2.8965546088632124,6.369976454796807,6.680499555111026,6.324772364575681,6.958297721581358,10.528183929770222,5.275733265763993,-16.08768259447135,-28.569320581054917,-18.675199243380852,-11.115518169067126,-13.527914402274943,-9.922335122522352,-6.346805367924944,-11.006105664737987,-10.003758609579734,-0.9095578479197961,2.1565614679970526,-3.1546495405680286,-9.549313186151029,-11.880495694332819,-8.294973035338437,-3.7642541179296742,-3.7389028742539683,-5.039292877843142,-5.131114601934652,-7.852340759313297,-11.608190711142228,-9.696768284477686,-5.041891504585616,-4.961915760763306,-6.176275653352446,-3.576992269648178,-0.41723735558258923,1.0172483550380207,1.0105029205565703,-2.7263610654672608,-8.655146213232706,-10.88354551323227,-7.146323651237244,-1.2623654815394598,-1.0734029060143548,-6.311807712983036,-4.96015569346673,1.8401073421522725,-1.7776525591644639,-12.143429525180903,-12.593354837471178,-8.205649534351902,-10.963604047047333,-13.029517042369067,-7.593497603805709,-5.317094944070156,-10.44197731793334,-13.389550107067612,-12.884857004530364,-12.072583119408673,-1.9833906818016045,20.593356713695293,38.02898069142547,32.312447157981225,7.852027412778298,-9.586149900790359,-8.071883467336328,-9.347480788602748,-22.195399186877474,-30.776410576585338,-38.59422284006428,-46.96291281474616,-47.86438293332044,-56.22901180361154,-59.26358237228059,-43.23589877793354,-51.787260761038596,-50.01126082344544,36.32508815483253,160.00374253431067,325.10907498048755,469.112013941091,227.9425666290308,-322.34522879013866,-453.6813919213844,-111.36002052595502,14.184406043057454,-106.13902622844833,-62.64118129529277,17.69417526889454,-29.723240039037712,-27.67888861688109,21.510238853510625,2.619991894206663,-10.520862480378927,11.417824604962032,5.464634428940698,-6.041267974663956,1.0484994456163506,-1.288113578615457,-9.800275002881222,-10.688616180321468,-11.830806666208327,-14.191007996484865,-15.582050462391882,-20.157356698796505,-25.17931405444039,-23.870014027177973,-18.151272282235,-13.617029379716493,-8.13552400152447,0.5627460225267535,8.60064211390831,17.603990414767335,28.512543082199123,32.58905288680017,32.39285363642503,38.16418059487299,42.2707656363356,38.56932724994852,35.62176907769829,30.615014939346317,18.095646007176022,6.686629778591753,-4.552829874670561,-21.169783805806706,-31.608706393792577,-31.584551198811017,-31.7195016300727,-30.783075530586345,-23.897058778297907,-18.025710234076648,-17.225149823911153,-17.238423361428577,-14.125088368053369,-7.494086308744663,-1.7965685111716994,-2.658970411796819,-8.723834157578416,-8.521736893576824,3.1994835165733626,7.683386559152289,-5.415734700111077,-11.658263634030257,-3.075035894045035,-2.32634896223475,-6.090650818066512,0.9294224862044409,6.449347037727893,0.7440217430953595,-13.354702283286713,-30.4632367909511,-31.108839117570074,-16.43034109379957,-16.328094530678918,-24.05337153648089,-16.162397526280834,-11.439623575773549,-20.891787746784765,-20.98689703791966,-10.188303523322084,-7.205889344243381,-13.34376813318909,-18.862306743321263,-16.50608777665899,-9.700370539829635,-8.670335162017551,-10.69466625758572,-11.410411321099211,-17.123913039981645,-22.42120773207041,-19.318103954242197,-18.990608371760917,-24.38182964301665,-22.476691837125884,-14.384758108197158,-9.738798336372398,-9.739084241636562,-12.65071929926421,-12.647476993315816,-6.443303037826681,-3.631782571100654,-7.432748952788295,-10.171421409917006,-14.504449348924066,-21.3122672272514,-19.957048822100013,-16.385045672420492,-20.29005362140196,-10.537014562754447,23.105357173016852,43.50550433752511,26.365694204287742,-0.029763265731794775,-8.74986315586894,-13.441989133261792,-28.78516754259154,-39.14783331697367,-39.572994505352,-46.69235700243494,-51.96255564913988,-52.286067343069234,-66.37077276121428,-67.89336430230294,-53.920420343210886,-69.4838379930697,-51.5919728272342,55.945371888171984,194.16664154227215,396.7963149727257,526.5367624495016,167.1424260839998,-426.4210283612607,-452.7485741634418,-69.17575871411222,-6.871897423693966,-121.87073029671267,-31.94621880851523,31.90783708179756,-30.0014910834033,-10.564025255015189,32.646856631310655,4.1927098358931545,1.4044658461285664,27.232334338085003,20.7888342743769,3.3809311962594997,-14.899202534250719,-31.940045525343177,-25.949715729639152,-13.862994145052724,-15.216771177432493,-17.6180515794971,-18.11872125375585,-20.47420971430296,-20.271999274197185,-19.32046772786292,-21.316328577147413,-21.29658801821025,-12.268274844924196,1.9377803814845205,10.668880812336146,16.406954641186683,25.92623885758874,31.006943235876655,28.123888885804277,29.32346918683445,37.75578225835885,42.41066619214006,36.306696912870585,24.013950635163113,11.160116528014168,-6.42329465258533,-28.16150788578459,-39.90395394085196,-40.32062987842528,-42.77224965967955,-46.28544728200064,-40.96057272472457,-27.62128078613998,-16.643927341605014,-18.17269001780259,-23.911032300434904,-17.166981264339,-7.113686015791849,-5.37016527060425,-0.4337943792362786,2.9362926801110003,-7.123094677159186,-8.598426298712514,6.409405584978128,10.197234708780824,3.1811202858238277,5.591728567706175,9.718737171164424,7.370079617385656,4.404728704686663,-1.900096674737597,-8.048116615714772,-4.142007043265004,-2.2320860033596404,-13.165448651659457,-17.96341740618002,-5.019848384217665,4.402187538298078,-3.3478712294036477,-13.585991753137847,-17.309257160633738,-16.96965813867009,-7.750850300731198,2.6012448826468955,-1.8925475466766848,-7.6256867180349595,-1.9190441923079327,-0.29163756626826753,0.5011460686207148,8.750420750485354,-2.6712914822271507,-31.837720159249866,-33.14537740472896,-11.952260752156647,-11.734899523423223,-25.7340262793381,-25.741151768972653,-20.831634612871767,-25.11255620031831,-24.71589027599765,-4.451128557629088,26.362490327930562,42.7996234006008,30.43581752324628,5.481119690424579,-5.168190479917397,-7.030891121406318,-19.703867772178846,-35.09140871962943,-47.66138259255018,-63.457916955948015,-68.42674598216567,-68.03405521554845,-77.88491577661435,-73.14724684705965,-68.91860169960856,-86.97456220150292,-41.78164244694085,98.8530955164817,291.8584967859784,531.3796092691745,548.0512780504844,46.53637275900874,-475.83831765264443,-391.71027264256264,-91.54881688259452,-97.19365555768547,-134.52777046616754,-18.27793693728269,6.526539115143855,-37.348552242837435,-0.9000949594333951,23.76128904938716,1.4867372062519557,6.111514546264354,15.860165858674337,8.095185752665232,6.738932890795577,3.4663806184290555,-4.608198108891408,-5.520441178648573,-7.990834677829996,-14.264310952885046,-16.612864390463862,-17.99836962793502,-18.637759659108905,-13.94386579739706,-8.624950429227685,-8.84460808111945,-7.855094863573307,2.323133347377116,14.717809108353153,25.275117433247516,40.78477477701592,52.0450241545772,47.36344950776912,43.95024026541366,53.68762906102906,58.396356454579575,49.631023692167304,37.50266691150385,20.17859212752562,-7.2561385159022915,-30.344662879951446,-35.34368644844307,-36.87471554522817,-54.26791947546344,-70.90939662709464,-60.616249011711005,-36.81329467568304,-24.68296132689264,-18.834269585938028,-7.259930266214065,5.16411403753485,11.016111671057017,9.774992722744686,6.4285255786428435,5.027319213882311,4.189985480371188,5.101980534861575,8.160489282957986,6.870598253624468,3.2586105425419882,5.298761196638999,7.950041884501609,3.649759728710153,-5.813007635102119,-15.56927062018417,-18.951523006769435,-15.19214588809692,-12.460382549426638,-12.147218152489287,-11.129662886229962,-9.886626095100237,-4.77475751352644,2.204930992541877,0.6561550001038263,-4.928611778808843,-5.215637053233841,-6.839328534875586,-12.213101644577353,-11.893655625641138,-4.712877847080284,1.8236184392411392,2.086207852358669,-2.4722575318245354,-4.615524032771778,-4.2048884958286505,-6.984675112068885,-10.414856600960116,-9.638691895978575,-6.959572992428676,-7.289492741314758,-12.891113613113998,-18.747544885210388,-16.630207888989474,-3.4205850718526394,22.48911016017095,51.89072891594326,55.35014667096683,24.565892751805436,-1.4315710869057652,0.5053112267341406,0.5441134205630691,-16.304811089026366,-29.664296898493056,-41.94608453105694,-54.883955042241276,-49.60864618889665,-49.7477946743407,-67.10086979714602,-62.28174754408403,-62.00797670830874,-74.45154463144898,-4.4434170740009975,128.8305525150928,282.2793224176023,491.8980445613903,449.9808772419057,-96.57563840722034,-510.78938969539456,-269.71767675956914,17.859998512258574,-82.3676777609034,-127.58232153417418,0.27160541754115286,-4.470007254888728,-53.52556034547185,-2.1300161521770598,14.46364671825434,-10.404444114739153,11.89894235188056,24.128204634262758,-2.0298462907030874,-11.15809186502072,-3.872301937655365,-5.872607924901299,-10.326312776229067,-10.114441808932636,-8.367239153462664,-6.2182593093908896,-5.993044787108183,-13.413486615162965,-23.12967279871708,-21.664298453456635,-13.235531381800055,-6.075587782202846,6.475843505024603,21.250377949690265,31.04990756349484,41.63460927062812,44.701255099809245,32.68382585055467,27.29575629998746,34.990806020247305,37.68446491458991,35.633123425594064,29.730200032622694,10.222247742382567,-10.047651139759761,-17.03669777917343,-21.784997765697632,-28.093770458559362,-28.000473966319014,-27.69127254342695,-34.891166144517506,-37.84207043707708,-22.645517581552483,-2.9066549186339294,-1.4273706733212084,-7.7569260298168174,-5.063992238897704,-6.720183400523808,-12.283440064202813,-3.8825839426268924,-0.22611592587925955,-15.018916763397883,-15.589272236950055,3.3647629664354906,7.942657640440421,-1.057877196597726,-3.1234667652727417,-2.9186971081528643,-4.3437401828758775,-0.22379292105789705,5.316026463396094,4.648841720450871,0.6503824744553821,-0.9417539094356382,0.5717757450546888,3.559915328753199,5.160918964887413,-3.372942131650163,-23.208662043161013,-34.12374132908643,-25.315315677416876,-13.890941936442907,-9.417668343416604,-5.5434791009985,-0.8547990055287187,6.709622841951538,11.792429409088045,-1.6649799729031578,-19.983297217903445,-15.227437998135933,-3.694598941151021,-11.635501027520563,-23.034203797652562,-18.66759607070003,-8.800933612705359,-6.795679549752585,-10.901043807841374,-11.016798606407058,-5.399167366058171,-4.2895887056108535,-8.968013867111758,-13.147308332044071,-17.618785586691978,-16.46986739950025,-7.309640599340431,-7.999654791673043,-12.005036790274474,11.86626120667415,48.22633089670635,54.67425645230805,33.18805285710371,11.71238592610964,1.0902513412880284,-4.957518881204448,-13.700970992593316,-23.31321516576836,-35.186363174122626,-46.40375450570954,-43.83943551814584,-43.469122925325294,-52.327814416364035,-40.85497049260765,-37.99558535762225,-55.73605670013198,-5.964406631910535,107.60311381620274,254.59976061053914,460.0694589783342,424.46600590074127,-91.82679231039995,-485.9166224748273,-258.36493470173923,21.797596957025302,-62.36388370878858,-108.44220315973591,-6.614670526967302,-25.196731224337995,-67.1432442960974,-8.76422366811545,9.082818209621081,-15.11557853422405,6.0243147340521865,20.589893755722336,6.374560043552481,2.0644116496967087,-2.407091929513509,-8.042238527119995,-5.3202058597395485,-17.805321380383603,-40.1778806221471,-41.57346133557869,-30.198335018299087,-24.922945848111716,-22.51827488654114,-23.023230858248244,-27.03511143408147,-21.2881491584154,-0.7439158136046014,21.283877993068177,34.99526438519159,44.07440306816815,49.34264037834381,41.78601322538725,25.238061201653668,19.625272676991674,25.535140804976347,24.870681894313154,18.24938530041614,16.78762246713989,14.521956759620455,2.387925009696325,-13.655478175774714,-21.976666736768482,-20.081861239815876,-15.415011424983454,-12.280911002762004,-9.175858307486351,-7.234443147256463,-5.4538257543081485,-1.1252626933645622,0.75264686985205,-0.7978633300592342,1.9775684061880052,6.227996505078288,2.89749758485303,-2.68619069382305,0.26613710073136504,7.565032879845501,5.306664868221944,-5.724591447173629,-7.821242185574576,2.9989645516267536,9.46895486490361,4.316671801353819,-1.706315298296471,-3.1179145439452256,-5.241969446649279,-8.815016969959135,-5.392382249549092,5.0208443492058015,6.942575132957579,-2.634885287485229,-6.685075943990895,-2.2726316781901943,-1.2028528092774824,-3.619265663116675,-6.849043955031304,-10.830180009078102,-9.605281299494512,-8.719899484507849,-16.435663622180854,-15.961633183905157,-1.3486285306708634,2.480719837302905,-5.87233693005699,-4.308825708033712,1.6974269855367758,-0.7889827716645819,-1.575006106194282,3.862704153027905,5.624897311474115,4.081151609638335,7.659882409645522,13.37288986042925,5.1177922591608045,-20.76668240001677,-37.46877824897253,-26.971795360810546,-14.582261956439577,-22.33515570273918,-33.5480692023534,-33.624634858636114,-28.467156792603845,-18.08691483296321,1.3499835529712199,24.640677217701317,41.785618335387085,38.574449732396204,13.375887163977984,-8.326357394139176,-13.965874526943736,-21.262574869725064,-30.699592950950006,-34.82179649084533,-48.49928277224467,-57.74180722318671,-46.39181100826903,-59.654615123721086,-88.67540676179459,-71.47100290038291,-59.183395417147985,-72.92338236527776,-6.227903849555808,135.46868082317275,326.16424569114736,551.3434371530404,440.3965421661112,-162.66554442905377,-527.6824867141135,-244.26576115637647,13.695207320974843,-87.83902095149543,-101.65033369707605,19.335061875810062,0.5023624932329085,-45.62291142091425,-3.0576118577404907,10.999856720758821,-4.297047363604497,5.411762458420118,4.072273790503916,-2.6712022707850593,6.722856905007099,1.6558264135903862,-14.273522274440815,-10.467122344201147,-2.335678248218567,-11.504428816012208,-19.480798297447933,-11.125138379305119,-4.253984644477608,-10.517711178101989,-18.32542301824448,-17.882923158815345,-7.431653615562947,5.82036520841267,14.404280953522427,29.014251286035304,42.224157170983375,24.581210270349555,2.518127720237856,19.590309307544878,39.72497049755382,29.085915699767014,20.575231686868264,16.927559252619893,-3.596176408068766,-15.980755934396328,-16.060676825351432,-34.0675735736679,-51.79074564395046,-48.183615535925284,-46.11620681430524,-41.374225679614796,-19.833658750495022,-12.665029614872722,-27.11082630989818,-26.618352211535356,-10.086226930436972,-3.212930998822479,-6.050968950391383,-7.699935170243474,-4.823735767999029,-0.4462925276576737,-0.41743033137688634,2.267370734807372,13.91238612879415,16.37857498633905,0.8662213844121283,-11.74399914002415,-13.270977821660576,-12.75217727613431,-6.204165078304893,1.485579780863123,-8.801069002182214,-24.913521990704233,-23.124282518427798,-15.606804387115314,-15.593726347323642,-14.954181016856026,-15.217747251329271,-15.42552687326004,-7.319342702627708,-3.948201130640566,-8.995500703418838,-3.8332495818550782,2.8950261642045554,-3.6555782517823836,-8.325643266489603,-7.716049339404119,-11.122014312909542,-10.70599374992662,-10.115881076343545,-21.300816319322436,-30.108697873174755,-24.786571293687047,-18.487692201028203,-19.410250320754766,-22.544823613605416,-25.52069932323459,-21.265661059770984,5.6139127614240785,41.52416459776437,43.121397262390055,15.14178866346964,7.7985492477384515,14.772997519159134,-5.150577124795127,-30.709667997227598,-29.353718712610593,-32.228940276850516,-54.03956835731444,-50.7524355268899,-35.037131818633334,-66.10520617112086,-103.47873027230496,-99.61143504060966,-105.69355528180597,-89.13080424081207,25.44567837574786,195.06829814390312,443.89392233655457,659.381703061146,365.9378993077842,-330.9572528470966,-543.7477266189886,-186.22234255575052,-38.32556456661199,-142.78421599432394,-72.19256842350677,14.387834320847006,-39.962123255385094,-27.894165922304808,22.663052094237653,-7.131625746977317,-11.21157835078608,18.384001855965046,-1.0492065937646267,-13.949400458881051,2.0236195465647207,-8.420548546279484,-22.093614822104435,-12.609889895186782,-12.963671879523417,-25.347258676637516,-27.943190161394522,-21.22454602360349,-10.700202981803374,-7.05046744316466,-16.675464955042493,-16.913248704654727,4.539764974311954,19.898858117302368,16.193410303513723,19.78979600907299,41.38623720387055,57.06246304658965,52.46266375967819,43.71510799732573,49.239658018399254,57.86294592275028,44.61895484996977,15.120649166362217,-6.839024259800267,-21.650007812479906,-35.836741607467175,-42.573552037300416,-45.46007484773021,-47.82201816254381,-38.272824629377126,-23.999439940932618,-24.456133091006333,-32.16002139282975,-29.96848385321215,-17.68860085094512,-5.0217932554088485,-5.306358546223667,-18.80099485249757,-23.15347179877113,-7.648289958983401,9.384622542290622,10.609266228721488,-0.2461029742322669,-7.053550170548023,-2.115959463965547,4.301417935277433,5.147770759663512,7.87664575868712,15.889774345214814,22.78030399705157,17.081525243082783,-8.607791163032665,-34.38766837811379,-33.06735982230221,-17.012367254923326,-10.993247759374533,-9.188644851266476,-3.0853130846411645,0.09715598867439823,-1.7867988306818585,-7.25006149683545,-14.590927744324144,-14.821095240532243,-6.820786491319172,-2.7852305950740988,-5.5338594491460125,-5.474277211036169,-1.0198564419160139,0.4806592700155008,-0.7623633625243418,-0.03232648368117719,-0.13178039896187066,-2.0196514604117954,-2.9229635825562177,-7.394027852140885,-11.128444177166944,-2.0154154389036707,3.825264367234217,-12.227165547327235,-26.026150501506383,-20.083416347768704,-17.649062439886258,-21.380347336674635,-4.356888899383399,29.448779257974245,51.48041579150612,49.96124982969134,29.158108515860718,7.471981202648501,3.4756981142270407,1.634473871042056,-15.739756713403946,-31.99776654736661,-44.765708203511494,-62.359819735286656,-66.8138739238376,-70.7893097498793,-89.17465592133216,-82.51019565437149,-72.50977180685115,-87.69351629758698,-31.88170653626439,110.76963185709576,296.8150087459628,564.036266865554,603.8644207974719,49.31342331292398,-512.4786884499727,-367.31600848213475,-22.907623929966277,-73.70542881853164,-142.08433149572318,-14.279116122171374,1.7456972819922782,-52.13790482207009,-3.095096527679064,23.225790692325834,-2.7110698341842543,7.9389266978063,12.801735334287493,-0.5488183307542407,4.493549428436367,-6.831977402518568,-26.51010986610339,-10.346532834706764,5.307505906823817,-9.053699022352028,-21.79171856616268,-24.34761084742372,-27.031106786534504,-20.879893372145474,-9.271073992532529,-9.797583493786458,-21.28474134375578,-27.07108443387782,-15.495931206304636,9.211895974880303,30.015523030815185,37.68004484339909,40.43365277236817,48.086362177079586,59.285533121486324,65.02578254493993,57.78264806786562,38.486364682663734,14.208031915847625,-10.617518709628047,-33.56732057766724,-45.168393287922434,-38.30730692949359,-29.42225057391857,-37.06061145831974,-42.69340113801448,-23.620559735757936,-1.9960309443556419,-3.2616894956188425,-10.624856294501178,-5.141698495129955,2.3757652204474304,-0.9399175916344493,-10.435249700557392,-15.015527828880522,-13.34412929357088,-14.360869512139676,-18.166444000273994,-14.752187845491466,-7.208484528144712,-7.019685750973579,-9.777604586181635,-6.346412866444929,-3.593160355707383,-7.0356599195213505,-6.735483557236641,-0.3510376875354897,0.843679537274383,-3.806388050732288,-5.9197171435325995,-4.93645813139295,-3.8811644346172702,-5.779517852054649,-11.308964715239867,-12.41645565881343,-7.444544895358888,-5.9331040255006595,-6.688308032960675,-7.0833891132404005,-15.982662668003378,-25.42209851830447,-16.575969126332474,1.218708101337441,7.615397276315973,3.077713455995805,-2.2929735072219106,-2.0741555278705475,1.9962227369205392,2.8986736616416673,2.8554580016256423,1.417804948768934,-12.459765586407352,-27.43230348141776,-21.98906481143651,-9.973924780313563,-8.713901258630798,-6.375709746578855,-2.239669871315323,-5.002980409216776,1.0817162675158527,17.802991955221888,17.9804813676447,5.313345823552176,5.612552136373962,10.234526316522173,6.483383356102655,7.833468859855025,9.424406720609474,-5.024071018363363,-17.55122481521965,-13.83114254700341,-11.946077117038532,-8.999978541065298,15.641326912256252,42.3884451563341,40.19907792236803,17.545453174838148,-3.8464143422224826,-13.14813035057134,-10.517389249584845,-15.098042173541312,-32.83113052469721,-43.5711692412958,-49.1734671059005,-55.395961421029725,-49.99597421131042,-51.079250178523,-66.80551017684206,-76.24654512020143,-94.58165711212035,-84.9169601524935,19.740440703813604,156.9676096459199,327.6003319377139,531.4370918644726,384.2683455918851,-203.6290592891706,-480.6456254518557,-166.51615849190566,28.150981813328883,-103.86760372018185,-97.85860430247764,12.968651537461092,-17.34180635123178,-39.3817699470055,7.864310818891566,4.096036914256384,-0.2951999713110842,25.8384227477,9.595172511726695,-10.905011867738558,5.209259402616485,2.3886666410609685,-16.110440355719987,-8.623049357908346,-0.10097686085845936,-6.613442424963768,-4.807479295653436,-0.9668957077108256,-5.072113759367941,-3.215552050283078,-7.690156105292928,-30.25859880318421,-38.678734195020205,-24.61600677917198,-17.044790536768147,-8.004366479354665,20.22971481530475,42.889389014715036,45.780252546131834,48.10309511702154,52.489360604827446,46.9452835011261,38.394824888146644,35.477369865640526,25.41617894328305,0.09469529146790423,-21.37018817992253,-24.15499436395824,-21.942711952952084,-28.123973478804096,-36.56285968751839,-38.10982534645302,-29.901361598340873,-14.362721288792674,-0.560439403473902,1.959984239837036,-3.4981799831215925,-0.8018756221748236,10.338568540377477,6.776453256931374,-9.647965783368921,-8.83279488383928,3.4792186156724814,-0.1759736698419312,-7.772885776703044,-2.7629796352329064,-0.7601950629001006,-4.72594897719288,-2.0101046486447784,0.3012323446605696,-1.9423602916465459,1.2685081585920566,4.312182561831904,0.8844474725800253,3.7776155427719758,11.898812084349078,7.182190857557011,-5.859396433473849,-8.704252328720939,-3.626393102725377,-2.169343099258782,-3.2669171366757332,-2.924985214614714,-2.664403278632932,-4.886205737748714,-11.759903217842135,-19.633529701333952,-18.962819954377608,-11.330264718773567,-7.018017643844734,-5.890379953314487,-4.385447821292795,-2.9670483747552066,0.9462354727049087,2.5940133926489213,-2.7209771810074717,1.2993564785325944,16.13221741524873,15.219261746537706,4.187554927176026,6.216620936868749,2.0749133958597312,-18.7648672113067,-24.07392013028935,-10.636231229534664,-4.724870416507336,-4.83049843079889,-4.318515805447596,-8.466167337230914,-9.035988807194625,-3.629366107935846,-4.76845861061364,-8.320476432401145,-5.395544619334959,-3.166697775951768,-3.8491537539882845,-2.463757749039166,-1.7652799175765157,-4.575614546803427,-10.175989332035485,-16.21796552187793,-16.251771605231113,-11.134870762693375,-9.415648605041497,-10.540632466339122,-11.248721536051065,-11.757103451423271,-2.88960659745511,19.96610631532886,39.17276776986969,39.086342363977195,23.171867308844213,3.534385925649895,-5.340015833968822,-4.850000083908206,-14.815001970786803,-31.266658372999693,-35.78122210490281,-37.48757424707118,-39.29703111460714,-36.47716573618254,-49.633715160761376,-62.91037243337958,-50.65378123486826,-51.0263550049943,-39.16153419495366,46.81819911753337,157.37677689545686,311.8479556197163,478.8023339033642,282.5169955178501,-269.5985473114396,-451.23428959819347,-127.68639602514855,14.339300074770836,-110.95653236610573,-76.80282043882491,18.31724131266406,-23.261580869573443,-33.38162275780957,16.39868836758957,10.60691656521169,2.3612005406381114,22.40453620760548,21.027449992193446,14.939951675290033,11.236361283905765,-6.5136468870311415,-9.956753918091582,2.0359247646848306,-4.719158606554215,-23.83088619628569,-31.887603088737755,-28.870600199159192,-23.668660197183513,-20.505496064846476,-15.774249503539293,-8.761140583467537,-8.63437808114676,-12.866208412025978,-5.341293925838423,12.364192969641298,22.75191720023421,26.260751083816558,36.19533564826963,47.14194885120622,47.60686605396825,45.762041466373546,46.32111180376734,36.210465321086204,17.731475403898216,8.629505788103426,3.0078905550367563,-15.500228467888364,-34.04828101298515,-35.1999054164006,-30.816085818550167,-28.093412886253248,-14.470383153725255,-0.9671361031587651,-7.746552582087883,-16.178701284931293,-7.844683753960866,0.10018241402032935,0.6366816570024607,3.4858618211658277,2.652195163426221,-3.329438800113392,-2.775355645521474,0.3502528309215487,-3.0372805199398343,-5.974659950989674,-1.352991401059196,3.5223332426307437,-1.4969921392244263,-9.526193965473233,-6.963550673417167,-2.4371230257678445,-6.947835602012589,-8.327773979656136,-3.4327734392342393,-2.8637292704873634,-0.8422430625864337,2.263452319270888,-8.128915228694794,-20.976886663724983,-17.56867290661201,-9.112036222021883,-9.253026884077968,-12.947313381039528,-13.058716395511016,-8.038811035013445,-4.452312501843707,-7.802465376765831,-8.199608297793473,-1.8054315810906072,-1.8658549889016296,-7.446199497324841,-5.957214581236581,-1.7012174836150198,-1.5768153641779623,-2.683486175169243,-7.866057235509185,-14.719839460583964,-8.69763129744117,3.3939490664373118,-0.9167666395381904,-11.352123244050723,-4.933796677841391,1.874699217492843,-8.14131245954271,-9.905811240104583,3.833061335332445,1.6414460194887006,-13.051878116425335,-10.126342739843691,2.0400898843173625,3.993950071252476,-3.703187833347849,-20.189814710315197,-29.704041892945348,-15.905453084594834,-7.432104938795735,-24.362048564566024,-31.379273257889086,-8.527427335446077,20.221895929809037,38.0788536749623,40.37276254174862,23.08904322281263,1.1206981181765983,-7.103060761722553,-11.385602044529282,-24.191920707961863,-33.748137368474474,-38.38854947103393,-47.49457182889888,-50.79516792092441,-55.11103003520827,-70.59622932598438,-67.90367654291977,-65.42658711732068,-86.98670125728725,-43.55438436176474,87.55254680388491,257.34359201974166,497.36640174069805,552.9086522370712,62.53077353355971,-490.5204274150783,-393.0608011371208,-38.405694452899844,-44.44418154804491,-124.94194188789358,-19.934961559704334,9.81955065073214,-44.33685205444375,-12.63379671110254,17.743311402963492,1.6676753461224685,12.300236195829413,13.83986712450962,-9.70670297723677,-3.5979018584616504,7.381855979788334,-10.60132551600791,-20.418313430647665,-11.643833642860702,-14.125572930739441,-23.973589514255494,-21.045596158943404,-14.717238941640797,-17.11659926435071,-18.010995237823693,-13.472112152018713,-10.971236617089263,-4.5500461398763195,11.529751170469453,27.29977423198326,35.6760524870379,38.663722076659845,43.964452558072864,57.71612019165971,61.095311594791966,35.95375516342264,12.93539782693902,19.347385399027267,22.151864969622814,-2.3880947024967485,-24.41736093988138,-29.94571058456144,-39.123895084852805,-50.497914934507996,-47.13253144125946,-36.35034124619917,-31.447099231102257,-25.27649888286565,-12.397283075871297,-6.019882474724092,-11.938768714114815,-14.440324724525015,-4.186989663626033,4.949932418064723,-0.14155595788832187,-8.352094508802628,-2.008693171130991,9.340225506677868,3.452410961714877,-11.014133314432794,-11.026702455808804,-3.53493731969575,-4.868874965216756,-9.351438505279116,-10.266964155934506,-10.648806973356745,-10.595241458424917,-11.720484773433327,-14.38149218340606,-13.492958272462552,-13.854343318577367,-18.15691732461534,-13.21261858507538,-2.916629230339751,-5.090532240853317,-9.953773905238545,-4.718416596758178,-2.5970519268339807,-7.3429378698558985,-7.334273503935577,-4.003321231052361,-4.962296274370953,-11.027330029007317,-14.615232259851435,-8.447643392093592,-5.5698214324226445,-14.02003919305608,-13.22963586951973,-4.549162935485732,-10.46444188584657,-15.614815557351342,-6.359446164335008,-6.233827690681405,-11.918316580511048,-5.118218234983335,-9.471691843171705,-29.609363333857104,-21.834438984834463,17.607141464619204,47.29739557693501,54.30782387837969,42.12417732565551,13.446539803799142,-1.039076819728713,1.8036391918630965,-26.199858332251857,-66.96646482731607,-61.45968658209971,-48.51789396870588,-69.23950744732981,-77.9731001957366,-68.70518273727166,-69.47416740473393,-76.18728142669735,-94.99032766908195,-77.66907026279678,32.63936625639363,191.2945209854716,425.30105791549477,634.4936950677841,353.75056131698864,-333.1613709668474,-543.6033042802651,-165.4379288773727,-0.46763821490527135,-128.15499873480226,-81.18306508341581,18.41044183368787,-31.935348708420918,-46.63338819065655,-3.0501447556558325,-7.4054237103918865,3.4580132320979775,27.054071864948114,2.5432291824476856,-9.228607100654227,6.940475689495493,-4.855645779104361,-15.400143732621508,-3.282298690580294,-13.891629424715116,-29.812707752756044,-11.262187397890756,-1.1103517256475328,-22.644759131923095,-28.966288988064036,-17.74631421012689,-19.167795931537086,-13.938000528607413,7.2987284130530306,17.736122227882795,21.024205011839797,31.75177589797839,41.97413772149143,51.62123558758667,59.27810161776837,53.91338967120093,43.688835985504234,37.446970962500174,25.742880950686164,5.717409804892165,-14.612264576519994,-27.46370192297485,-35.0835687629697,-48.32859439662799,-54.16926855877795,-36.33112941207436,-25.486944317085456,-38.43900025274583,-37.42533669369993,-18.556261950652015,-15.227674016594293,-17.668043743380906,-7.350858789457517,0.8173149380581322,2.913666645732633,5.885634340277262,3.9797457304548,1.8626480249384443,7.616476912518464,8.700192319376438,-3.956723371294963,-19.19476177217709,-24.421814861975214,-17.45512597678288,-6.533233718038147,-1.8237762927063432,-2.0968078653050792,-1.9221784284025354,-3.004200857817512,-4.4760410272726325,-4.233801899491741,-8.981139714128876,-17.916949121656998,-20.709194571511237,-19.952572348015934,-18.411044237146186,-9.61473771136471,-4.606974286357769,-13.921608292970213,-17.74400181152385,-6.512883939407676,1.083953577919475,0.11877488602831576,-2.515381699539221,-10.08088700242273,-15.14484254609714,-3.987078932470581,8.915974152035684,2.2023290603887737,-11.242424403267986,-10.03195845500311,-3.0820888310926406,-4.766033157626042,-7.984993801842949,-8.180430142373964,-12.538092175362154,-17.530612601565146,-15.699845621093434,-13.21913307501708,-15.246701869241022,-15.299360646593591,-7.119448979187326,11.19852183487292,36.22574171482772,49.97106354043969,32.50034289910716,-1.8915941587801584,-15.087005104574473,-9.016578003588101,-17.478893064624973,-34.0003053537458,-40.24373829242957,-51.718722521397765,-61.83705445395208,-61.06516496150391,-75.01170848219552,-80.11682800204237,-61.72735190139952,-77.23713499876317,-70.61974351835889,51.51086176590148,235.73893468724208,480.8359805046369,648.973690423079,292.81891258465396,-392.6662721657467,-520.8537428733177,-123.0045346135224,-6.762423637727096,-137.3199300343985,-71.42426794622077,9.69294348082375,-42.11734070318136,-25.601323993026888,24.356046934823553,-0.566165358866737,-4.276631670063467,20.906262024803056,8.872754040989665,0.9607564534883632,11.875427695142822,1.9875390077797803,-18.193569183625396,-27.2415235594887,-27.69464460868166,-23.46823279156375,-20.84665374535512,-20.28299372188834,-18.658082991947346,-20.345437276557952,-20.539210525753003,-10.014031918899633,2.294470476522414,4.892416434409495,5.541955775779672,17.48390081115874,36.765264886980844,48.49261758273968,50.737925300134464,52.82916731433061,56.12958382141615,55.58329962040043,48.10375787423989,31.658207523674946,9.123219517359175,-11.527415121028069,-26.57900802671108,-37.837434534085716,-46.48287785759385,-50.55396058568592,-47.15016151815477,-36.517534379341,-23.140096952983612,-14.011379141270858,-12.174650184898017,-10.430833565862077,-3.7906033156411247,0.6901934458607251,1.035580064318923,1.8711755685691323,-0.8271162928112261,-5.255876928972656,-0.1613553503120979,8.326443764921981,6.19859544136324,-2.7199723817945465,-8.116707153237572,-6.411687058882367,-1.0568863676143598,0.9607136194633572,1.880994587040603,4.4611127048059895,0.14454302756984916,-7.438081659964274,-6.398067198803662,-5.256748948224589,-9.704217605666283,-8.371010024600327,-4.0687461831337135,-4.913452055693243,-3.3349836155230843,0.8336195477610175,-1.0533582201600105,-4.483810600672793,-2.6588502009911643,-0.23557614257495274,-5.005174203040916,-16.692126518562453,-24.000962566429482,-20.55310624880884,-14.921071822271031,-12.82541943087373,-11.296469815894248,-7.769081809369059,1.7314385116738134,12.584001904014944,8.493344557560498,-8.024239950526793,-15.560033023261566,-10.933414741726551,-7.256537129852164,-8.088171396887333,-9.309381480735185,-9.060322039900779,-8.303433996939518,-8.992797294538928,-10.07616981784134,-8.183094307436972,-3.3914605993993145,-0.893959156294045,-5.116891428726127,-11.116295212014101,-11.429685270881565,-9.656613989570491,-11.10879205187129,-14.852098085019882,-20.358689415866955,-16.08877914306534,11.728655795044315,40.83246160185429,41.664674817082684,26.291688565443952,10.755974934940813,-6.564057839256428,-14.359819316550203,-12.884431109815456,-21.707380343519915,-36.90364755130332,-49.37088460837077,-58.2202829577311,-58.23043515239093,-66.25992086602618,-79.39973207420441,-70.1169029385098,-74.0799530150653,-80.31397039163835,3.931451983253048,150.92309820081755,348.33886824374554,592.4986703493907,482.9237558507586,-147.41533176475264,-525.0324425269986,-231.84527199216194,16.9718262312266,-101.51776609268008,-113.49104154765188,-0.7524877217703718,-33.11060318958967,-59.03900685764623,2.596310455978408,2.1265537500422695,-13.959518391294308,19.14773759694666,23.316415577961454,10.432337950177674,19.141837029311493,2.581620191083548,-30.62205553919305,-31.119527718703587,-16.639508182622706,-15.86718601506422,-23.366800755322615,-29.842953837376335,-29.338233258186854,-23.898224066113904,-21.449641139766243,-19.07833950829705,-13.409859375922142,-8.612610134287687,-1.2944615860562871,14.19900404701684,31.045886445515187,39.09604534140094,38.72235782941216,39.17007254588777,45.637612203039524,52.35244441210172,51.52438029412195,40.518849089694,22.682963788188374,6.91645322874822,-5.73788479004096,-22.992277128878712,-37.809162962428715,-38.3198320823506,-33.920478603086664,-32.73056300234248,-26.48273096227522,-16.618752907486495,-11.043397395448649,-6.467987193692032,-1.8946963644895405,-0.7504942599153068,-0.9476689891566927,-1.9984575296749991,-3.6601664050533493,-3.174526971747616,-3.919761166296201,-6.954944247836142,-6.064896825935886,-2.1019002537134597,-0.422499646645063,-3.366489031112801,-10.69766887989569,-11.836224555989276,-1.543287632131955,2.271754092102796,-5.059382943731007,-3.7331941183911006,2.9598272827558816,-1.4601593572327847,-4.803848818106358,1.2650862912283216,-2.604178970231782,-18.480160637622994,-24.00171202987613,-15.561259991343618,-9.66652180492046,-11.589303249197592,-12.473547439152311,-9.308350063106992,-8.056121716829539,-7.974914375407479,-3.653928307607355,-0.15723714656438403,-2.3633861668610443,-3.3178100126104795,-0.6026052410082556,1.163758925025725,4.612077235859674,10.086565732924635,7.027483181746858,-8.52979799511123,-23.949094169952048,-24.449402626454116,-14.220793016461187,-12.529917426284282,-20.52856725093187,-20.40489280053192,-12.553282682684905,-9.692413024574758,-8.386928776858454,-5.878164245888891,-9.364648622763932,-13.375133239233094,-9.125603555064819,-3.177620890196401,-0.6460685260113959,1.4972909880979746,0.6176630194520207,-5.563747063651338,-9.47509938861847,-6.130141729778117,-2.2215237492870195,-3.381728739643009,-4.57958402246406,-3.7313464511206877,-8.506606688676012,-17.368523805525932,-18.442369170744648,-14.286669466430531,-16.20319849205275,-16.06406465871727,2.2880471583751865,30.22117766695888,42.81592394622848,31.86742025657263,9.726230427875695,-6.885389812956685,-11.011833574951007,-13.503472565687566,-22.798587922972537,-32.203173171295944,-43.66185564638607,-54.29175245617227,-50.22402556958814,-51.03805941851819,-62.70203299642982,-56.704351039354236,-64.5093371106174,-82.02930163642017,-13.18722845313443,118.67816686714865,282.51128804147226,509.5321941086405,466.86432509042476,-89.13070370688787,-498.85517293728896,-256.90255229731935,18.788245478468525,-81.03392455107607,-118.7312200486567,-0.5170943985147005,-16.153646720890322,-58.359610468808654,2.453535666790975,20.84512236540941,-5.81415393559285,9.680822459867425,21.228740253393447,14.069137384617985,16.966551131674052,0.9722725667984626,-29.172133616794515,-31.25852616802842,-17.909777815516343,-17.29438012831669,-23.189810871520066,-25.95493718722407,-24.899268520285844,-19.342124700898207,-14.919408858636675,-17.1896175393582,-18.03305726363589,-8.541200265720528,5.059251106393241,14.758139011987218,23.462666847131104,32.85751331691273,37.705441075105334,37.81315990920159,39.40562885451494,44.662410934884825,47.853696676185706,40.02902719699624,22.00662116306173,7.767714066277993,-0.6200695777740646,-17.59487991751574,-36.87898483909024,-37.99454518394654,-30.53499449292905,-30.735305411110584,-26.289870501426932,-14.731893300041337,-13.031552465731185,-14.287934135891577,-5.942601798371472,-0.3505601420580007,-0.6923489429109893,3.1172831236497096,3.9193687189404613,-0.7061235333214064,0.794112994090364,0.4380730646420776,-9.675292042887886,-11.78799603450722,-4.696403461585435,-7.902847113391299,-13.520663879357123,-6.091450842282256,0.4064285559113987,-1.9076233965515215,0.8863677468293467,4.921356791570492,-4.941618491398238,-18.40834755121934,-18.88746576909989,-12.38080363997115,-9.031853768356132,-8.771775010070147,-11.91719734344293,-16.301780628401175,-14.500495671534278,-7.045104623894295,-1.2953060400680254,-0.8937938847683018,-4.897445099049534,-6.636398343672035,-1.1540328968587161,5.714692659425387,8.958040820021468,5.771627513115915,-10.096328783084584,-27.211249947900622,-25.395236111809165,-15.88299278383986,-17.697039424432678,-20.780777060192502,-16.71501548602602,-12.726563253036083,-7.615447658364744,-2.0352207998399905,-3.429363971666092,-5.41825109158167,-2.8889289144214043,-4.398325472173566,-7.32059989596333,-4.419262104904734,-4.931246180867291,-11.47889649948578,-12.036192422940527,-7.490431241457873,-5.596925334537108,-3.823827844361846,-4.13408916046928,-10.32219260733414,-12.476356724104962,-6.828357114056016,-3.944562339901502,-5.139401234256486,-6.217351696319087,-10.156275556489327,-14.950860015515287,-15.371525473027354,-9.538589062440241,8.674375684165534,35.5141592176738,49.72039493008656,38.975810884159785,10.65759810963628,-13.366079317635418,-15.313826116141598,-13.50235371611932,-28.146347721434992,-39.73222026921289,-39.70743737906298,-42.33958154048094,-47.178459019429894,-56.22010701477951,-60.32574101372574,-51.94888022354354,-63.99656666868444,-60.259025855793624,26.62057570437082,141.18933365444502,297.1120055615804,483.1841246872127,315.6118909116134,-252.59921069054093,-476.5525788198772,-145.99120657487924,30.518336486376604,-94.56352061435128,-71.2727189781707,25.695933560393108,-24.2613331882405,-41.532290090075875,18.939622665397163,15.616932241481416,-1.9866226421886237,15.62153550030693,7.266795002035111,-8.916135271590987,0.36463130260600174,2.2673495267332635,-6.844091367753549,-6.1101688858008,-3.427369846788938,-7.714981340703558,-12.361433339386778,-11.074647535862166,-4.174598852374,2.545410243594459,0.4045805983751416,-13.01297706485819,-23.420834535980553,-16.060991164007774,-0.262757712739331,6.798150945197395,5.854988535095095,8.93462392932163,21.32620691167269,32.81159435513871,33.197430657695406,31.850921442991712,35.3007253173021,31.748892057383312,21.032100563510408,12.862320015310914,0.6328400892921024,-17.373943969814498,-26.639266216810384,-25.677996522616855,-22.9077281733868,-18.228091437511665,-14.13072100491205,-15.092360102756501,-16.156126813769,-13.724787804811946,-11.012761265849948,-9.867899895134773,-9.994682626067071,-8.685670344184434,-4.355611664045245,-2.550766928331635,-4.933588177236388,-4.295244219595929,-0.6163660399596242,-1.4861579100323574,-6.73547868683495,-9.118930630359314,-6.211014977733001,-4.547329016541312,-8.509354548366822,-10.685086616088132,-6.9553290013109255,-5.729536203593275,-8.717369139773535,-8.685423337199417,-5.961287347749838,-3.0809466134253523,-0.5325988639901755,-4.4004180373750685,-13.846818251681672,-16.030528631484216,-9.564876135270827,-5.650215560539145,-6.004388282834263,-5.611277511468497,-5.002379462781175,-5.035799858758768,-4.392374958223497,-3.4033480508255955,-1.640168781209244,-0.05488164211202573,-1.6465170627952475,-1.3443606289712733,4.229851704241975,0.1879803639884443,-18.417559414465078,-27.224310653683887,-18.083800727857778,-13.907928654478722,-17.300392778053055,-10.716256859610333,-2.8098431279346556,-8.63399791820601,-13.382192383194038,-6.935657261798239,-5.966090634037872,-11.372359701026808,-5.094298560732058,4.432560664706731,-0.14784827627164354,-5.4561809029958575,-1.440042284642205,-2.951999181283295,-10.24053203009378,-10.247967216976232,-6.239525519204287,-4.694878048921364,-6.857258426632871,-12.265979371646505,-5.692898308989957,21.272435450961105,40.21295339767763,25.75958279155008,-0.9613107322788146,-9.29847688005626,-9.349160686790519,-21.441637457688078,-32.13465908707419,-36.23360366382038,-50.05754788294871,-56.46787568138049,-49.225185726763655,-57.73455610045272,-61.68597739860829,-55.628423435557785,-77.53492773532417,-53.669305831058104,69.5962655582738,214.7038548564156,402.94893879179034,509.03813042452896,147.77791030762256,-423.36995947810175,-440.33063238900104,-64.8264426141223,0.6132985202058592,-110.36073414748776,-31.28929159748648,25.443413439254655,-38.48589796953772,-24.085625963969985,23.90221248775911,2.242436950138096,-8.838380382001116,9.064701869387507,8.665714954788125,4.753016050419028,-1.1554945999938369,-19.391711760159936,-23.782405773343726,-10.012308752637587,-5.633335360547708,-14.733647000951203,-17.7461513278479,-10.959457557095575,-9.154527879729415,-9.502623032022308,3.6733510489640686,17.71863024747081,11.403377092098893,-2.7977327670590717,-5.6522779853271325,-2.5623999689810635,1.2932411589631414,12.925679157650423,26.472872217973276,27.664761334308615,24.495355818284093,32.949712715358366,40.18050170874573,26.116517615806824,5.114743738269775,-0.3530655406284877,-3.101007814288362,-22.478370585332502,-42.58117989449142,-43.9197710195153,-39.92269517956784,-41.40542048200596,-34.00846376861876,-18.496059858590392,-12.593749048653518,-12.398217201781524,-9.47885356470401,-12.78681116348714,-18.929453741944947,-11.93018730202829,3.7635784958737943,9.64913678987482,-0.549599424903711,-13.319906844069092,-11.356429125883436,-0.5409307269840955,0.36202837042063507,-7.145757034767193,-11.039289222344003,-10.771915705426096,-8.69862214255678,-5.415028462902676,-4.9993644444395855,-8.596117997155137,-10.485081436257916,-8.600081398174169,-9.737040649058255,-12.952303503446581,-8.79839602765973,-7.791579785597747,-21.217204822808224,-23.467818626908013,-3.4488222641514596,3.406685132938602,-9.185778569965414,-10.945971533473374,-7.988094419182893,-16.62635751215302,-18.113161205423864,-7.16677678312271,-2.994886004634841,-4.274503896989623,-3.150707276534952,-6.510848888308734,-11.586405530801635,-9.67982535835332,-7.304498273963045,-8.438827329480029,-4.985138741993552,0.6920663574187209,-1.3774591496893809,-4.5118608232585125,0.3012256087739438,-2.6067940381407375,-22.44145321193553,-25.30782307404839,12.409375913177232,46.57577987772479,31.52670951889216,-1.0685964644242283,-5.781514917446922,-6.108710001450753,-30.801511266802535,-50.358932762937386,-52.431841892734326,-61.27133565095606,-63.626811315908824,-54.55332367005006,-63.469648339487534,-67.89897772020967,-62.92804190082835,-86.58346899233283,-65.44945897370823,59.12448631373846,231.71598539906094,474.1225657746937,606.2599190404894,202.21493760548896,-443.3487580029013,-502.59201869583353,-117.09904853399428,-20.39279998029599,-119.58986792064411,-46.03018923802263,17.609534446130716,-31.88333762385067,-18.988060976577522,20.3232524507049,0.3199181868879748,-4.478221950898532,14.866370497702235,12.142191216543099,7.553868409106514,6.815946251601041,-6.470820790143698,-18.60800516085652,-19.688082684735328,-15.73982682039111,-13.505728540673136,-18.909728082340663,-23.714712354821994,-18.07710834549846,-12.920266124355933,-16.039625470871123,-15.82395786659372,-4.147617979878275,11.840672043746409,19.592004696673737,18.453094381453273,23.746090183146663,37.40700098608546,42.188980622493276,39.75200791471191,41.99685659357031,37.42576011026994,22.774061090797204,17.527304435662916,14.429256139324556,-7.887738637889196,-29.814216663023146,-27.856276892779647,-24.67083933526101,-37.419918545428786,-39.75835963312913,-20.565049734116045,-9.343215103259176,-16.99738274177175,-20.564136293720296,-12.825860353006394,-8.490253737601485,-13.059922619005189,-21.12780491113196,-24.99147910451964,-20.916191613849215,-19.028692206131247,-24.510699067109456,-20.68191108137129,-2.0666865638732155,10.313000357504613,5.838249087629135,-3.2160061130165793,-6.3758694857165565,-6.555405665429937,-9.980999085518087,-11.594306824274705,-4.877417013136888,-1.637231927679423,-9.091214807707452,-11.677955089836114,-5.412849716393165,-4.68625790974022,-11.098646233396416,-15.51674948800325,-12.237445399139688,-5.4977439991410435,-10.625843288596858,-21.969251853532427,-13.92847346578466,1.2108915595300296,-6.8587425885003945,-20.307388494581883,-12.560730778755916,-2.348064618871799,-7.029790813039201,-10.217480946623057,-5.507105610327162,-8.886378298361091,-18.465720633124324,-16.804974132270353,-8.952789835607152,-10.503210730856484,-18.775270378221478,-25.587099079535953,-22.74375620478583,0.48722959779387764,31.5782279944791,42.44929418574164,29.970913628725697,10.464280206275788,-2.5622176958297977,-6.935135912629589,-16.787196520930166,-32.505378895630315,-39.41863511841338,-50.74705254333778,-65.47940633716146,-56.257753926931514,-54.32915576357911,-75.91420280585675,-67.33027069207205,-58.767066749465826,-77.72502636008635,-14.438641936756262,148.33889915230222,361.65798465981374,597.2840273387537,497.7474413395112,-141.64485692481273,-589.2539678579523,-315.0557870192513,4.18860559969389,-89.44370418595665,-132.13028912740222,-5.709894390771396,-15.025745881304637,-55.999546473997434,2.5867958895806016,9.031934491429741,-20.05710650201291,11.520477563967736,24.78424578462083,-1.392972705151287,-3.9830278444949627,-3.2139279412343384,-15.705190043930905,-15.188963157881648,-10.876321347623074,-10.911358455994227,-5.4155052563492205,-8.518498360006319,-22.795504101599747,-21.807259373546604,-8.412805071037631,-9.033153477536715,-13.613819638377528,-0.9040591248501841,10.749210035154023,9.704944158785713,20.232620865949713,40.09332474765237,44.74019783946975,44.90354232905222,50.09327698564801,42.76510621501101,28.03577942937968,18.847429741552396,3.333099911272,-14.244324748517007,-17.54445536776108,-21.464071168364974,-38.8570985822215,-50.98991699185754,-45.909958467726945,-36.097727677686926,-33.30943157503789,-30.196955501068153,-16.712262627584625,-7.9157304155269514,-15.304408777964369,-14.388128351176322,1.6442076393133505,3.3190309713017943,-5.313657560498962,2.2982413481414055,11.768333722445407,3.845463113279969,-6.24198886207679,-5.83618833284858,0.7468707178838567,5.751693602391919,0.8009017392897739,-6.587973286995885,-2.5103892276546667,-2.088237345339847,-17.523772776441557,-19.67255810646634,0.3481940911292192,5.23566143826094,-2.9912942861931064,9.943785073933883,16.506846731668624,-15.200685150050393,-37.59386492347926,-22.66099164380532,-13.859060652578616,-20.569730062817428,-13.188110377877845,-2.60089094304562,-8.116774350599204,-14.21625177081372,-10.135956301278835,-5.972475046131368,-6.547357502760303,-6.756527142265234,-4.304755342541004,-2.5041972983551,-1.7020900760101974,1.0649056038154612,1.0349439425349267,-9.474772487952016,-21.222843301370084,-14.001398049074282,3.868973496453272,-3.8379709623445066,-31.501669237830235,-26.742835258066258,13.649721214595807,39.90265244267823,40.066465929780264,29.16340949128339,4.88445371941107,-16.256875277360116,-16.476124087093552,-21.071251446398588,-38.23741356494046,-45.25802464723931,-50.713945695624744,-62.683960640261624,-67.50650457123922,-70.67488823767417,-73.40334818872375,-80.10718156356775,-94.11128151358017,-51.210964266706696,72.62781753519094,251.39880357425304,528.4885227844131,658.5343634359486,192.97958179927883,-476.8016016329616,-487.3131089127707,-81.58891760045469,-24.830766088667957,-136.69927799542313,-41.28194853353434,14.617272085352404,-51.018709125297846,-25.12162221682125,21.60240847628439,-8.268942003614878,-11.150140339025397,13.012265032700277,2.5233787696125365,-2.8224937957817176,10.126956329398752,6.69630413126567,-5.908363877795912,-8.513441174475414,-2.322916978609359,3.2259821827983846,-1.678203475642432,-15.202702883071964,-29.126143120882247,-36.56366988203206,-30.339502325768343,-17.510375596462776,-10.445060757295652,-0.36211114724013926,19.285761043118466,33.10000344081688,36.57719005878539,40.66742392998054,43.990702053441105,43.00071373448672,44.231437176424635,46.412468159613525,40.989529089379346,26.115822772771644,4.47098635701178,-17.802220494574506,-33.090736104309364,-39.71163051028836,-39.50943304090109,-37.466475317047355,-38.81262374464011,-36.59410011451213,-25.681424617785634,-18.27781760568532,-17.606364044274933,-12.274537044705315,-5.073768294273865,-3.6639980218894905,-2.217496159407413,2.47737159322035,7.053764622153207,8.57925791521358,2.331082830741095,-5.182181010554363,-0.5106445300653633,6.7043419034906675,2.1821601147110288,-0.6966282252943916,6.842882210957547,8.252852936401943,-0.2705058677396295,-4.558317031378435,-3.75972295927051,-4.323788562741999,-3.8622109373286246,-0.9510274917185875,0.15080157835342334,-5.327189616432312,-16.45608834537102,-20.95590341525763,-13.125768157192407,-8.846114032277885,-15.40681584378379,-15.615623240230807,-4.555864209484952,-0.6169847773793045,-9.033870081303746,-13.951465210058817,-8.588401952053632,-2.6140759690685478,-1.0727562463481126,0.548068006774022,3.190383743403599,3.048143918896086,-0.911619548717729,-4.4441247514095465,-2.3181115525793308,0.18726394253878453,-5.793067150587044,-10.261612725651974,-2.908526927901022,0.849834535120026,-6.248103135953945,-6.662682267140154,0.05293759880577298,-1.1340986180120565,-3.9930919756935017,2.073432206655971,7.016234250493135,-1.3925225083173682,-18.41560366943751,-28.26755815755406,-25.46491300718085,-18.47710234658285,-4.149455954196137,23.299617117013547,41.18687603554691,30.31849420597641,8.042846166229449,-5.325199998926749,-9.045308775098745,-13.045350116463018,-25.725655967401977,-38.53038074167232,-46.20424665241474,-55.74396054543902,-58.80115593658763,-63.035769820649364,-81.7565867157094,-80.47351247036273,-72.33935735395222,-92.691230326251,-48.27843436468027,93.41539832262171,263.2447736379599,518.3012959449866,647.8228304808739,191.68113310984077,-454.59528944671507,-437.4032359943873,-51.95028557945827,-40.98716610575704,-159.510315342728,-54.26067996967501,-6.052204974166969,-71.78119172443564,-34.03268081728523,17.34334830497829,-10.187310935854207,-9.635530491000862,15.505011788342054,8.39724045482647,4.00635096184056,9.202284765693406,1.439147431532465,-6.084773938271503,-7.654317089022298,-9.650524582343813,-10.617067171930849,-13.477802762713269,-16.362090950977436,-14.844962774204202,-15.509058312932812,-17.238081288308994,-11.763029947271791,-4.578795907347187,0.17163753689804917,8.872532010174341,19.218443008643035,25.872218675891546,32.061352262373546,38.26043681815833,44.303857675481176,53.21104723695515,58.11348813874561,50.47912146998302,34.988474517806054,19.15363928577123,6.042392380587283,-7.104229523844986,-28.903390351818558,-53.56448770216956,-61.069807551844335,-51.142676601753095,-39.727448115814084,-29.35028587121564,-17.36421312729059,-9.649518604852968,-7.83746883931442,-5.022694816258548,2.02223134868116,6.867624494815255,3.1566396415878923,-2.299603217886175,0.12418508982228271,4.0210937891357545,0.47971078031390135,-3.3305287222433577,-1.900799217836541,-3.8249286460762963,-9.300254651918962,-7.483311939715183,-2.571235694571506,-5.0831758700584775,-7.635835075555895,-2.9416942960347026,1.7161519528222389,2.3823980932713855,-1.3322325436537845,-9.801734170566654,-12.72520312799899,-6.827506086353678,-6.246797483725656,-11.529294158403884,-10.311580440961189,-5.582551490893735,-4.3117494087358335,-4.088515815872059,-5.191442770901308,-7.995866777210001,-7.450163634718125,-3.5366851629874727,-2.3651291232088028,-5.69977333586664,-7.763908116709814,-4.190440311835285,0.5815846127478022,2.262309513110928,2.24686048633028,-1.4490102216957172,-9.7926822445799,-14.263143279778165,-10.93865547816967,-7.327326444713721,-6.95432883627824,-5.707835427340736,-2.5910133757428824,-0.7997252694434422,-1.0097468968200767,-0.7738574855367037,-0.3349427210552669,-2.6247561822117866,-6.1172323002781415,-6.262470723688615,-2.846184404572589,0.9688329703500624,1.912038874603664,0.4543924518514535,3.5881351734747415,9.745364225090887,2.115250357526161,-19.550736271135076,-29.483225042587634,-19.98491740606835,-13.076088534711497,-18.182722053781944,-22.09245720282013,-19.831042591099177,-18.9283752228895,-15.532244418368393,3.626275237947704,30.793554773691312,40.65506415485753,29.565447779786346,13.410350637693277,0.2708533944889542,-4.40485157430993,-5.115715131190825,-19.083736679609842,-35.94472690962526,-38.2284729326293,-41.32712127164699,-47.69868647502705,-52.596755782053435,-69.50060365003608,-75.7742437172087,-68.09888399933888,-79.3845947565417,-45.193210961068246,72.75386698233004,216.3654233240441,433.8770078431456,567.9024987304244,190.17753257906247,-409.4107933573031,-427.0904150469522,-56.19559665015637,-16.81194465529537,-137.8803771792233,-48.878621976317845,12.79396962920562,-43.91189773746487,-19.26193988280383,23.35327179836699,-4.279501650520004,-4.12422285704077,18.699302467088007,5.433930494314554,-4.32967359884155,1.6869267494571485,-1.2403414190942676,-1.6496183023647077,1.6400519550928205,-3.1293031760449956,-9.457842566763683,-16.003498771914064,-23.20789887139675,-21.933831405914784,-16.635960153578377,-18.308293330253434,-20.86520539531788,-15.208148073314806,-4.883649212208396,4.606184751408712,14.065728442496393,23.887547012254174,30.105913646555294,33.13373589464646,39.36917159317034,47.79853723171683,50.61143256248465,45.32968723946344,33.181789248075255,18.541645013069864,7.993531133917817,-2.7392471769630586,-19.1260176702211,-30.577767945994985,-30.842506931352872,-26.62510339878656,-17.068156240697554,-5.135473896927293,-7.1057991841905395,-20.873875080328823,-25.49010332038508,-17.072006069037883,-8.879579277341731,-7.571524661230292,-8.220981572960504,-5.7506779877316685,-4.336253746243699,-6.652554474641633,-5.254513248486644,-0.8488029453175017,-3.898480642125916,-10.40099799090121,-7.892330204655711,0.6886436850075199,3.2884176151932714,-2.522392108511246,-8.80941393414624,-9.505029747371161,-6.235593388269734,-2.0339823011182308,1.0107472739048227,1.2917486074767037,1.7129407917261403,1.928603960964674,-4.924623348979374,-13.977048732127622,-13.878364421281049,-10.349832562069261,-11.496387966233552,-10.662802821130708,-6.503849930225623,-7.0142273559364785,-9.645700708697278,-6.858649289341811,-1.952933285256762,-1.8695989689294237,-5.87912384444042,-8.988040186203566,-8.857716597905842,-6.985019407763758,-7.410434730906266,-11.26384828247242,-11.718077257864035,-5.651959916779317,-2.6520978611636856,-6.26679231619562,-7.586097994408714,-6.342369056865913,-7.448534603247717,-5.988231143549899,-1.519602260401319,-1.1670607056797735,-2.4273876539819295,-0.7474960784706539,0.14796103808985173,-1.4376658649430976,-3.538432414926975,-4.002165765775569,-0.7092836815503727,1.9808679886452314,0.9223635798556682,2.5705688114720537,3.505250497571746,-8.268239682781077,-23.632965995397434,-24.744515748410535,-17.40313744384677,-17.144623384520628,-23.191587676058596,-25.986675486503916,-21.49799363753113,-6.083442996978919,23.145899093900994,49.38471969984239,45.682261096973775,16.176250896725,-5.855684759302315,-5.649635223760326,-3.6623190325434924,-17.411119762559114,-32.15706498720342,-36.98930908317985,-44.37329136032753,-48.904491046657256,-46.39927602290363,-53.6448170197868,-55.20261590208871,-52.15999029743912,-71.25425705288133,-45.02123603577233,63.34337253144943,194.42175938539242,393.7195019722302,519.1281288517532,161.44708540230312,-411.99972126688044,-423.4730866041418,-46.962943389399086,7.063266828529905,-114.55256998277623,-38.93091757951802,20.49628032639069,-34.06703941231716,-18.813611036010656,15.902746956193251,-5.382086592310941,-1.6146564073439862,10.99720780300785,-5.535896532176968,-2.4342632667766892,8.682076137898399,-5.614320763271923,-13.388871016943863,-7.3153024484200095,-9.992434857376697,-12.000094552565349,-7.573077958415745,-9.620911233084136,-13.866614025325765,-13.069061981182212,-14.85278747011413,-16.370345796231337,-6.800451272482488,4.7427050544367155,7.2640552380958345,11.38053356782887,23.49830180692174,33.34621372075415,37.710972812779616,41.4237214348366,45.12315987676895,48.85661269600252,47.236344776146964,28.622942873111803,-2.2787944217561966,-23.988818799626728,-28.850626232301565,-28.87711037013285,-32.88504901567889,-37.585703429901,-36.54526474603638,-28.122449906470855,-17.3761502175323,-10.032170066788112,-5.604681540940323,-1.8691166090124476,0.7655611325036205,3.4429824970163363,5.191117257327258,0.624250286034739,-6.243865082143012,-5.847700971509871,-3.3227108034294055,-6.038206733402928,-7.59840679825086,-6.817275467983631,-9.374247977896088,-10.323796260010994,-7.014439254416574,-5.318084952551558,-3.47399516253925,-1.189101609675781,-5.029320047756173,-9.312496785067447,-6.041038120138058,-2.8066406585060513,-4.500292836347759,-5.152997144155712,-5.374041827526625,-10.325501534037166,-15.027178803295056,-11.604021179834678,-6.083613908436439,-8.996063034882088,-13.161485287744547,-7.626584949824515,-2.3583809871474077,-6.968464652790155,-10.340256924247214,-6.340458385621712,-4.895138946954553,-8.312563528015431,-7.346861038798679,0.44049618751534325,4.408230703801749,-4.15214128539812,-14.415096829511729,-11.346630482380226,-3.3630514860263467,-4.570114463651947,-8.607613271743219,-7.913957622888134,-7.348310597419342,-7.9753594954269715,-6.684759302037799,-4.354412560904006,-2.6073371656291133,-3.6129708754236347,-6.202190658637567,-4.954452523804169,-2.6362736173803167,-4.026257497364982,-4.624524480497872,-4.658175942088844,-7.345082516411898,-6.537888590317771,-2.861215309706049,-1.642829888406597,4.858600767800921,16.729949765340578,22.588998175578293,24.122322301685422,19.197198992082594,1.6454483001692441,-8.409961939225413,-6.426189205231134,-22.47833811170104,-46.45068782964901,-47.657742539172276,-44.45454741058427,-48.31496240550898,-48.661786899391004,-56.80432751400765,-57.34440507956342,-43.89437407657002,-55.515077124098966,-41.94969034786649,52.44395470576552,173.83610879300852,356.51338859476846,501.749308274996,201.36027610860452,-378.9833609213088,-453.6741857114266,-76.28642438465673,17.09440009161208,-113.46762968689795,-48.50247135444331,26.814216605896753,-34.45498382478516,-27.161495883966964,26.458241190354755,9.553650715501966,2.8804155823838746,20.452611875686834,4.450868550528611,-5.281791868686767,4.668844297186164,-1.6211334943525841,-9.007806413331368,-6.767008662165264,-11.765797544852092,-15.991104530479856,-12.045174996062695,-10.25584541583297,-11.391206266862199,-12.439854014284979,-12.505866115673433,-8.546766070786514,-5.547906075433254,-4.857026008069962,4.747055777688589,19.528983574958644,24.270201824652165,23.907688894408018,28.07048856250443,30.12452110034936,28.428176242919825,30.34299094340669,31.07793528545743,21.844306114460725,8.78813826204699,1.4855194630963338,-4.5083202119003865,-16.489788633667956,-26.818874060829785,-25.66666616718797,-19.254254129048977,-15.062861937773937,-9.64449550549973,-4.974484061785578,-7.267756577145189,-8.47807120642038,0.8188570479227719,10.159710371309304,3.230269689101542,-16.28353565052949,-27.087640779272455,-20.54551584752186,-12.4871444632556,-12.3703330269549,-10.331474610415738,-5.571576138504003,-5.826838893274502,-4.568059264800146,1.9795462728341864,2.2220607908847665,-4.248987071753028,-5.124436992093846,-1.4313180602156983,-2.8050294453942364,-9.187745024354346,-14.777802869457538,-16.053627127439228,-13.550667313271173,-12.287810587668295,-12.481168760217773,-6.979534219352887,0.5102758336328304,-2.3406874957520536,-10.263149757812812,-10.275507191399917,-7.43879281716594,-8.629131560701286,-9.049662542696531,-9.677386710492122,-13.53820645845664,-14.301733191417382,-10.317394647244384,-5.888732533848696,-1.206339310639997,0.3147828374245023,-4.969573113981507,-9.949852159951885,-8.205087906198857,-3.678110518643143,-2.457140019886518,-5.430186404209493,-7.240871833471942,-4.511259022018663,-2.608104718696236,-4.142331996440946,-3.8057829710385196,-1.8563521314731855,-4.461322937871726,-10.29174604964393,-11.996930780063554,-9.45560486445418,-9.653944505886656,-13.406590021607181,-16.583402151035322,-18.22402555606842,-9.862795998217806,18.33058440078507,48.059950340337416,48.76337546797721,22.23426768862856,-0.9729338175135682,-3.7719787685554618,-3.7785531216699617,-17.896433852045426,-31.235821858882943,-36.32309759343001,-40.45009599856937,-35.63765325921329,-37.183085027016475,-59.39798853189973,-65.07921406801572,-61.96707365075618,-69.91995221346525,-19.127516005232795,95.46012937004377,246.8716267113243,450.8153368370989,413.80695543978516,-105.48688089013451,-509.65061413381085,-277.1203526550803,25.536355044250467,-51.13528291098484,-102.27361158238057,9.76251834966559,7.4000486171842965,-35.773581822515766,9.169771468882232,19.28756316733491,-5.228338218327185,11.461034323485853,16.055241561431835,-3.206039507954447,-4.375620478122123,-3.700897379029346,-8.266320336054214,-5.246505275371355,-7.746290703356646,-16.830647477775255,-19.005989186780596,-15.994844523532446,-11.528792479992354,-7.269781336500176,-8.512962421001234,-11.353558898469235,-5.226498839408404,6.326509221971098,9.428897468483823,6.789257935231872,13.56640307064869,26.33133571588204,30.28466883087876,27.488455496524807,28.19494196560202,32.18603916538216,32.45901848637004,24.44331771409515,12.378152270354807,3.9356701981100954,-3.4196983872496336,-14.866803885353244,-25.797727126645594,-33.103700471567024,-38.700305602720334,-37.69287675628795,-27.185240603847085,-17.474931360048675,-16.258571032704644,-17.48920441735901,-13.488853265404387,-5.004543155314428,1.5903021162585382,3.1669212650636585,3.5275440995731238,4.044513187764172,3.1655423173642845,8.474069141156324,21.794797736594028,21.308641313398994,-3.1726263082225508,-24.66569492456205,-24.338814915855814,-18.160827024332463,-18.219590022141272,-16.944310432234712,-12.955399337256505,-14.317887845189066,-21.12517037191123,-23.535585130706302,-16.240712744351846,-9.087085803983364,-12.242304544082742,-17.520041083513266,-14.803611534470605,-10.254985310052003,-8.874974218187077,-6.17720365881231,-6.4839933119822355,-15.967826732962571,-21.047465108787833,-10.324319220678777,-1.4134077313014295,-8.03309770762128,-12.655954174350232,-5.924263104042883,-2.9671207444836334,-4.232021731314358,-2.3247947769417756,-8.46710536384105,-18.390999067081456,-11.925700458443593,-2.2195945142866265,-6.588433495057178,-8.946852318283753,-5.7534015310138855,-8.353183092787322,-6.229897150509874,-1.2403430452161786,-11.319115910058816,-22.50560728089083,-20.7794456471825,-21.031086779195398,-17.331089643792048,10.119023667588854,44.570513630236135,53.22951066342167,27.363457469614964,-7.97735800729297,-17.200877941907844,-8.857224376891025,-18.493659724081965,-39.26560514163898,-52.09825201083544,-61.99866038278586,-63.17577207538563,-59.622572173778906,-63.563852413100705,-58.37937325525495,-62.57009846848257,-83.6247053143407,-31.793087366433163,109.92896788811923,298.6942163093303,534.4201012425881,525.0797716472966,-22.367318191116127,-544.334903668009,-388.77487998296505,-25.825894709961624,-35.353814984575344,-101.313307957031,0.9980909036798593,15.289584152382794,-31.291584584899013,14.642263097590387,28.530519723302,-22.062586453536994,-18.465268620572655,8.525830859256418,-3.535136076363031,-17.44281021622159,-17.590956168405796,-20.74994739163373,-21.273498401180476,-15.532816980692841,-11.361710938426288,-11.704878269751797,-11.672873186797332,-8.569379799141897,-8.694279852378486,-10.75881797213426,-5.161376284468947,2.515555763006744,1.82740062639562,-1.298709383897506,2.169945005734639,12.208233130266583,26.071901467425512,38.68584968579605,40.45123833534197,30.539244411560695,26.877578722014654,36.28806374955598,33.583870112967944,11.096319279398713,-1.8447696188952394,-2.37294872509011,-13.933989629409666,-29.05665994638767,-35.72506975721818,-42.24692044014132,-40.30752697879461,-27.843765911332156,-29.331165825323474,-35.58263987551821,-18.502759368919193,2.041072865097954,1.5571487110795097,-4.1848193814108505,-2.782275328260644,0.6371399274271017,2.5529749572199822,-0.2992388173466356,-3.9706447878611097,-2.5353740692676734,-1.667715629193669,-1.169717207075104,2.0731764599785265,-1.1106503748657914,-6.006850369276124,0.07574730996272372,2.9131026893577268,-7.188859012372324,-12.51682917795869,-8.25743729937529,-3.7743369132581766,1.1633179507074356,1.5427522601393164,-8.149893411492231,-14.934653330748006,-9.269235926361432,-0.5753590503035895,1.1406891486015134,-1.2631468046630072,-0.08007409702358004,-2.256918761374717,-19.597275779810595,-35.383403758102716,-27.034417075205397,-11.35439126315124,-13.925725919558648,-22.921477836484783,-16.449880903570097,-4.244331965944781,-7.092781616410303,-16.57134158166788,-15.017283237647458,-11.903164117378939,-16.199373419256606,-15.862394528327606,-9.21875779222066,1.3942354236126633,26.308563587314385,51.97870619090279,45.75256891418691,13.137729960943599,-8.156423230360135,-6.656441383346516,-7.923104836822997,-24.87981793002846,-41.45833436316525,-51.09280533105902,-52.951787880531086,-46.367350182269824,-55.02236937284263,-72.07722041874315,-67.69724785577773,-73.39376631756173,-70.884889325121,21.766572439778884,174.86110566975498,379.7631090929875,584.0412932815553,383.2821779028478,-267.0710661050277,-561.5313357246563,-219.71317480947437,9.248088616273755,-100.48245978566577,-81.15361485957504,26.56896274476096,-18.51188773231459,-39.436373687339675,21.709781685900005,14.450065787501801,-5.258299395143703,21.95005015159825,19.683646506589092,2.731520481436098,11.249475137948842,8.446347432185066,-2.475858932085412,0.19344106277282336,-7.792569687465738,-23.562548602511683,-21.284228657304432,-15.45877730408878,-20.66543410766205,-20.492896676463438,-11.054642380053068,-6.1500685539860624,-6.391501706838383,-2.6228219193763733,10.187465222004347,28.398187179840477,37.421132711151735,33.61770470409435,36.662054810239965,50.42705356133927,53.54716945888598,48.3061631773496,50.42949464895993,39.59061338360748,0.38030157585290914,-31.61988520914928,-33.01760005906207,-31.58716647250536,-44.01811628019608,-50.58658862958252,-41.34726333398043,-29.54353634346181,-23.466462284352666,-17.56832105190005,-9.753499861126333,-7.634333176267543,-9.035961997268343,-1.0988341987581975,9.637180469470524,4.935471158721787,-6.919577170178748,-7.064533746755732,-0.5860377280860583,2.888604506479238,5.721978490816701,4.7670733982782085,-1.3365452276970045,-1.4845392681887049,3.662088988693356,1.9387249398130528,-2.5483896455914667,-0.7810517335629914,0.22584680619562647,-5.684059207755626,-11.054489460065437,-8.827854360794626,-3.1104817427174805,-3.5522507437113546,-10.523112381721027,-13.804513220142525,-10.351611654422065,-5.813043224772665,-2.0173955260790972,-0.9202614672861795,-4.783735977826813,-8.09915886455905,-7.162746124207391,-4.181933255895839,0.5679368946547037,2.260831592432025,-4.610682882328746,-12.751652738440866,-15.892422232920119,-16.369212607911088,-13.245500481994643,-9.543468819359976,-11.198739348408491,-11.799036723932595,-7.873084572296786,-7.399145404350005,-11.515269499181363,-16.963281842774514,-16.8870335077736,3.1762122971035573,34.26649749537415,45.2385547688459,32.06819282918201,14.182762497667834,0.9105017366086514,-7.5266653472829,-13.759663713310507,-17.17328939105748,-22.280843230826108,-45.46923975191481,-71.90342547883346,-75.95455372360156,-78.84070571737593,-81.03683914217018,-69.93507854476476,-83.990888774765,-74.64703210717443,39.64601358122667,189.69675539085802,379.52152497645466,570.4683356209149,339.5458964719453,-299.84469265807616,-516.0223492973997,-151.610924547595,17.129478553839807,-114.5831450256575,-81.45979670855431,9.506348680721295,-39.492115884893096,-38.89592530677698,19.8418504095242,3.4641282007812357,-10.850506798928814,15.052415585318712,10.10967544396923,-4.633321636843638,2.1472650156910262,3.7223987444243365,-2.220809344490341,-6.357827728227306,-11.696150485772266,-12.833964879391091,-8.788153253045408,-7.54584995529016,-11.551355885749757,-15.626172060619336,-13.41296335203301,-7.235191011714388,-1.3684452537598473,6.277526468319553,11.529720955306917,10.928404133761068,15.318043702437532,26.488808098209358,30.928558892181577,28.50527768481544,30.020562115041525,34.93950085726004,35.2469947619497,26.961243208796034,12.511813025636773,-2.5571527969017724,-16.246851672123277,-27.246948356425577,-31.188358718702823,-30.048023070405577,-30.907516071688228,-30.94968786045141,-22.040265860658625,-8.67062328769723,-3.5009379076383116,-6.436316285455678,-5.597458593719357,0.4403399605835192,2.4114296609973254,1.4260722942830029,5.451787865619844,10.094623990556693,7.178924680753813,2.7597659508862318,5.434717489071577,9.650281110518646,9.523851266963042,9.738686686274015,5.525530986372891,-14.803363118974753,-35.59374878949303,-30.940574611861496,-13.555081340471517,-10.68265834355135,-15.684240133221058,-13.751556594060723,-11.825234846648888,-11.709153175718752,-5.543456124734323,-0.9764638672192305,-4.9424650383196145,-7.677444663301657,-8.123269163956838,-12.353424342842082,-11.638624789186455,-3.5044217633044497,-1.6498995922013808,-5.2672100917782405,-4.259211235312012,-3.1375207414936774,-3.70507469171422,-0.22406714992924748,0.19599670951591364,-6.130848423441595,-6.569929049554537,-0.9246784967688821,-0.4343646454097012,-1.6867527928532997,-0.946084519715404,-4.541647847711626,-9.569812504915024,-11.929453977757115,-16.831132319868313,-20.427336588470176,-18.223424204703825,-20.65546552630278,-26.81116075232752,-19.603284970479887,1.9247495153777185,24.698966587553176,42.055888186642306,46.52216263343898,28.733625789680755,0.9828384413051925,-9.7597322546963,-8.373099496977131,-20.03517556038714,-34.40045645438158,-38.75530538883419,-49.50518150947235,-56.70007596738828,-53.15945760697222,-62.77351939695714,-61.11889074592702,-44.43534733160768,-62.828006928607046,-48.95571546836939,60.813610276762475,202.39711391261847,405.90292393834756,534.5227057232835,173.1739637651998,-414.65814337269114,-429.26303963861744,-43.22155760310112,9.646256363593395,-119.23707900558486,-39.36991197350564,23.925995183207093,-42.00162455310775,-37.48895422375691,1.159115261432948,-16.737872580459378,-14.386772346785921,10.891500691373981,10.416439036358243,5.953906569116569,1.5163322814256421,-12.767953661415968,-17.002355382716676,-10.761603395908978,-9.348582148062892,-13.218772973241453,-19.049868039804508,-19.943649422980354,-11.025029813031448,-4.176530822024511,-6.0398694537118605,-2.7145161461325618,7.781423850044385,8.55262811290237,4.249082262462602,13.05654115055496,25.276521796940095,28.36089279995073,33.51424602298343,39.06718641966784,31.23731677029147,21.49175811156982,22.97653727650432,22.90967986296041,11.575836944317254,-3.330712139231818,-16.38274601582537,-28.157376305749196,-35.519366395983596,-33.83842696308787,-26.239251256413084,-21.454182811392158,-21.415328591224103,-19.130073445903335,-9.236667763736806,2.961247982668591,5.559867388299779,-1.7415905617688345,-5.327718771049427,-1.5112661392852331,0.04465793657454942,-1.7906791376041333,0.2754048857970961,4.702275595499305,2.719096370897354,-4.285075857812271,-3.7146338555263743,4.417273499071403,4.907776258759346,-3.540493281506869,-9.803083240272846,-13.099774067386905,-13.770053748751629,-8.492515230872566,-3.472715197962735,-3.13881392089173,-3.171395883999999,-3.7862931843991348,-4.056582258453162,1.3005028311901965,8.637470275109358,9.524842509427035,-0.96926313780728,-19.403902905896704,-26.980202658893774,-15.578402620970493,-6.760620379815169,-10.309632684781402,-10.99807665148083,-8.810334159578346,-11.610716123338516,-11.647862286877718,-10.076062865472714,-15.066408733845833,-15.408914798484279,-5.2878105158609205,0.1276990561157092,-1.8375451566987735,-1.2050321734564822,-1.342072299383144,-6.232585806748297,-9.085724074178529,-8.666140894538366,-7.342707119773863,-2.498875741770613,1.3758282988209007,-3.8617024144085264,-12.36864906022987,-13.944314014989308,-9.882077510285276,-7.180068034255033,-9.95408621907782,-14.859716405540158,-14.281291405886396,-9.617009267247312,-4.889233180293784,6.924118581033156,26.742822328573865,39.077168055120865,31.109028872657895,5.877416495793451,-13.159691337558886,-8.003449484757663,-5.113646531491861,-26.104889373273085,-41.584741269541965,-42.75998322356567,-48.23053976272777,-45.28838995680448,-39.72556782743834,-49.657828971373824,-52.65961151842603,-58.27475596944803,-64.05177028340121,-3.0120789816899958,107.60203600200452,261.9992425232675,473.3195775594493,399.42947420347184,-151.22885974381566,-508.62693115781326,-236.89919024281517,29.813845073221984,-67.70713727890858,-93.21683599381524,19.394857106756056,-3.2310474558602564,-45.043916758483114,6.59948663852342,14.553692921842716,-7.8832771100087555,14.544930208362686,19.957635220673936,-0.8165713765797555,1.5524969884270021,7.45774495659916,2.3837769618781124,6.106806105242162,6.175188136986529,-13.273900710345544,-30.278533082593306,-26.444536540637472,-17.080743362645322,-17.88276177040715,-20.701753627616096,-17.13979111043978,-11.332559844340295,-3.4540042282735057,8.981824185511297,19.71385275408633,24.40929284746477,27.379879698339888,27.90372334595204,22.359540433498466,19.432273104043553,25.14564444353004,27.146325592031253,20.006430747011922,15.035695604050467,11.528445629225793,-1.467960106966724,-18.654978950267886,-27.5971908387366,-29.072400679849757,-29.07431483918167,-26.025257687654864,-18.02409327551154,-12.976317681177953,-15.55784678605474,-14.582275673955742,-4.562581893318786,1.9088185220680387,0.07256178404743352,-1.0421467812070162,0.7441478013731553,2.69732947903844,4.153338129976721,2.222222361583623,-1.68845010817844,-3.0493098623939954,-5.394187062604246,-10.102973452538741,-10.137628579270174,-5.9847986396597666,-4.802923299187118,-6.4161005475305295,-7.4322257739008855,-8.14191270340585,-8.281989716990662,-5.846263751869152,-2.1217220937863956,-1.9696177485184414,-6.300768044678538,-10.395184437552281,-12.884944753053208,-16.09371874254721,-16.83666169664793,-11.203289516209598,-6.887942529587841,-12.611860466361248,-17.6853389316609,-8.538097613746402,1.596916269640424,-3.5866386957082437,-11.51988708616414,-8.744396895486469,-1.836755482651112,4.079391160226425,6.503945657377573,3.0124783638884196,1.7963183311707827,2.522109910498113,-2.5265251029580913,-0.0637762498234693,10.474627397312087,-0.3040796992760946,-25.240789587068164,-26.743227975944812,-13.772497988075457,-17.719019745018745,-31.292443606764515,-32.97611752382908,-22.814536291983444,-13.872314902345607,-14.250087901841404,-19.61062233453998,-22.802384072185422,-18.991470953459405,0.0020945982213396164,31.05654698775003,51.08324715843297,40.257468407387975,4.389567405467282,-22.302243233204493,-17.287476579495692,-8.394341733228368,-19.730261358465363,-34.566790561297445,-46.817245706316285,-53.57602495297229,-46.45505407214351,-53.422813180964866,-70.92940422133279,-63.32126046415665,-67.41888485936632,-73.22546719019525,6.741334105976449,154.69715311869982,363.7707411471719,564.9454315358054,353.9307273284895,-282.9016797542896,-547.2135419677544,-201.5667419472992,12.916647050262227,-99.17154433042299,-78.95307544811426,28.382545740984078,-10.19075295691141,-31.866212329340463,17.532520386470445,4.890979563185308,-13.32376186237746,13.675077808291762,10.206694213895968,-7.9677181694323345,-1.0757508328827772,-5.247296343485798,-13.42120353887195,-0.7863471499424968,-1.7830021378859708,-20.963900188816815,-19.992481444001072,-7.447656480942077,-9.206584479147534,-12.905143952912672,-9.557167290811355,-8.321612334153933,-4.4652810636600675,7.809746926598969,19.884554040138504,28.29376307215653,37.769398406961315,46.21012276209871,42.69119747971452,22.61293610352499,4.113470780052393,7.809031154981289,19.404044741506798,11.062136148958059,-9.338676391630912,-16.44554401731019,-15.272965209046227,-23.79232177063855,-33.140193019218295,-30.2909587182372,-28.210752095221785,-34.22608057687387,-32.727814984359675,-23.676909122923014,-21.25961181854664,-16.9219000001058,-3.6401841722347292,-0.23607703660875856,-6.957750490111074,-2.1813398501783148,5.329143276993717,-2.6544653636790336,-8.417250462963437,1.7769096772229709,7.969445798600564,1.2735822805497996,-3.956633451140309,-4.389421160402488,-5.075359569754639,-3.440937195721137,-1.7142031381769947,-6.259742928456587,-11.085124756581518,-8.70155074031134,-5.987800413816009,-10.25527386547722,-15.721688007360624,-14.504168695438354,-9.549234000447488,-8.660470435999313,-9.320443398685578,-5.409206902977054,-4.568766960004439,-9.2278924309318,-3.2597794758006486,8.910349673985433,2.372283626970912,-13.776792324517842,-12.786228897414514,-2.465684482165722,-1.1061567911099477,-5.411106522098489,-8.698485606298345,-10.842323278215392,-13.193117798590658,-14.887507235843263,-10.395997378648792,-4.75424627650434,-9.140255017616514,-12.853818491870177,-5.775309324284798,-2.417158282198086,-6.464913880011146,-10.157573140547516,-20.100544579711638,-25.960365650671513,-1.73249366169668,41.208773649671464,65.95983404137633,49.50637025360443,-1.021317640994937,-35.004822729169696,-23.194663814225677,-16.315389295061294,-39.32196212979157,-47.78664684956645,-45.32376146032776,-58.10509384077071,-59.996316029386264,-56.5602194965826,-66.12265769428681,-62.55401035267229,-67.63372182606852,-76.29478974392957,1.6488986886103163,151.71196902092305,348.0803976036169,566.1047456946876,435.26250960781135,-188.5461924323993,-563.2961573157353,-269.11178789723346,9.160805405748295,-83.49953030435111,-98.99591749811005,16.845194839099435,-6.501230561977877,-44.238492259268135,10.033264921911,16.140681498667572,-9.839281699502983,9.043899477465164,17.94598278592836,6.410766693954928,6.5080180461791315,-2.458832732626407,-15.717942245653155,-10.705460302886898,-6.2959335444544395,-11.05213926196237,-11.020526517670099,-11.02314928791628,-15.485190370065652,-13.087463199362395,-4.646171174201829,-2.230112700503799,-5.21866725868127,-3.548001578643837,6.348117454232898,18.393954527839444,25.47170952733437,30.351952241281076,38.00437555700514,41.20090549265185,36.59573032244593,35.657950621519916,37.46288710195078,28.873433584539463,14.887324160757384,3.2590250175178457,-14.000884853118084,-31.242853607703434,-33.21854020437208,-31.767927917796456,-40.8103704065393,-44.009073327200426,-31.553000523484855,-19.19131701423087,-12.933626917794893,-7.019369134802112,-4.556166228359407,-3.278882355050401,4.563012173642333,11.882446016147027,14.910690536378624,20.099280512393058,14.715085387057737,-9.721744036855565,-24.748418924931343,-15.310081478661392,-5.735932103347185,-7.13042520570097,-9.033011307334954,-10.600374926235997,-11.320079226733963,-7.666122999941583,-5.976263702789112,-7.6438888937200264,-7.041863156260309,-7.35609846179015,-9.186142296442712,-6.9663918427594815,-4.242529538062602,-3.9256152755108626,-3.057820582795669,-4.687047247338729,-5.381553211824473,2.546675139224745,5.399339840733573,-6.040764741224953,-12.610506829032673,-9.038084331863738,-8.266626276991138,-3.57711338394555,7.232715100012772,6.1724064996976145,-2.9985520145607065,-4.3905697649740105,-5.4566230127053235,-11.992221066800365,-14.203675028586144,-10.868173226733363,-7.476492079487379,-6.256645550683912,-9.387161945921525,-14.437352237367621,-16.63666725003883,-16.819463505256486,-16.716118150403265,-13.394690853905946,1.09430540549999,28.231250654873822,49.79028858321301,46.96831510614217,22.734091601599555,-5.485686147989757,-19.86514305183816,-22.198739397793403,-29.013862064461875,-37.370089594372246,-44.12775246442698,-57.506839217564284,-61.626531147921604,-57.796567933398094,-68.05709304114731,-68.93766060161164,-65.98670297568702,-78.48693112751555,-23.809084649963,113.32527300207116,279.81257155909697,513.7269440691778,557.4934543829334,48.16524400616725,-494.00942093108176,-355.2485532634642,-3.8445778953821765,-62.09027131891603,-161.6931535945981,-40.12136103004368,-7.470707051254195,-58.34003577607852,-12.07708888201183,17.214348376833428,-9.146763413716581,2.4795064735889234,11.27496850411097,-6.899649135457489,-2.155727658354925,7.607851791598919,0.8360588458971705,-3.742430963665699,-7.582696042760331,-13.301955418204157,-15.968596885734682,-17.85447497489188,-12.706661648014459,-4.952556283350922,-11.00668114644084,-18.85243202496989,-9.78074172390226,3.958415537065669,8.588744977580536,11.237550248465174,16.69602299063326,20.23050498109587,23.933035489246897,33.19073933334387,41.4696819575842,39.80722880848073,33.4766863282779,30.63441655522702,25.06259772755449,7.909008964966647,-11.357591722136519,-17.168651997285036,-17.63272516975314,-28.999084058108384,-37.795591603844954,-27.154024208256295,-16.54429587356112,-21.344243268805876,-21.822324806970876,-11.034523768166382,-6.588463724387989,-8.0272419894546,-5.701063017038914,-4.853284737054617,-4.8271715008753375,0.8924563373983689,4.342656969278201,0.8734679861961876,0.6873076701430225,5.653425995856956,5.634860156001762,-1.9527604547538164,-8.534970262330477,-7.386079474887612,-2.0390780010708234,0.5043760410787588,-0.49910732698052485,-1.1725434960209729,0.89530508288561,4.093518345474505,6.404568456759969,7.851918782139135,2.269122950180229,-16.079438668733793,-32.23542425289146,-29.088609981497193,-16.60047073866117,-11.269696703662728,-13.652193513099952,-18.312347986044482,-17.93016198164464,-9.01876132745111,-1.951475952272414,-4.465302650974243,-9.87469495686559,-11.630117393520752,-8.582500485405049,-3.0402112742359204,-0.858774432511721,-2.174338308136715,-2.809501793270007,-2.4516435450043392,1.0871272949571384,5.897535811343481,1.5143494362031102,-8.168762204628116,-10.359296652336049,-11.157967439431053,-15.441845824444325,-12.800040015037574,-9.677151510371772,-19.110443445831983,-27.11402172409086,-23.757307796355057,-21.538060973162704,-12.613221672792125,19.693828360676022,49.929272949937584,45.84608624754831,20.548890172165294,2.5456774085815352,0.6179524571006532,0.8686840368134661,-18.711901182354097,-45.32805445250628,-50.28435105863305,-48.204937762829516,-53.378173387450744,-55.238942699818494,-62.552941361982306,-67.03804877584335,-61.99237254044153,-74.6899362642233,-50.27175045473741,62.69408949897981,203.57968025601224,401.0883108494654,546.7216437384053,222.13438625287148,-385.9697302548734,-462.3290598930242,-78.76025219252591,6.458820586054504,-127.23871022621414,-55.03173270166772,21.770582345825986,-39.38055877351725,-31.509201264873795,15.296372135675252,-5.779695154625738,-5.37079970031831,22.817743609670483,11.46843760486897,-4.395476631520227,-1.0158420825074614,-2.4289150758707905,-5.1893884941731745,-5.282591366860073,-7.172223121492491,-6.422769192153851,-7.2128667650069005,-11.400131886688763,-7.171137417328032,3.925171933619489,1.1693587908968652,-19.124714400243054,-28.031304761187904,-10.528895744499618,6.748412649838254,7.450067075920342,9.11603609849984,17.80200853956579,24.29048789004085,31.104520480128365,36.88137811512491,32.90581338061902,25.557439890319152,21.59617511935109,13.472230130906771,0.47029417404645724,-11.102283972056162,-21.961009754404657,-27.79648199427725,-22.83775131609196,-18.788573101390405,-24.12962369664008,-25.21516588206272,-14.146417589858359,-3.731044690175052,-5.140427631282135,-13.532759512363562,-14.971850938208682,-4.601811636921854,5.157660666313019,4.879178720838129,-0.06817637360776807,-4.833986864038174,-7.317903273832543,-3.3480721565027505,2.006582340236517,-1.0552688632257876,-8.36288237047198,-8.863485269282503,-2.5475039917780373,2.262213529792711,1.2974103518174118,-3.3394217858506074,-8.540305050814952,-10.759537251488725,-7.218678398160513,-3.6966938333422252,-7.194090203486073,-10.242578218885024,-4.926655112712325,-0.840194542416878,-5.290928813824818,-8.690891621731817,-6.4246222606017955,-7.2185378648500365,-12.640390119672144,-14.002692205417215,-9.908943833072216,-7.106758574580915,-7.60541888545348,-9.233430071615919,-10.659728450050107,-7.2892686785798,1.6568724466437992,4.381027086194163,-1.0871478603814868,2.3701129581194307,13.756220691030721,12.34130537079248,2.8013667662782424,2.2957929108919757,-0.8013280160401095,-17.272966912836033,-27.496659890629,-21.670061973190293,-17.750482027877055,-22.51764093863118,-22.68873270225218,-15.706776464535242,-12.349277236019727,-13.717571062075123,-12.777429441422255,-10.703393596510299,-12.032149360505949,-15.78862529298548,-17.952950879464904,-8.19927540404456,20.2301499972345,48.40084599418501,50.631395452240824,27.509348567315847,-1.4258560576934354,-15.754351127940234,-14.072437570900176,-19.10900226011568,-34.38972656741598,-42.84325812379653,-48.05295053278085,-50.19963515816132,-49.064485468493395,-63.04249325253028,-66.5049049564175,-47.82018039653558,-61.7126761509801,-58.95705790722248,39.501022320762885,176.743717928811,370.09726940938253,530.1304106183346,238.482266342923,-365.7789221375391,-468.9784877671274,-89.47817889421333,13.518066540399595,-118.37092635724782,-50.7299134325277,29.889458222953316,-33.62366084703411,-30.93491188402575,18.9932298672219,-1.0355516566094707,-6.347159110262821,17.613380203919984,8.567653275718031,0.26303100361786846,4.563725982396907,-6.142337359876423,-10.367225958956944,-2.1784979186982714,-4.872037916725674,-11.086140177857406,-11.313430686414211,-14.411663947168266,-16.915473432957512,-12.090285696936583,-8.731431595469756,-10.265532008475883,-5.234272082642452,8.340708374032246,19.550771710027796,25.05742268132704,24.95029838754225,17.939685111058054,13.612326065927315,16.687073940270544,17.12663944640401,18.398323516450905,27.55253466764657,27.661445269570677,11.891258572595186,-0.800662011236069,-6.767769767135778,-15.657301400096596,-23.112229013397183,-24.304755141472704,-22.20807039954469,-20.47728963167514,-24.20391762527775,-27.952375683250853,-20.315160955520657,-9.59234904084498,-7.480305575284557,-7.173806761531079,-4.739238139794658,-4.1693450362163915,-3.4699426665910025,-2.9555928148558586,-3.6635990042401385,0.0024994029500557957,5.250087877374533,3.5640326012077175,-1.2488861033708822,-2.0180803319879175,0.5508395116288511,1.7787455045082865,-3.7588227524771494,-12.353179226861137,-12.714267530302166,-7.409305396218674,-6.018284765685674,-5.7522960585635445,-5.931314781190489,-10.919213550208767,-13.172757204720352,-9.15397671209086,-7.164456453087418,-4.921333460273788,-1.0581827797902097,-6.236551809974397,-13.445426398231469,-8.264645105960057,-1.930718431832462,-4.116244593873271,-4.589660588067948,-1.9972000680800601,-1.3637765237008725,-0.5665737800342043,-3.509561118138869,-11.249903156188779,-14.1198723879169,-13.49155121527525,-14.543152091382893,-10.420341039589335,-3.0122830595586265,-2.5257148614393437,-5.076741987022682,-4.0723616035542705,-2.4144003118902955,-1.4547244378697801,2.066128621891247,8.29654589993712,5.814853331317213,-14.04779189605238,-29.42064335636688,-20.31326088949204,-10.99742410763752,-19.571109427869484,-24.700730323170372,-20.714365944252652,-20.762784857783316,-14.732128922573676,5.170907061683955,23.86639491594382,33.54362568225244,32.709862672743164,15.580861316609433,-4.294411826000122,-5.588695472221293,-4.0796097355475744,-23.725789801401728,-42.67941609197648,-43.474987545578514,-47.32442962958095,-49.67616654979689,-42.887407242105354,-52.167761276791936,-57.72419794868614,-47.01243213580668,-60.90672849795239,-45.57701672931883,54.68430679027033,187.01323936420062,383.2855133802082,509.9889193652077,161.87861095450285,-415.7804554715975,-439.7960464072236,-58.86284022799679,5.5621807631282465,-115.90782274575623,-37.928476745119234,28.341383812673172,-25.047200097082786,-8.917833487966291,25.957662018490495,-4.611167234037378,-5.72273754829187,18.240275730390124,9.00025982326406,2.413986858147682,3.8250231833646513,-10.590081070623718,-16.189401145950185,-6.939691392304587,-7.060103242395556,-13.959921378384923,-15.292840899685425,-14.598990294074252,-15.178826181577843,-14.008846131243175,-12.315033354206529,-12.71813781217667,-9.78303002951889,-0.3360674909438095,9.468133474277852,18.272295588450152,26.741380194675124,28.365631677880806,26.298892887956754,32.464600289309864,41.4781724225146,37.752875173648945,23.157100295654885,14.020915575280902,15.320857045632694,12.610162825444743,-3.008159709784993,-19.102603914738477,-25.67700663115239,-27.48853204442785,-25.548028642616764,-16.639156625977268,-5.255898993575954,-0.49218099735843346,-9.710239991729145,-26.06259241339575,-28.475035687531804,-16.125952406220573,-10.689271073331685,-12.824181383631469,-8.533816106356001,-4.4961416332009065,-7.6111062544174075,-6.933726975766184,-1.1736373056094411,-0.6248495195972161,-4.3333893098929614,-4.94322991156807,-1.7387688593451838,-0.24488769084330286,-4.073108255507323,-7.273999053226703,-6.275576502684116,-7.099641155260322,-7.141444382546084,-2.2102261120509095,-3.870934041512701,-12.91481240949281,-12.226446589031248,-1.5667264075084297,5.455624861090687,3.990085707504061,-4.3415374048821285,-11.601731034320016,-13.403350447315589,-17.97946026337116,-20.97649884258927,-10.979720620485875,-2.4521757024161808,-8.005224360093077,-13.463906717050621,-12.20252723028294,-10.655858088287463,-8.663505140504375,-7.417436018030099,-6.657409528464694,-2.7719875532789864,-3.969487034550596,-11.995360336056947,-12.446490631858481,-7.560593345739578,-8.59275697717024,-8.826605346735652,-5.795500125754618,-6.058541531556166,-4.678284380791439,-2.4393359527480953,-7.016956070461237,-9.026996513788383,-3.8639597713208556,-4.158248128212371,-8.982012310387551,-7.863341839550229,1.2450441301750406,19.8739581958722,41.388221507337484,48.84264258672904,32.83582938597601,-2.390594904689813,-31.181237950905828,-32.94123256378468,-32.91394086391941,-48.22666158330942,-53.39618502735782,-47.76554946088321,-50.85782519280748,-59.208819301563594,-65.70786009654087,-61.26643503206088,-60.062353215355586,-78.28790108610453,-46.764455952387344,68.48403394474227,225.11077185188267,446.9046466881594,530.9184369555468,105.07068228981399,-459.9839875501759,-419.83829349657066,-48.67614351470334,-18.488690961313154,-118.29313225970226,-25.68904372873027,18.733415368536704,-37.676191255605595,-11.908836744995345,19.192184739718144,-8.134507885688048,-3.3093550254460293,12.56187409223525,-0.41983577099337666,-1.5622907982938479,0.7820293703126566,-11.438024206218081,-13.959443469391633,-11.78377249935561,-16.855877614403227,-15.761488877073251,-11.553887869148797,-12.654818092267618,-11.227997443293365,-9.68092791118646,-14.232780430132491,-13.384214159992041,-2.859048521162164,2.4720704040390227,0.8546366131345642,8.162558327153842,24.89571920216136,32.952537691452775,25.658438969756453,18.874364643072724,26.192572490248004,36.4025491533033,35.53313630557273,30.4598735496877,21.676920040877448,-1.3857440789296858,-21.699203615909042,-21.6802241770392,-25.604362868605627,-45.01583981595542,-51.474315550654325,-40.225620456900515,-31.215886830754457,-22.101591547983215,-10.398610306877774,-9.608296092003915,-15.353033651760637,-9.94462152723849,4.088185168695102,9.71917736248179,6.509874309766117,9.362722590588877,9.598663521552956,-14.595310719013717,-38.0918340571047,-21.81825025312045,5.659803176911879,-2.2826686890794576,-25.958155090343237,-26.373712142090902,-11.098821838976665,-4.878898863236838,-7.7848653542727035,-6.574646236771077,-2.5573306107734943,-5.113581522904376,-6.351222967310482,1.1505791787794628,0.7692911000990428,-12.399970970850898,-18.43452458515835,-16.045251594930946,-16.86016584927004,-15.301384865749853,-10.659016531884689,-10.283526949167399,-9.303126385967957,-9.273992214208345,-14.003026082765242,-9.778637801832769,-1.8422851986001199,-11.58411414135698,-21.16005827537998,-8.73740464396716,1.9839035268162064,-2.7313651415393725,-4.885626396488625,-6.584768822735455,-16.23531866731215,-17.710978831202922,-9.400538663350826,-10.37500853757063,-16.782439804694263,-15.707837621732589,-16.005296212656816,-19.623934093507444,-7.699233860606517,21.733098975230916,46.47659376555815,48.790447144724524,26.49096551355019,0.5820177145878258,-2.041517897470449,-0.0005592437249113402,-24.479263019690613,-50.28380904988083,-55.46363632486266,-59.01944377447452,-55.891138869504616,-48.303379605625906,-60.863830053695004,-69.12343790067237,-69.91847878866659,-82.07799801621307,-32.03745065754398,105.30495713200757,286.4993129077048,516.7983151094079,526.9167674536965,4.053955847367234,-525.0199016135117,-385.8356620503529,-22.55331153283361,-36.0579085359362,-111.56750414646305,-2.71574396690621,21.524469799652337,-27.974262983031203,14.406596496669405,29.055408563780208,-24.019226807151817,-23.786919734582224,5.317143274007113,3.2474095110760643,1.9995371394621309,4.887903742687255,-4.855525698502801,-9.79796448211546,-6.369458670504972,-9.141912733262494,-18.536538824364218,-23.474827166988202,-17.48089637443106,-9.872758465963877,-9.74751544256351,-8.432808390141627,-0.7165109017812259,4.9420630370756005,7.443030128855865,14.513728386661843,27.263085144441703,36.862204919060474,34.14182903632731,25.236361671946046,26.462483591484045,37.5018797243589,42.111467899088915,33.4702377565343,17.942410013699657,4.002272980912377,-4.900779366835667,-14.21283486898401,-26.268142082758196,-31.464241300442442,-28.71490546811218,-28.40724748271725,-26.316465705442134,-16.153493855653014,-13.084122926896477,-21.021105665425647,-18.821509533124583,-6.315677569184292,-3.8085909453136964,-7.685320427116707,-5.343867600222456,-3.9928753869357756,-6.216477275768502,-1.8974461296989826,5.416978743770201,5.895141133099084,4.578760285390091,6.931800409715785,5.599054349107558,-2.2186451728481664,-6.270829377637776,-2.700447594776401,-1.339114891341307,-6.088676069430738,-10.307562114231164,-12.215520385497737,-12.952226807003711,-10.557574036289422,-7.440689753889811,-4.790089754018091,0.1899491769541477,-0.8811956716500848,-12.092936570997683,-14.096128222999809,-2.243465736266451,-0.05668180464287076,-7.781458630838639,-5.407532833479957,0.09838216203907457,-1.1664705015751338,3.7233100301478226,10.361663579853957,0.816388519219883,-11.19935088557256,-6.745423331735499,0.5251163184336711,-4.006906697536293,-13.310800664049523,-19.733579913356394,-22.41469904273361,-21.27901044699193,-18.924917583013414,-18.752451309082865,-20.341070812092827,-20.179258528862658,-16.832295777435625,-12.125259625744896,-1.3502657287499256,22.901775877646394,46.91801304212168,42.955602052101526,11.827096340357505,-10.226762316713717,-4.334216750376304,2.729367451791477,-7.100290267936127,-17.20456021018344,-29.677751094122744,-51.50959681825286,-62.02132870102202,-72.07932153678723,-90.92275619473111,-80.64565197258104,-66.84288393943078,-70.38356893314227,-3.7293276916618012,128.3104035773772,288.4285647811299,508.4211072079753,478.90617634189266,-74.75734406150687,-523.9059752902115,-298.00589268411227,17.234529295752267,-62.771168932223,-119.0057943640499,2.5865761210665923,4.61806026325322,-47.449851763677,-1.7438507180764597,19.214350116814686,-7.937429146677818,1.0691854799959222,12.867863589505163,1.5163515339828741,-1.741414747298668,-0.02116381898582098,-0.5473663078404041,3.319104202315228,3.4383336399529334,-4.094860466970713,-9.33145377201356,-9.259203514627394,-8.969875291764073,-6.8502104370173384,-3.6130242008145332,-11.761508851638201,-25.498572630719618,-21.36554107745464,-3.3955418687524785,10.608839071726141,21.272717343574588,25.542061115965268,19.497760635405292,19.267003989919143,30.613616177222767,38.10199709881814,37.34477242889444,33.237289609104295,23.063753935752516,6.026329507818324,-11.174387477044561,-21.23530261787042,-22.767499416138623,-24.156601179926824,-31.31285076958643,-34.40636791251833,-24.82611693187052,-13.140034305738757,-10.08003836722752,-7.581489533128196,1.0951611436383715,6.435093294194489,6.9934915100639525,12.566352367320958,12.007680491792286,-9.082764424298755,-26.869833812776314,-17.94224746664124,-3.800666032992403,-4.629692125320453,-6.884175418656081,-2.6318371829637677,-1.103455518840759,-2.905346106763986,-2.6257151058870214,-1.6610744574932603,-3.992480549329752,-8.883189140844312,-8.557035979018067,0.006653639813821499,3.8897377389865273,-5.106015144837681,-13.16124165228921,-10.486216016311388,-7.553744651929627,-9.445190559813812,-8.670225732848264,-6.642101797590328,-8.795725687201179,-10.43107931405007,-9.00771556200963,-7.37100679238937,-4.127160973208468,-2.969677256696613,-9.997944126794678,-14.365776271159,-5.250562984439829,5.16990979054953,5.305628546701591,2.5040995175434535,3.0432946967435743,5.371126664400878,12.355796612028271,21.221378342791112,13.112916868217072,-17.975926645803543,-43.74571794185378,-39.96681894725487,-22.622842444336207,-17.464908637326545,-23.375252875305893,-27.965154698714773,-27.991953441803467,-18.331942891044818,8.760906176004003,40.037547603031214,47.41395963723281,26.95173818822325,3.8296172797775627,-1.8964494337584128,1.4005391963654557,-8.416438482956398,-27.605807949865188,-36.305738550988224,-42.58608729732666,-51.05578023455576,-48.12417770682197,-50.82966295813,-60.03567761014193,-54.47784836207145,-66.86674300719986,-70.87426655551955,17.874629740757356,151.53910707689909,317.267375142499,505.1406899592071,345.3401442524993,-240.46895520548128,-504.4200659062742,-175.14440538880484,28.82730351847681,-98.6620092897848,-89.97617452478823,17.458367575207923,-16.451956678273987,-33.501389813467824,14.28739753432909,-1.1878299852608123,-11.22711997231862,23.923274945106755,17.079793180311007,-4.198136045804874,6.407628260410421,3.614151244187571,-12.4821908249899,-9.26928378398193,-6.680788988871175,-17.019170184217174,-19.401416564917422,-13.774968095269799,-16.51687550100133,-21.232373319051035,-13.505951557029903,-4.080195432266985,-4.610182993443418,-1.485028386634309,8.30638278413441,10.437417363580291,13.120538684200476,26.407234448116554,33.774626543542695,31.74927727068882,35.63310923802355,42.00442397270607,41.85345917989807,37.113943378712904,24.912427720394657,6.515585259363531,-5.355605492711474,-7.715615032772136,-11.625605001657,-27.902017989219566,-49.86984104904538,-52.53255017414699,-32.49777365052797,-17.86667471864065,-17.32263180034772,-15.286577363037118,-9.553314293326888,-3.6260612600961863,2.763291607959202,2.7541159531696504,-2.0910100989399236,-1.8987800800828243,-0.8840256571530958,-2.2726924896027985,-0.11244244821092408,-0.8335199008513001,-8.699346535657304,-11.55693520443343,-9.189603280566214,-10.555634927958,-10.05473376346768,-6.790283920986161,-8.215793977778835,-5.395786578948943,5.140115914367288,5.088361687643459,-5.656098579052578,-9.189549269256872,-8.746902481891464,-10.730496753700892,-5.253117567068092,2.181502093983161,-4.344748942051847,-15.000324703431037,-13.371213777786776,-7.203394227008802,-7.965013815893503,-8.345390432390852,-0.24213538706662696,3.924994792776417,-9.049971267256586,-23.815170998820772,-18.790603921248398,-3.0277022270360217,1.881861807019245,-4.315251676095219,-7.847643862027532,-4.7251135638442605,-2.9549081138201583,-4.854789309143754,-3.518222691171534,-1.5387237525026158,-6.5073146211642285,-10.407226479284265,-5.947657112285777,-4.685283532619263,-13.464227429665012,-21.18731457544968,-21.11322745566491,-20.136374512640547,-19.14468017637555,-5.143934939789219,23.6834436828055,45.99273069042647,44.6453493581283,22.470930540266295,-2.742708980280403,-7.2167690401388835,1.438612198483069,-9.954754479960465,-30.87906501181477,-36.485082253974504,-44.354550190572084,-50.313079786634475,-39.82242522654079,-46.5958379747431,-65.26932523008227,-67.206588284183,-74.36636543299406,-48.548042009564846,53.978367157379935,195.36803378594988,399.48919081665656,503.34370179067093,124.1541527181276,-441.8033227926394,-430.50175379160635,-46.87201324874604,-1.9595211727572845,-123.78384237002196,-36.152143909784066,26.861920724172293,-32.886769957554115,-15.127348636644207,25.264108297040067,0.06697769214958527,0.29187732908402797,21.14798517434302,8.822531475803059,-1.6190048609332948,-2.2403865950856456,-9.711274825296572,-7.534766273923486,-0.09811951187428924,-5.169171205543909,-16.496309712131882,-23.71612114871769,-22.12987995553681,-13.786247718055357,-9.597728680063419,-14.464335560293373,-20.04352113915421,-14.52683443792567,-0.243176830591179,9.024537817953583,15.416859062868028,26.627991384142888,32.80647487870261,33.88539979086255,39.991111169099156,38.2936892676606,24.35715723698479,20.59125228196967,24.376924111798736,15.790086399157351,2.6832917723421374,-8.562892663108972,-26.572487774027277,-38.06569388722529,-30.250820319683143,-22.410710970044104,-24.33974718831724,-19.218820884115924,-6.307634708960409,-2.406742338319747,-6.014807747389376,-5.973738443818947,-5.789750694092049,-7.177838392748056,-1.8534998189012057,4.5790194294929965,3.5486127584948246,7.132236784491371,17.46410988408379,15.457012088585344,2.942593448300027,-5.721342104735102,-17.476513809028454,-30.998222037163615,-27.65748715155709,-15.017921004285327,-12.384088494691467,-13.244421221702455,-11.283532728953727,-11.844211591007848,-7.592582429906507,1.182320210767898,-3.3875598219825953,-14.187820460169224,-11.09588634998828,-6.760508805866319,-13.964049398591492,-15.44530336577596,-7.546203763281962,-7.261894614634169,-11.241252795880662,-5.556609866117597,3.626161008519235,2.390296155378799,-7.450301404129977,-12.098157940972552,-8.690240548453385,-8.179152968585889,-10.82336193141344,-7.389536364659683,-1.85866276599533,-2.0588288549912495,-4.34238439737841,-3.753349267677791,-1.6313186541068116,-4.322248113451867,-13.989273732505996,-17.200736795453903,-6.779119446022914,-2.366795840303272,-13.765174999562623,-19.187927761602186,-10.24968138496466,-7.108372974031292,-12.509591483047124,-9.01128269865808,-2.6522126372357135,-10.285826759717885,-20.325744510686327,-18.944229848606533,-17.350608155224684,-17.247673854778178,-3.0915676217504204,21.70804746657756,38.70687371565437,36.76206274331272,15.14621162998422,-6.8697953731110175,-11.731173419081973,-18.111832309490566,-35.1085550508262,-38.97641955107143,-38.6635059438499,-50.89690018113616,-50.673741502474,-48.249660228931994,-64.94883564418387,-61.83458599194001,-56.7643009252269,-80.8068022844498,-38.638426104679354,90.531426238786,253.21769665747712,488.0364193626549,536.6662872229101,40.379767337756135,-498.8716937169793,-385.6594674964321,-44.74841594278063,-67.09349849729307,-133.912320483459,-15.032887533633115,5.264136986617004,-51.41816904801411,-3.829509182157169,28.53588224985311,-5.467583708026041,-0.9256785941521937,12.257885068671415,-10.901363561218144,-20.782353991699825,-9.952302993261974,-5.544147713033702,-6.300738541111201,-7.740388087711089,-8.830471876319113,-12.745347586981666,-20.800116205766766,-18.55222582247699,-8.819541037342615,-12.38186142377555,-19.189605552950958,-10.424256962537985,-0.07961341562959667,0.3233769999262228,3.700598630366526,13.380123725390014,19.971086979102175,26.670946217335644,38.464028286599316,43.93564039128122,37.536885506003465,34.19770235519172,36.56911578910961,27.045575853747074,7.920077191810816,-4.475345555539444,-16.88813130502382,-35.92626325009176,-46.72190719976721,-44.959821860340035,-39.14643843856509,-30.844968671349445,-24.96544525959073,-24.745388072229893,-21.739694474392454,-14.640804606262204,-8.272629759895365,-3.547347863691286,-4.914012365589043,-8.212274648209132,-3.02185767314387,2.7673491066381706,5.4547140103098135,14.226248381579111,13.753569482189127,-6.695513294329135,-17.649685530906897,-9.735412336019595,-8.473317105440326,-10.92723051634936,-2.08495429518457,1.8048242357077058,-5.838624608578389,-3.0643583329977133,11.412961052814804,12.78373414908035,-5.813128235930247,-25.367620766698046,-30.769493282704797,-25.77183617775629,-20.060088712060573,-17.21625855217217,-17.878348695682696,-19.34645454618261,-13.870849977965937,-2.22439729634198,3.0873464189222837,-1.057936789574807,-4.347335988574528,-4.224237816780281,-8.366628640721299,-15.460057304984058,-14.79073251387667,-7.230679600241164,-5.913064716210904,-11.390177172055544,-10.209095030516135,-1.9357145404263747,-0.017138026120326444,-5.34497225467365,-6.337353931953613,-3.6584467682259323,-7.552357210565365,-13.339589253911353,-12.062041845327773,-14.331764889411081,-23.417749024859532,-15.910151910116507,13.58537217852312,39.72735360998166,47.75027862342472,34.84555498045854,5.862287191091276,-10.669588395051932,-7.1640463119548485,-15.264631349263453,-33.20012443337592,-40.22889212374003,-53.073520348368994,-64.83441656130357,-54.94854576299994,-56.25045773069522,-67.92604348234111,-61.58945719440759,-68.4891518194208,-55.0867144716037,45.60231187649772,194.5787407356383,412.2696292166315,590.4765059093809,289.06905713094363,-369.1004454813828,-530.0525722756739,-143.13580654276882,3.4623874433102344,-123.18771268026988,-64.9899530405901,32.59560647400501,-20.94586955785596,-25.47664362078627,29.407959904123302,15.789082928552117,4.180821854047378,25.248302676702373,18.197975363903037,10.990924247893023,16.135077104334446,-6.699183773116138,-31.974480239226164,-25.757802830702033,-15.786351890289923,-21.18904773735577,-27.814052239860086,-26.614971717674077,-18.166145941036632,-9.307293905674811,-9.143788798918798,-11.605311324762004,-6.718116062340654,0.04279320220975347,7.227776129802648,22.623943302617974,38.265194823039465,41.37840957970417,37.550013010878416,37.16034032238604,42.222484933373124,47.33814294081377,42.27345877295792,26.261444793274308,8.921263042379353,-6.172495201329837,-17.983210787809007,-25.12311385407139,-33.23167653454236,-40.06537834238969,-34.95267378838948,-25.359482162110634,-23.94910765940179,-22.784419228767543,-15.250971038771226,-10.489597592047256,-11.23781705251198,-8.759636392672018,1.4294862274517586,11.134826173905271,7.254247081434512,-5.4336431036731945,-6.645796896761373,4.700176772539371,11.749970779009853,11.166034337749329,8.811467260666223,4.773326774330943,0.18008310860627574,-3.7496291525031253,-7.3035590186108,-6.0362467844766545,-1.769179344933029,-4.149002987368629,-9.913187576607463,-9.310222062371292,-5.1406184495285085,-3.4858981097694475,-6.595757333529457,-14.499886586742932,-17.811651399718638,-9.952381016015998,-1.962417235164688,-1.7156961394071697,-2.9602537521252383,-2.786716795656515,-2.426706816361609,-0.9178988074618122,1.2585507166991885,4.6904326134446315,5.048284375715511,-8.865954114099008,-28.069950212377034,-28.35639285307027,-15.17961192292658,-12.013897693769872,-14.72832745796547,-9.064900528605861,-3.6716887786027606,-8.110525513923376,-12.08441698868581,-7.770506673724675,-4.418170308349785,-8.522748507368574,-11.873237475560373,-9.283629456832049,-7.759540560851596,-10.667302547340462,-13.57300821104015,-16.368170605704798,-17.135916547170638,-1.9132051089640867,31.80151614317768,55.11139712295452,42.8872190946763,10.39465892456117,-10.056378838644866,-9.374313020249645,-7.5328711821323315,-21.365981642648904,-37.55064675570769,-46.195860665496255,-56.44905673363871,-55.675316946910115,-43.51210428914904,-51.29569361841863,-64.20118509504074,-67.62000339597193,-78.31842703943666,-36.18167398543656,84.07359998254844,231.22654115555594,450.84477835191854,556.9711570265001,139.3194677409138,-448.07119382386065,-415.0066537655946,-33.95427070020032,-22.20565527570092,-148.73775103623774,-47.90268533376971,15.34165321906459,-39.863795810019035,-15.748411395724542,17.324011778299024,-7.214007190682086,6.208088097286748,25.92522571616336,3.5767022490526017,-4.490822334699795,-0.7167689160935069,-12.936407433175756,-13.80100447636906,-3.683815672451356,-5.6705216644068415,-13.722759939650459,-20.00991687485025,-21.57736662973356,-16.221738805131004,-12.425721676194062,-8.236323567756648,3.894391963812081,8.442000320604226,-3.3453365921733877,-7.579333020544334,10.580440641880761,32.270390182048274,37.14563945320842,30.155367765385876,27.72250102985468,32.30350088844545,39.11617190295045,48.82513604463844,47.21239352364206,17.1028388322661,-16.74222209020202,-22.35449449165559,-16.88826506861208,-24.298248567374728,-32.94004230677428,-30.890770556508507,-24.729398411046258,-16.663394865621573,-1.0526765150302815,13.986937154736093,6.686512061196826,-18.273836428962564,-27.723623916199667,-17.948927707549547,-11.031627024860992,-5.679124132551873,0.5216340916777398,-4.421432959128968,-10.069113404136653,-2.8561355910285275,4.036568711093313,3.6459730824597933,1.8810866838501301,-2.133896889884346,-3.719728075278047,0.1439116945910257,-2.3987095856266656,-10.379089508250571,-10.212903495281038,-6.873870387461443,-10.25435023307054,-14.291414606591257,-13.603494395115023,-10.152243119353667,-4.826439425826546,-2.752339477762492,-8.637920235702374,-13.088953963996428,-7.739383223250357,-1.6656555687538752,-2.134548521891803,-3.964350805956167,-5.574542869615648,-6.4431850973618445,-1.8595131113871055,1.009862604127422,-6.006143438797238,-11.423477469433887,-9.493932829630602,-11.24250296088646,-13.33301664913282,-6.809701048217757,-3.6221251355516415,-10.274835555911217,-13.046139238884102,-9.657437308599413,-10.208930895420831,-12.024656723790716,-8.319506091039438,-2.1782394715092597,0.8178668552595436,-5.545842895657358,-22.703934971994748,-35.05664408222166,-26.717264576895687,-2.085521290230904,26.97665359655878,48.122578349142856,45.586636087638624,21.524026411097097,0.992130851735916,-1.8411831615352563,1.3772975653517578,-3.785961081958428,-19.198798915244822,-45.141797566099115,-71.39860644150775,-69.66483116357108,-52.306801583689634,-59.86911331534472,-65.77489105684698,-56.16966807777075,-75.3113930980286,-59.65083933836192,54.1147045385496,192.02524109577706,378.79423603733443,522.9717190705313,213.98755691219532,-374.48239245458467,-444.68896622781654,-71.6604991142849,1.3157893501758338,-130.6906607534812,-49.7747563575057,25.67098074078688,-38.57199056285176,-21.232750589858824,29.811336521495246,-4.6471791650206065,-14.769296598921544,14.335950543789387,6.7556130495524425,-2.4153457564321776,3.7989516753616996,-4.741163135324934,-11.69829921802764,-9.770872420884281,-12.159317297109036,-12.414946391667742,-14.018141105112417,-20.7314675493691,-19.410510939426928,-15.576464538583734,-18.809473981606487,-15.891326755375879,-3.7830514518716067,4.275048085095761,7.838276325961613,14.59950168520947,25.411721904735685,34.94625981651541,37.514578562567,35.73268582589154,35.09315993322172,33.56788538771073,30.476147914415783,27.535991156096486,18.742769559734807,2.460031568438585,-11.563463547640605,-21.440931696410303,-31.238711589538358,-31.890493270724605,-19.16460691856372,-12.05879372794227,-17.540581421716087,-15.139013597295484,-4.084005956513806,-6.668971766736906,-18.313438245433048,-20.214861398206462,-16.252295586142427,-11.601465087840078,-4.59546980725713,-4.501762155461378,-11.66305930093467,-12.477779300142936,-7.169025365156433,-1.5476080851380356,5.138470639561225,5.6959734592518,-2.198016140207841,-2.3712845447595234,10.11670763413763,17.87758069810397,12.118982779182145,2.1700068104065,-4.9127203465191815,-10.282110901791494,-14.767440989466937,-16.471545253159913,-12.125504030617012,-4.354534896339009,-3.8867253656835494,-9.405907071474847,-8.550224668055364,-8.188628001562515,-17.752812441071285,-19.755410097441054,-6.903447443094002,0.46502947492478164,-2.050413256768298,-4.599378469736667,-11.697133372829256,-20.422494354064508,-13.93708870990822,2.0546743199897275,3.1376190957035632,-12.304267567664262,-23.103660869433384,-20.168336560036508,-6.944402474824288,19.80101891600895,50.1274762256358,51.12859120983374,16.89832207580614,-12.889198003414215,-14.441457208200774,-10.551556051472076,-18.200948686724647,-27.378925874348617,-41.02053278958848,-58.5604313375766,-57.841394662313405,-52.6509443265125,-59.34352511404627,-50.50022972204687,-49.81089171951365,-70.30138438836116,-16.631918603579667,119.40756895938975,283.4455750638004,475.57673363848465,421.76284647867897,-106.26961996308867,-519.9376574464725,-285.19544696351545,39.03941536547196,-36.53629187885711,-116.42638155127047,-13.903573567106271,-1.3812167008756333,-41.7643446021718,-0.6146038836224879,15.896376919574925,-4.249124120993049,10.51817096497126,14.918546102394998,-1.1853258076297148,5.797709007778659,14.147494411749626,4.88270609523018,-3.8135277155265914,-9.299208437977175,-13.440496711503261,-16.34654031878486,-22.96170240556565,-27.287672478422,-23.855139072202988,-17.37628450984572,-10.695791388507592,-7.746419907938762,-8.830659255744663,-3.6174784365312003,10.236995659299318,24.101681597176846,32.50639509663408,31.937350501385787,26.18466102587221,25.940555629373982,27.887844823163753,25.240893030228843,25.41474678978812,24.513706897702072,8.946440819091237,-10.626247859379994,-19.940001275126974,-25.40217929329876,-28.407228435847006,-26.565338592195594,-28.28160469522662,-28.82923551474765,-17.826073848249095,-7.861919722679691,-6.358451141011706,-1.4416959062398753,2.864962546314713,-2.8238896711242667,-5.195335314784304,0.6759548649300573,-1.5701142600038374,-9.672587048114975,-6.257616364875042,1.6865632267972872,-1.628877841747249,-6.569886800192062,-0.18012147906149956,6.195726517909006,1.3055217623734858,-4.423891607030388,-2.7286224174591105,-2.3390315080215363,-5.4223977830300285,-2.5144661362007295,0.9981757656694192,-7.3620796312752805,-16.074707794386445,-10.055214555816958,-1.3087507946651833,-0.2756047416372862,2.5913997456596007,6.58368336930579,4.559742577922211,4.962719434138972,4.801474869904343,-10.774130085877056,-26.237242295999344,-23.79995869993606,-22.627594368940333,-28.8568807467808,-22.55146215318294,-13.10274192446326,-17.17160160541929,-19.148534877389302,-14.050111303632539,-14.805943016365413,-13.760451041728174,-5.8017472246059825,-4.611495696668911,-9.387189196679653,-8.900747876411021,1.275104312995242,25.337363670691087,49.7143109243256,44.95372760247108,14.980230180113026,-5.6840277828850745,-7.542912183933424,-10.822862202871583,-23.373534839518236,-33.842008018623254,-40.86963946418349,-48.252716407137584,-50.45015873362028,-53.78294473704332,-56.196759225360644,-42.26626800027071,-47.107831392640364,-72.7256571206143,-25.362949909104643,94.12887848355909,245.80855659596693,461.8958871210814,468.9701127274725,-37.07496043122532,-519.5871703728794,-352.8809742639813,-9.833328343520364,-41.558903871759505,-107.47020550323454,4.407173378255237,16.380515956438714,-39.81030756589396,0.6436539554189125,18.296706887144758,-15.506930697890812,0.9696282488988945,19.187588034487245,1.1321166570152954,1.4394220662471309,6.489739102712409,-8.444203232871748,-13.11860877587132,-8.00790092257628,-11.599543818076008,-15.14868778919079,-17.116478751405406,-21.597987123467163,-19.679032023597312,-10.424267567624469,-0.6252073335246919,6.322820130923379,4.44274812391122,-2.961017067929834,-0.726114751443868,12.129815877699418,24.138372431366626,30.8672514954776,31.86739441026575,29.894980274891704,28.939961260802797,22.13664660549098,6.748421388902974,-3.991099243763748,-7.941059053823134,-16.44278689356752,-26.86440062100422,-30.403619411092464,-29.14122736102898,-26.556337842358356,-24.22670891064883,-24.765010538280173,-25.561548840576613,-21.93623381205201,-15.083379153048039,-8.138786250179573,-2.2610410817948896,-0.3424551272916716,-5.230717477126973,-10.312835767762866,-6.38356635112463,-0.12854779009776252,-1.3919359777468507,-2.9812186026193004,-0.7453403521709063,-2.883967441145149,-6.349857730598355,-4.75133008340752,-6.766874229734942,-16.403332350643563,-23.66992835028467,-23.37971283116645,-19.545756733640623,-16.047957581427365,-14.191725069025129,-15.524546392859751,-16.462807232550837,-7.64902905253869,0.7615149973863105,-12.008959936217735,-26.154263526622334,-13.197796224814333,0.18761533065324443,-9.68263788109067,-14.504481614043812,-4.21404405728488,-3.6854124132214245,-13.190382411606148,-16.336596691710493,-12.80078007535952,-6.041408395477136,0.7748782243135999,-3.6084105135583258,-21.904569410640647,-33.77588860160226,-22.320307791781097,-0.49891401295242854,18.394005984770175,40.09925873985411,49.390264506913724,