ECG,-4.57767649452426,-4.34843260864881,-12.614962581240732,-20.103523195377612,-19.42337675737548,-18.935103950320418,-14.32571531986025,11.672003369998095,42.499226162009236,44.35054566660646,25.125268011034347,9.849937064975844,-2.1121092552956764,-14.15673187919205,-23.233924705890473,-30.142860851780586,-32.91480230009209,-36.29056360186153,-43.53730446719564,-48.132463436713834,-58.059318092149496,-63.839524160851674,-49.94896251122242,-58.61588543011965,-67.91736827976811,14.61807532106345,143.3149920706639,294.0950559202637,491.888616622565,395.97784461465574,-167.48615641607836,-508.6411325246071,-225.37078486107956,24.828888250844408,-83.80537856625958,-105.8741310904841,4.998264624057896,-12.381746339286806,-38.44468518682675,14.753196044635404,15.166181257446274,-6.784752396626056,16.623000542281222,23.835020047753915,7.617737402821934,3.206069195058907,-0.8580657985072211,-7.712609878929731,-16.747488056018483,-30.212143422974634,-28.565052486297333,-15.055385492599807,-14.300141724053827,-21.24798150676223,-22.266236967954715,-20.001894610748668,-15.685474817944389,-7.7508928392059,1.9799800719469114,11.341642390837478,19.51121286300121,28.358934745471693,37.20834265924402,42.21070150606964,45.50795302988024,49.79107153960133,50.11890877370936,41.84293590680368,25.09259206063703,3.4581756339833243,-16.667594205286907,-32.06665585125968,-41.69174552826928,-41.62478245427197,-34.6902487281254,-32.06128985947511,-33.18927403923413,-25.554907783701804,-11.07908174538468,-3.8604017326031865,-2.1822338712410847,2.155157380212989,2.301478992994028,-2.890721015518368,-2.6498647824045936,-1.3941780688400236,-6.376420003967985,-9.034220264778392,-8.269237524637,-9.73654284944842,-8.338467501045244,-4.197168993866839,-3.2552625559884234,-3.9011102647823304,-7.255258457962796,-10.549540143795094,-3.708841819016806,1.9504279245749157,-9.717685633143057,-21.792019790032125,-16.76488676017081,-7.801075908858763,-6.978867324625952,-8.578234453827367,-8.31778681311514,-9.2526028402449,-12.680131273293862,-13.147418232648743,-7.110145014628445,-3.2822206522129846,-8.670525855713056,-14.234552619606852,-10.778551241674595,-1.9086198232589844,4.1210543551661125,1.7552966615931727,-4.836328461812004,-4.675869069426994,-0.8581225029672375,-4.63748295441626,-9.1877396278474,-5.592338351976899,-4.938324902577072,-13.943861476857526,-21.452592895956478,-19.504163726346537,-10.626984966783514,-2.673756268967411,-3.917229833982237,-13.314410327995912,-22.36886531412583,-19.378941559021218,6.5111948801706045,39.46088846298868,43.78834707596729,18.719401625368512,-4.318500041354312,-10.900182773434263,-7.9545818853923365,-10.190252360243875,-21.757810853923953,-26.89433605688131,-33.83756260539717,-58.164984220752956,-67.10885352357718,-57.54208281313357,-66.50915493900962,-67.6302137969421,-55.42045906425903,-61.08112526574146,-12.270710420954991,115.7579436016238,260.7024205374281,448.9033662744524,476.6992062377417,27.639597504070522,-455.7775238475417,-337.5926912975735,-19.352712337997485,-59.05341094354018,-140.9100760859249,-31.111035182265915,-3.143805944904912,-55.77039559415202,-24.984594586073094,-1.1921187985533557,-18.2076700314093,0.4204399085907973,17.456190709099744,5.598048387027493,-0.17037258901349972,-6.520917021798688,-14.88478545761604,-9.155916791257956,-3.43660389293451,-4.550923122232364,-3.710962735573787,-4.4757160511649765,-7.0817900676693135,-5.868875714461223,-3.713558366309247,-4.727302807814929,-5.674830715377073,-1.7659078805070743,2.703207901331077,4.539365021640252,13.508365954067884,27.61834692253315,32.391013774020045,34.83319804247473,42.05203874014425,38.36008360668351,24.897042534749836,16.18049531030632,4.037890444395974,-14.321535914415435,-23.983017488403654,-26.91206254684577,-31.40032288006844,-34.118619240588714,-36.31503460557731,-36.62080725698459,-27.25794677394499,-16.06110141464826,-14.07852754476373,-16.116098961176416,-16.939431327791496,-15.66762553867044,-8.800177201909491,-1.9116368401859596,-5.882116802593604,-14.938341538364863,-12.801813752476406,-0.33866353319564446,5.163340854535477,0.10807791947911305,-3.108406962270994,-3.520985882671951,-7.554559686051148,-10.883482496987934,-11.217439831771614,-12.121372184886177,-10.474513911795386,-5.142467544188339,0.08860439919019569,5.852999449099717,10.225473113219895,9.60056046374672,5.287313267263743,-4.354445004699263,-15.066277021508718,-13.056409147878732,-2.87680191853309,-1.1165004873072455,-5.25666304962696,-6.427254402394553,-4.777497347082392,-0.792620368584716,0.7961390521476712,-3.073422073669539,-3.5543892094809273,-2.162643621132755,-11.57612106832555,-24.29903255032197,-24.51269401064905,-17.371604037964538,-13.219073931902717,-9.74977206594216,-8.493282251057504,-19.735817870021204,-34.14406816885622,-23.12175546733723,9.49764093563147,24.737447015987435,14.370185148929428,3.873453767020113,-1.2833859457460672,-7.662841285312,-10.775980055762371,-12.562177762372244,-11.526709315039886,7.86698402066298,35.92453681785121,37.174398740966055,6.6584992081509355,-19.50256198365436,-14.446716282296718,1.5686645431443669,-3.410849048589249,-15.67322034513651,-17.5862668629293,-33.042995632556,-57.97305173494104,-62.82561944156667,-61.36400559668466,-55.98019507102398,-46.994508500252806,-71.64589869893919,-68.19278742936547,38.84262085291611,178.6134460839959,365.73960704767524,546.5829551659964,304.7994048703074,-303.01877846883366,-477.909662969843,-131.02600421421414,5.494508217105853,-110.07062333009851,-60.4475257297493,8.338197926374605,-55.457263100799665,-42.65086371272305,23.400072934687653,3.9176914334801083,-5.704398183802301,32.90350090835727,32.91910721593626,-0.3178520447211426,-26.717155255304498,-35.46961442966823,-20.097480997340462,-9.451284551306872,-19.41814297081978,-19.50035511114022,-8.892759993618682,-12.093573408593773,-21.0299402772273,-15.709439267999622,1.7711679732099403,10.129537271029285,-1.0281110663190294,-10.113713472716569,-0.9007505328857346,13.490129306199103,23.638064907471154,28.96683570932627,27.576387604392437,28.29623857208321,32.79374790679696,28.529008741915845,21.917393947957002,22.61902392044467,15.710695530562122,-4.5087044207855715,-23.35656370988511,-32.981325826490945,-31.828059663990025,-28.013063246085597,-36.25145123133771,-42.17194304327886,-26.17275029656043,-11.67117442393049,-14.62270121063707,-10.921608302312997,-2.4899489913474326,-12.055279466670612,-19.533342521626192,-5.88392540183229,2.6580686587735087,-2.6263163650169368,0.5859846563348974,6.092427422354497,-3.3731241302551496,-10.453383495056272,-1.0797687277701975,4.136596014804281,-4.301318942670058,-6.234098526567001,0.8340053766541224,-3.9523154579637527,-17.340108919868012,-17.288998402474995,-6.852165508815043,-3.459873778946477,-6.701284402058874,-9.245843724049433,-12.637777655174869,-17.10696331464529,-16.36541040649078,-7.1948799944366675,4.698190116458798,10.207176570660353,6.226158275348464,-3.6327027685125888,-13.868744404878292,-17.071644864714447,-8.930765763389395,1.7708473313487776,3.918405081085057,2.8179334450589018,7.379038054341892,12.12301816757414,11.771406342955416,7.827230502941595,-5.17067672784532,-25.49178220831885,-33.89951743979005,-26.71935309386496,-21.13941965527533,-21.492196545771154,-22.332998757713405,-20.887293687158365,-4.555998404603037,28.266774686747365,45.019156127844596,24.308996298193765,-5.826517589353319,-11.858633134637776,-5.97221226113845,-14.233821221827126,-23.01981072557747,-18.64038809246277,-25.895371010873852,-43.971138279969864,-49.578997573588794,-58.272319231684634,-67.01949264952081,-57.763435110726476,-58.901158369281546,-43.710092174258506,38.32383955001409,152.06997206515018,325.6064064199457,478.25478102165977,227.32676834929129,-333.5987739397639,-464.12837003872744,-112.9292607606337,25.283939200199033,-92.22869258349075,-58.36490345629729,20.15147249350752,-17.790527691677934,-12.464358193494714,31.544181457546166,9.648890425737306,-3.3792224653695335,15.957330082824116,5.93906217435678,-6.467893639899945,-1.8750685166017202,-10.884986397164507,-19.465401925154417,-12.998414441227293,-9.961396416132807,-6.466247068819845,2.580293724668028,-3.4936886299525085,-21.80486892427899,-24.323724844007756,-10.533671167944203,-0.2502712168007952,4.603200242932536,11.72346965635332,18.738049014706604,21.015373542344143,22.116822991536434,27.655085765808437,32.5668141962566,30.08143245237047,31.32094384770769,43.37315730964908,48.47248420233445,41.49379882497607,33.338038390291224,7.7516745143600145,-39.917104182740516,-63.191317591019995,-49.17106829656137,-46.033912096806475,-58.85748529341704,-48.66048948947514,-24.866270268474384,-15.699255059510932,-9.77808306604323,-1.1665443175588734,-2.4994285209359184,-5.720799467980505,-2.632641196859135,1.6390872246440304,10.33903111895505,11.337498850298825,-11.340032212409316,-23.602386013895956,-0.7001039434595029,13.915224622794739,-1.5103508645477337,-13.964291475930743,-15.179185885155887,-11.315044371891062,7.259378306626443,18.738135994693607,0.4089046533070828,-14.333906873222485,-6.57216325849927,-7.172685497119538,-18.829203493462607,-14.795219727957754,0.33657055892657795,7.578221624017296,5.181463811598505,-2.645456739768928,-11.311934935789278,-17.460550340796985,-18.622817977232682,-8.390700436594996,3.976666507570796,-2.7578798211279576,-18.791993814705116,-19.778587881901053,-11.36879025432172,-5.816940764561529,-4.28914210747247,-11.421857373963402,-15.043584330844697,0.98316060668418,10.961297704666979,-6.462233271953956,-22.523251744608487,-20.136771405864376,-14.816267691088619,-7.718813032615342,0.7009095658967244,-0.9843497634581908,0.5578591023634853,21.694220411228468,43.08697940300452,38.44289357067442,11.915031089894542,-2.6303662209159313,7.175978605463147,-1.201921395574848,-36.733378610543284,-47.59232768659204,-45.24855354954467,-67.81528355663328,-73.79630636016138,-56.595904845994745,-60.645825139599594,-64.44012867723745,-66.28111684016366,-80.85796547230053,-33.56066944195064,110.40923139934387,343.94090613366376,591.8621704361574,465.2505974356883,-162.01543938507945,-558.7340022968831,-300.4133117411043,-27.95374189239986,-95.70787456487551,-99.51917185243397,11.221972817070473,-7.349129033446815,-34.7908077711945,17.139543818651546,14.90697735250886,-10.705987704526814,11.044871970277399,12.705343320118448,-5.0215329389065,4.63910699238291,5.402053685260691,-12.031964607482573,-10.900944928381747,-7.858039026250628,-22.559809160255202,-25.22420784866795,-12.22328190636873,-17.918853004384385,-35.6976361937449,-30.23918603041256,-9.63940511743207,-0.5367028089651604,5.224457295225791,17.747407258882802,24.426767164152942,27.41681981432601,38.4870961069344,44.15446976128003,35.35177097792481,31.623868584661935,36.42404162140409,29.141107461672092,13.099227866791079,5.7281957540446875,-2.026184165828242,-19.64853713163193,-28.814945367179977,-21.001987817946187,-15.037650101620123,-17.254398269024,-13.910719349966303,-5.263837907946312,-3.1099381604669176,-6.548289518941575,-10.643565652800685,-16.762726553830365,-20.87918154607431,-17.05988583320815,-11.139992822961421,-9.472013623693282,-5.743238445330999,3.626654936985841,8.94366966634968,7.33707646706867,8.7680381065361,13.62725596683336,15.004049395737205,13.17671982063846,3.451219129457165,-15.31968215497833,-23.570163493119022,-17.40705423971016,-17.24419282615613,-19.712773913266005,-14.273730208022743,-16.362820479929344,-22.478925585310694,-11.140618992351744,0.9854596897791144,-6.683387854276518,-14.91031949502986,-10.583403933140945,-4.854530070118177,-1.6934429659732189,-0.7045604288045695,-2.9634127138854005,-3.6984062827569915,-2.151360300518112,0.5699193434360357,6.2980741614356575,5.948034960711253,-6.741848615880036,-18.15860571377914,-21.05436590617346,-21.56259081734018,-19.347410821170058,-16.165051766640556,-12.781648152253968,4.145466988797769,30.30736248919798,39.52940524997979,28.110981503313685,9.612320282584113,-8.163323394857187,-17.705966545576473,-24.14269940330954,-37.77605580774762,-51.47597847840103,-61.31177973190502,-67.55865625806314,-69.88010700469019,-78.6827786818029,-78.90300245457763,-64.46939415026063,-71.91169127535038,-54.602100586405214,51.13826957472608,194.77262963648832,393.5201214943933,550.1669643377647,249.2223721317144,-377.8445182681112,-508.69775713595885,-123.72560752474007,8.003901854676428,-116.8968135744763,-56.46386986059611,27.02324754442344,-33.13374953414922,-28.67731412804557,27.63496493393754,7.774920602090617,-3.791401096370075,19.507849656376347,12.219768493617327,3.1174548398560464,10.575511389659745,4.524724484585361,-10.012215641321923,-26.885169497491393,-42.31734621077457,-37.96288849487978,-24.958311112905275,-21.285043370633456,-17.79686451170231,-12.203067566030754,-7.914197640983263,0.8288301240519762,9.027715985954465,12.519768595215272,19.050592253454916,24.658359500593498,24.103201029964005,27.217039440180535,34.065708666895205,35.21687728172584,35.05788243776013,36.530419644183446,28.945729215372957,12.098142051690004,-0.4506238803979643,-7.835969118076901,-20.870697371623116,-35.39106609523898,-36.12939151021976,-24.91142192296475,-17.514079639882574,-18.734454172756223,-21.683518828771934,-21.296963414657352,-16.68664723476848,-8.445425934468316,0.5386345216021233,3.534163569846468,-2.8897431619321807,-10.583013989018875,-11.286770777375711,-7.518127411554216,-2.8628733931477406,-0.4967992055590589,-4.556571813592514,-7.389911922392766,-2.1474122529772934,-0.49882705182648834,-4.2369489440471,0.12789053851698462,1.8130271570924528,-13.364507268177816,-21.79201529368649,-10.191480370718757,-5.88925317797359,-13.589709413363504,-9.005738641082557,-0.12584914629821675,-4.374542155073581,-6.026700656681447,-0.6332580038010196,-5.6898895417496576,-11.069322794729118,-2.631414722092913,1.001384304184615,-5.91791248834264,-4.699254357697718,0.18411134585702982,-4.485963242194176,-7.967060061112768,-4.04923447045601,-2.448343027349596,-4.290191781124134,-5.518527646186394,-3.0759868995951223,5.412238785133814,5.6545061129014265,-10.669150924829593,-17.97097616627792,-9.422187169356917,-11.699543676934853,-10.346328878204558,26.170033352987932,59.50037008159285,37.5987766042808,-16.068821658981058,-47.6935180783734,-45.731683750723974,-35.38062111305386,-33.321756411457955,-36.20812963695468,-47.12097146790368,-59.08802922096304,-51.919195813968685,-49.1398209698986,-62.27079592229259,-47.57138283600793,-35.810326196433564,-59.80427350649286,-15.054169330547367,122.21107430754694,289.13539986495965,492.9891282200434,474.3845697598392,-41.37654858250123,-508.5609599398529,-329.46101755010636,2.2458117081692848,-44.47861710946575,-117.12327613253561,-10.217925706322575,9.018330696428507,-31.660519070676724,5.904457081201986,10.973606790657918,-15.216782429385486,18.34358182078566,29.507453140637196,-14.983372620011757,-22.324817535452432,-1.465059701882165,-10.439061511486486,-22.45492016811847,-16.64984206357776,-15.318573832284798,-16.260120837123317,-13.49620074419093,-19.34395410887543,-25.996252898587247,-22.703832551353457,-17.131077462054627,-6.946872347054301,2.409527666914261,-3.1856988304133704,0.7141154557735545,25.19495699455823,35.63906339255746,41.267414425819794,61.76625587074466,54.28755547729429,26.547100379037293,38.47444528479768,52.32474624419136,18.204519186719025,-8.36397146995181,-4.822739575719488,-23.282126439067955,-56.28134498702037,-60.57806759067983,-46.598484779976474,-38.248535844304996,-37.163296146687564,-37.88424673366835,-29.971962661886643,-17.330417194976278,-21.254145728768513,-38.87439844172406,-44.037391009492914,-30.144217670018584,-15.324081693647926,-12.97951000150779,-12.99395930031908,-5.085749757123796,-7.524493441074654,-27.932356339797384,-34.13633910874875,-17.61927364653789,-11.490449030628373,-19.74649272660215,-17.326200938845822,-1.93967890457255,15.12354978557064,24.98772458981941,19.679526927559657,7.730465367103818,2.527327882445104,1.418871366341861,2.1231129046041675,3.0820051378412963,-2.404444774088706,-4.4887390409961405,2.3190346055733757,-3.7929508584449607,-17.330867379649778,-7.177663493969834,4.839807063794046,-10.719113876210447,-6.311664046751371,48.822888937565814,87.31046092769891,62.53232608035913,21.370063159273904,9.088687220979683,20.354907234865905,31.549784259519964,20.95027970678662,0.06300185230308841,-5.7697123882172505,-14.273401711199666,-32.59053924073963,-33.64104581043813,-32.79364389267787,-43.79527423249057,-48.29635546740521,-61.51426915935698,-52.3870348184746,42.57256163536883,198.92208537690902,426.4908828433474,607.9961429799384,318.1025518863419,-348.4451762053651,-559.8736046906852,-197.16288786067832,-13.257732356115259,-108.63380499226187,-49.70561360202041,55.73215794360171,6.127598830509434,-20.66420409135548,9.7507583038485,-14.074583300171938,-25.863061968916377,2.5468965594623114,-3.863213205308874,-19.989273824149983,-6.740884741903425,-3.6621428713281183,-18.532990449538367,-20.325868016227908,-12.09262014078277,-11.911319085523724,-16.893459569258823,-15.070073828181865,-5.974321119368715,-1.0664235690638613,-3.0156164351529906,2.762624585080374,20.551034760345644,33.8715343077998,37.68037636372854,40.50085630080751,40.69044654131274,42.87236695541073,55.69610867326874,60.79030273232983,49.1778438444462,43.45222115491692,36.69278859496057,6.662026722515377,-20.150014007214264,-24.074505116228757,-33.88696050350182,-51.4197013831279,-49.58272705120703,-40.467662362407,-41.776489059927506,-34.73272362518923,-16.01245868217713,-10.384156143667347,-16.039035598774177,-11.460430806377346,-1.4572972486400726,0.006828129394918392,1.0423249961217884,6.999463883444296,5.134022529146332,-4.4495135662766,-5.924705064954422,1.424345464765219,5.055499380271483,0.5186826112772884,-6.580043370967855,-8.569292145779716,-5.767151862882923,-5.485708689476935,-7.108736096107208,-6.624987351730738,-7.568991180782374,-9.441412325421618,-8.315898659159501,-8.013621794821582,-9.432974863842254,-10.871907004237219,-16.922370496746353,-21.894683417997605,-14.79461188198756,-5.983534711960953,-8.273392023847382,-13.629094336231123,-14.553030671935987,-14.138294997176605,-12.861693270357815,-9.453722859086707,-5.67019371636963,-5.325212554490481,-9.949230446849038,-13.104591319266397,-10.121999059809273,-5.469291559658027,-1.6903534770339377,-0.5825079671341697,-4.598131415896063,-6.711389032745913,-5.822901685476614,-9.092228204620888,-4.374754868048326,14.12356095254618,23.25875839110735,21.35636701606618,19.225612358595885,0.43410820065172473,-17.72781559890571,-2.6712010475218086,-5.580737031681366,-55.464916715660934,-75.5785609881815,-54.814452023977516,-54.557189454640636,-56.96905239481051,-51.002351553022464,-67.67587074223594,-71.48388154113559,-58.10523991179223,-58.54269919203982,-9.922426324498453,108.71940948074787,278.7894899361777,490.9881661987809,437.4805595874393,-85.61665359457237,-474.52119897411546,-260.32225541466164,4.54396161020092,-68.60912332520259,-100.6790952906257,3.738908567067263,-5.520166475365663,-44.5335119981731,-3.014088634762876,10.07744606049838,-1.1269140231612162,18.160073681571127,21.189715468998266,6.226530908371123,0.8826086430718991,-9.077909913377628,-13.686648390976016,-4.354213711386114,-7.300103075992448,-22.02174660659298,-23.51185488568263,-12.305182348207486,-10.726744246989512,-22.84033449759967,-25.414954999095585,-16.710495817125825,-17.296793263037944,-13.579708632729663,7.538357412116975,17.32078211971581,13.131241274717308,21.83464914934721,32.75058269948228,34.97058330946146,48.39224589433607,64.78559625816862,56.63290341869284,33.309838213900974,23.00757127269135,27.97795261187037,16.167274009296726,-27.87837777474003,-56.505438096702036,-41.20816646530889,-35.08584123782101,-54.69775391818103,-43.23608958193722,-7.5008034592404655,-8.370614441372673,-32.00834128830782,-27.83474456629335,-6.286575019404335,-2.509625498232648,-11.848823981744715,-9.700082157951446,2.957906120827179,7.1600957667060925,2.1682212112621624,-0.42604584288852365,-0.06613676265942203,-0.8575615902611382,-4.500009105385725,-6.232997750264362,1.6404615039306645,2.2503636615385716,-17.508224252577122,-19.455879172148233,6.49650788264225,1.6221577509888334,-28.793222794509372,-16.388789708130947,14.193463543798018,3.4840544691540707,-13.384253040555109,-4.645463053109983,-5.685076902656846,-19.128196661490385,-17.813958005873246,-13.391402621611107,-19.470407440645353,-23.56120217916134,-20.669386649783167,-16.607600752796795,-14.525043927449799,-14.13890130414856,-11.53612912047776,-9.12254725995599,-14.530561596411419,-19.942288405468457,-9.562335716803986,12.242925703822458,28.95569885995557,37.976984722497555,38.44716735979644,19.26712421375337,-5.463139916694748,-6.558236267569852,-4.042340928897081,-24.738118291976836,-37.8201474079465,-33.901296716925756,-43.09467100802826,-51.68531514018894,-53.481052572161495,-68.55042734059293,-66.49482588895462,-54.359068063766756,-70.31442427428708,-39.52709260693327,83.72806840501299,272.59213302747395,527.3287771236585,556.6281875914144,32.40536515194785,-521.2959018207007,-420.2390327143012,-76.92873054347,-73.65394844461606,-122.5355574158621,1.648203179431512,38.094538050168524,-11.817094843681634,14.470146175564228,35.185774254542366,12.712164617018786,18.517077286871462,25.345726212731712,10.821292037523914,4.830323587780159,-2.2953408033866474,-14.205697979888512,-16.75101329946544,-20.67214160732103,-27.298730239895725,-29.338039948638553,-33.88326201019167,-34.92168409944356,-26.123709433196744,-22.49574312003917,-22.898176210602095,-11.119227978006442,4.087797746120686,9.993590964368163,17.59782712259694,31.730447752019586,39.060433993453884,37.62752137791271,38.28866748514627,42.428956092255824,44.36890294177589,39.73235932817876,22.056249448485946,-5.029671783876925,-21.758252901559743,-25.23585541469975,-35.80953788409177,-50.947884513703684,-48.47368081693091,-35.54425355960062,-30.842031549856745,-26.12718426139569,-13.893832541304638,-5.251696333609825,-3.255941568036622,-3.3148206249322776,-6.137668894500035,-7.843920645483605,-5.064206380004105,-5.870817464243311,-12.480078372200564,-14.335196954540276,-9.842837302763368,-8.441237401918407,-9.519899964413508,-5.491368279500243,-0.2239687636743355,-1.1747738078706558,-4.944023416740123,-4.788292080855685,1.3411460832848743,8.019682071840437,3.353752799223324,-9.365639937723362,-9.04272923914445,4.988098144728466,12.21134435015222,7.4137778195597654,-6.184131427731739,-27.358597217632006,-37.74974898981702,-25.209641366057085,-11.22447391645998,-10.510152304543773,-11.352921440247457,-10.38336906819898,-11.105251451313386,-6.3903401638143436,1.2901963430329282,-0.5774547999845439,-7.7094085225855,-8.805888795708674,-7.41452928078775,-7.432207489316857,-2.803973788320242,1.8655337543753348,-6.751130160767373,-20.50766922770108,-21.328169555363814,-17.554919728471944,-21.668467091214172,-14.938446890383041,12.5697398045716,27.73861444478272,15.730921208328317,13.205755716775167,26.79872111538554,11.185028089162905,-31.650594863579656,-49.95163761551777,-41.11090967249777,-37.55367401289243,-37.99398576542205,-29.368528965772096,-23.162426214605482,-34.75069091787186,-49.437518240208696,-54.88051415107097,-78.67605994888345,-92.85635576996735,-23.270221070138298,96.26446401079951,267.891484753204,521.3049808154269,497.843641774935,-53.41036224687787,-484.83719907550125,-277.23223200625154,-4.091379081392571,-84.46799551018611,-120.8358925145601,-5.492799290252947,-8.275746519893453,-43.51767689194028,17.29192666151348,56.696438597146354,51.80363023021131,37.04732346776771,-14.247976709388258,-44.02723314292206,-16.853395109791695,-7.763532268193055,-20.48266826087866,-7.499298953043198,2.8599147937303506,-9.901708865029857,-15.932915772178573,-14.722605230771471,-24.66480213698178,-38.45581208002705,-44.280428376357314,-39.77434884593758,-26.67173593140757,-14.646573087833366,-7.927150464368541,2.3964219702860707,16.921417436186843,29.20547817818524,41.24316543345338,49.92864060792254,51.63096330614269,57.700550525957176,60.994809460310854,36.44157355234101,1.3964109414913093,-10.370311956503965,-16.436591748231017,-38.84105242538005,-55.74443448285072,-54.63922070700548,-49.24515034809998,-42.41259001233628,-34.237848877786966,-28.956496003156552,-21.199614148537982,-11.64789753107518,-5.045494636217967,4.114177499983931,6.79317186770362,-8.888649105848106,-20.20480665362055,-11.869442899167819,-4.753502409183493,-3.389247476779202,3.5886302868922773,3.8752279482131176,-6.88958105892705,-8.360337788117768,-0.029001111267419333,1.0923495339101255,-2.980959252990127,-2.6751223616608826,-0.7741035129750848,-0.8138464028300163,-0.9758903296589612,-1.9168019086908714,-5.023209206927339,-7.23817567113041,-5.721879448559662,-3.0617507097732446,-3.4039267379292344,-5.684788633401208,-5.77193101931206,-5.554124282622068,-9.481630896320674,-13.455916592142305,-13.327993459428633,-12.880967144426831,-10.353908089779791,-2.8868810622351972,-0.006916542633666367,-3.8152848534960864,-3.7443754755476206,-1.091864422842871,-0.48064031047416655,3.372084513473834,8.264339372414932,7.46485114874163,0.6346687807106299,-13.095972652785402,-24.727321154340878,-17.731386963730067,1.1812416526170697,8.614163355685253,-3.654595491317238,-20.36615503161679,-19.006583113640815,-5.633526738330817,-9.15736546064295,-24.960325282274255,-28.11890599187491,-26.498825548008224,-30.222575924461058,-24.215059774482135,-9.233883281081283,1.2249495031802944,17.20271008598641,43.401656396320256,50.15025168018211,22.228986734273583,-4.24224614917218,1.8648566757339875,16.390200066141826,13.182036070056345,9.250433185285349,9.547942055837876,-6.483463383570578,-23.034073575572776,-27.05510987962945,-51.38084055679813,-78.8504775815709,-70.93870070319618,-73.00778858491583,-78.194352053946,-9.910045105348637,111.68664295358977,304.39771638812334,525.776079984654,368.5132351020426,-224.8446540924734,-495.79236938974066,-184.86089193183415,9.590047930924179,-107.95843952146306,-93.78073281263345,9.813962037610956,-25.780119355802412,-38.52677452972891,23.13146897171365,15.712737933172612,-12.361586549923407,1.870487160952802,-2.7854997054519046,-18.23446676615777,-9.105234184935469,-3.6952509312702944,-9.158275156520371,-9.48147518721182,-13.101840517652128,-21.947293449260723,-18.80317300994087,-6.193613503080009,-12.265895032260335,-33.34107655841933,-29.713515487910797,-11.158048912390562,-19.32203850620902,-26.96883987879187,5.0623162899786145,35.58605618100866,31.159231871049613,30.235160683013035,51.99872042385837,69.07723600417845,73.27406172932842,67.99226987418562,44.71126865884685,17.91076948745921,9.925120520953541,4.151261037888488,-19.247251940334827,-43.43292860776891,-51.245956266878174,-50.13608640808743,-50.88399228093699,-53.548229030585084,-48.93974773836891,-32.32106504847543,-17.139494840010965,-15.514589351829706,-17.280238889274138,-10.76332946600608,-1.906120644271411,-1.2356547173358656,-12.645883655141887,-29.450040652518403,-32.841205815652316,-16.82440737470244,-4.7424677400862905,-9.16782589404265,-9.323077723421902,2.5935650629237834,6.719347932910976,-0.745264682765292,-3.885774553772113,2.649692344445733,9.809117526004085,6.286386809905704,-0.8264067836754689,8.687857298680186,22.355354732014312,11.511669836918017,-8.94005187415603,-11.70253968156312,-3.4987827367414095,1.6662847331878456,-6.098887611242459,-29.647063648386165,-43.08121566382134,-28.54912278328426,-9.154862795697357,-2.6907225011740046,-0.1224373956808904,5.258613009938646,10.108052916909894,8.393513570639762,-0.5520283548690053,-10.227406005528684,-16.872883888448353,-10.612142818364275,21.03749910201432,56.60443296179436,58.25107617428205,27.078972787523305,-9.02054705269228,-32.9311832817034,-40.734438467817824,-40.72811259219532,-41.87521044317995,-45.577114006013915,-61.3661055822549,-79.57840807420902,-67.77836069744684,-47.65917039153793,-52.033684109229675,-48.930781810046625,-44.504881129718505,-56.33790988304071,-5.384345042668741,122.83166352800271,302.91998184145933,561.486852847728,585.5872734937275,31.630140351688652,-528.4837242846203,-400.92568177528256,-59.37112974466507,-92.97251739025573,-163.63528773337407,-46.946294630206225,-23.374247878233078,-69.59000888586817,-21.645318293946488,9.007814535347936,-11.137616663935567,2.3657860669418884,9.178531334953032,-8.18248407643878,-1.2644834514517207,8.019354903075616,0.4645496616590421,-2.7856362018090834,-10.196952330526127,-21.4551803729218,-15.055182248391164,-4.0419309499215395,-9.089654735397406,-20.914808018110307,-23.00635837394597,-9.729596418508924,4.8236872414298535,0.3221144835133414,-8.864042930845336,6.011600961195686,32.534509336584584,43.8878498436441,46.321448336413624,53.371759661136544,59.52055963683409,57.50817297271462,47.30309627050406,31.669980526833903,14.29154199063376,-4.018329145780838,-22.962692077301003,-38.564051297179844,-45.43010334069836,-42.103869538695854,-37.96711037581462,-40.51807789338409,-36.80202715393997,-19.45997140949693,-7.108463304248419,-7.739787758836265,-9.199892468894205,-9.454518117687101,-7.621246649006569,2.760076575823412,9.376461179901778,-0.07889272841994988,-9.598934241961013,-5.597044365568085,1.1281205850228364,1.0686375774619101,-2.380659729363064,-5.945338379515151,-8.99188402586602,-9.312677746922056,-6.010780955342089,-3.4164358147911216,-7.502640541129608,-14.23036639559298,-9.943064227660525,1.7524408845414428,-0.23226642737241932,-5.590920190099943,14.016368787245572,30.600309053235577,2.417829977514792,-33.89873675053115,-31.68571456650058,-16.965621883833684,-16.573760484172745,-15.522154417693894,-10.522435363147366,-9.409774840586994,-7.2094995325827504,-5.5903475740953255,-9.733561121086598,-12.53855103522612,-9.855587490100607,-9.724188833258811,-17.713820481392098,-21.871543967185236,-8.207928253394886,5.596114426977055,-7.136547282539475,-30.08241385156078,-29.77413463268135,-10.127343848415016,4.401463754274246,7.2695482941605585,6.411382688264249,6.265755534772837,4.681584742885187,1.1357163353351138,0.06636999285508693,1.7918754058422817,-0.7198022667843169,-8.660481190318926,-12.291576707769833,-6.632309476661151,3.735288309146072,17.6548841983582,29.108386723219134,19.0585144040515,-8.10501754231063,-17.484805931825733,-8.836655684370635,-17.528126639403215,-33.49354716546485,-28.67491969506624,-32.649551899592566,-55.20815767573111,-54.703415311944845,-52.167107680618834,-72.49967541155225,-65.6553395920765,-54.524071020574894,-72.78332471415366,-22.122405802717864,108.31944799371053,268.2246281057986,492.3536418217442,501.7376877318648,-9.12146030103385,-481.77576076724597,-315.0038197710161,-9.850187967096844,-64.6097786534429,-115.09670043171418,-1.298498496841809,-8.481666235205338,-75.16797570495177,-32.493910174937376,1.6527174885368794,-16.65883604838869,-10.94884051955745,-6.002833159620703,-10.931489623171878,5.533717259819859,6.37265537844902,-16.255035676953003,-10.202471584495612,10.607364660525937,-0.628507473348634,-23.262865949966546,-25.964259442704268,-21.12050249643482,-17.033760589208782,-10.58163118966463,-9.690318746412693,-12.385203260439845,-9.825747910188342,-2.5489355458040506,12.048383170794555,26.95778265818778,27.763245823484148,30.56821287666547,49.3163562278103,58.92747172728984,52.81714749378782,52.46352828104203,48.30470207481429,25.99444949051687,3.8555822382599896,-13.218457792240418,-35.16609861146354,-48.495231515962196,-50.50629636958583,-57.27268691178831,-55.00758909795543,-34.73521538721568,-26.94081997097527,-32.786466129787335,-22.392743201003476,-5.973976692043852,-2.9587542579341033,-2.239129781967403,-2.2124798317643837,-6.991758180420657,-6.530145671566741,-2.1909840713757447,5.287538976966633,19.227988072400024,13.71436280943944,-18.210711744729497,-31.458989548577286,-14.786975335406503,-4.224564549674241,-4.712208591798769,-3.8528890774813984,-8.153349623204353,-12.85630667726842,-6.787665155547339,1.4409509283664548,2.777005787929374,-1.6145488870044815,-8.44145864896552,-9.909570717597418,-2.0311914387739485,5.048983851042507,-1.4660365002414437,-15.99605508356521,-19.87323095012171,-19.045955284883718,-31.65021634046444,-36.97375615488679,-19.390570954950427,-13.026702337520103,-22.329722779304088,-10.361876001149698,12.254834401421254,13.315839458416926,1.5318350178641662,-6.742412334645616,-5.9066623663254685,2.9576839029335176,2.572185824816188,-8.180344517632907,-9.251793341157246,-4.5907173662390655,-9.040399400778067,-17.329733951044073,-20.88380452431809,-19.572573010338775,-18.111079731204672,-17.84485550726502,-11.453179325691636,-3.6218112443624797,-7.4369104332517235,-11.876305195766767,-6.1043069562485,-10.542043751427096,-25.761011965835415,-11.650849542367844,22.368561069841906,7.30496486473927,-40.26529894054528,-22.645606160194216,43.03828043805951,53.70144065896592,20.286054526232114,7.018641244685487,-1.971968672538189,-17.989278012664844,-16.975307144493506,-16.3023093944091,-34.17926669458419,-51.81384437653918,-55.64929304300688,-50.569766385652365,-59.33694823661008,-77.0406058365491,-69.67750934089389,-78.18048106597583,-109.05032190562723,-38.938390913524245,120.79870621952998,289.6892848886429,520.1450574794283,547.5513265859224,22.32652403994726,-502.42147126321345,-354.5361577739367,-27.749394163603263,-77.94136151892799,-132.17288440929255,-1.4020446086288558,6.190864640851004,-54.91570833084113,-7.45947592298697,16.937287114174406,-12.752400884945189,-0.7152684435573935,5.843032157315848,-5.926119233177907,18.33833312841647,25.83858386548679,-16.180788611756675,-38.0799661017623,-24.736179388675637,-21.113968939255418,-28.1088391032768,-28.213505487770867,-30.72003890443692,-44.520947049778385,-53.08804727991246,-34.506681620423706,-2.7573523762244037,8.341427081943252,4.943791172465148,11.356620789612837,20.367586435845674,26.295740805189332,35.78632186880612,38.487962778847425,38.54368001517485,51.94534071800112,58.42136244455015,44.580466641360836,27.376157326280847,0.6076310841801229,-31.68519622994105,-36.14397877227107,-31.659448242287084,-47.62136116211645,-46.82298566866449,-25.253273230682034,-33.1025801131287,-49.978731698631506,-30.32824374749795,-5.958053714235625,-6.277057962565856,-8.359721792400638,-3.2552052796239757,1.7837979074245247,5.502334488153583,-0.3078179955638429,-8.934400485671212,-2.3049482723534407,5.8467120334753115,-1.6786299491301513,-8.566465776106323,-5.560721781852989,-5.053938440226041,-5.159562620804209,0.6947733723690241,1.7379583626988655,-4.66934490890724,-7.834637947060665,-9.633418191539484,-10.4153465072988,-1.3399852177150535,4.385251263822337,-5.5710128405570405,-11.081565025276234,-8.147856692037017,-13.248981061637101,-13.479289983691366,-5.034357602521085,-11.557044200092525,-16.376186026580072,2.6524665025079637,8.85346146782535,-9.759936113971104,-7.366311795120884,13.431518696109928,8.460419644740002,-6.786907944909446,2.8844890276099795,14.52897915722993,8.593099573707999,9.595248413618682,11.749115058170172,-14.130838773141264,-40.96602330043926,-34.06376564797736,-21.13436923318151,-26.47115295734927,-29.136586802941704,-21.308404583357955,-17.613207124038077,-15.032343155940778,-6.258066514388759,-5.640543675979057,-20.631580387536065,-28.035389918768637,-11.222122515807367,16.96120088170564,42.264761414379485,49.31320549753369,22.35464428740505,-10.138209577459275,-9.503963283260626,-3.367514011830341,-21.646633972552536,-31.011381342018538,-26.67530157956698,-45.14196849053894,-59.47347458543138,-46.534987790349504,-60.50101856042922,-88.30941868701834,-73.26976425443591,-68.31277126714478,-72.8684382352398,7.0409667782959104,143.3105194481589,341.7216625568538,581.4729882734862,438.39368034878225,-190.30184729280057,-508.8435319390147,-202.0581395728588,1.012143078171711,-118.94688673374148,-95.21796560332078,10.658786277979708,-45.29050980466399,-60.32060305943901,17.159782093296513,10.20355216504467,-14.834996510268745,13.577590496711652,7.687001778695928,-11.06088093712583,7.385674854128861,10.666309811116923,-5.053751714513027,-8.504516889125808,-18.964454964223023,-28.23639494691629,-11.262495473330063,2.9411246898690013,-11.509837109782413,-33.61653955232703,-33.45976095718318,-10.038154916413726,1.9234255500956356,-7.308513295710016,-0.056186780893471955,24.428260006812337,40.65231696954811,59.24021511995882,63.51556578348339,30.48129677157589,16.4446416674146,43.331482355272,50.596913722522714,30.960846897645133,6.551799509635795,-28.528533410390935,-40.0870496911395,-19.440136095666908,-29.706591823394575,-64.47678217423352,-64.51403024839638,-44.18948268804312,-34.83708053387762,-29.554273168883725,-23.156548097517415,-10.917734226723567,2.2766024919884167,-2.768141772678483,-13.46620047275499,-6.380936173021636,3.8959409815136716,-0.838611836741002,-10.817885104116936,-13.856641099277036,-11.896665310405012,-6.769478659048758,3.8113423972712575,7.747519148949301,-5.4636228584278115,-16.6533307240449,-14.056841827134289,-10.568922012913005,-5.997223744868862,-2.7946205245137197,-11.237145242679595,-11.287416561101459,1.6935765387541544,-1.8321588881082977,-8.03203028063798,4.793030583041286,3.9421337577913853,-14.618609535960342,-16.3941502141029,-10.922068969746656,-10.611949845782942,-1.9233451206183858,-4.38723660682091,-26.882199367848976,-26.023386274872298,1.290755949332036,7.558777065660305,-6.725966464543637,-7.931507960966247,-2.5060297381095253,-8.617350363289258,-15.864274361946297,-15.25475011940086,-12.25178538177995,-8.570166394194953,-7.887617371732034,-10.657691403991521,-6.035133867297741,-3.2495422111707413,-16.214936785360837,-19.241643652817427,-3.540348658110446,-4.820912924594058,-16.597086124418155,-8.72897820965489,-4.393350473426175,-8.625830292285112,17.65397264052006,56.666147488878025,60.268283808538044,32.59309741087246,-5.457109734714841,-34.43591921047363,-34.429501113099256,-26.136718495677428,-33.115219417561484,-43.20838760848021,-55.06968467134089,-65.09858767505851,-62.234387515347265,-67.08171876410533,-76.33706675962057,-75.66027482465088,-88.42631838677964,-68.05715098862622,43.32021856960121,216.30713612223525,469.0940544321176,626.2295838808793,258.5100143038424,-388.4191842639045,-482.4126281198496,-107.23768552816303,-10.580251272030651,-132.9704702950094,-71.70584490294428,6.614851789945092,-33.180158042999636,-22.13986919263947,17.762192888207142,0.7747415627164784,-2.0539313865366164,15.440251629690966,5.7980655084041,-2.787427763184265,0.716925248802923,-6.527732365761173,-13.943749516587333,-9.477095668377698,-6.455371066500833,-12.230207362772225,-14.513271655188035,-8.197547133064642,-10.737895486481449,-25.20978493905105,-26.48977835336832,-12.264687792657252,-8.727322590768367,-12.043036685011302,4.873526723503385,32.125652976367974,43.51120850141959,48.44952352582855,58.96104983723132,61.50153370985686,53.93220855559248,45.848159692834244,35.809789373288886,24.27442586904897,10.766919542011646,-10.176502407319285,-29.670814860041585,-38.19504680449894,-43.35475720514262,-49.93530284858477,-47.78498838100116,-27.928762055640355,-9.833122042194002,-20.1878796058732,-31.25957314959033,-8.845549558933634,8.594683581849273,-3.721787372321579,-4.998952441089919,7.779567611220539,6.0002857656055735,1.787915331634725,-3.142820016040858,-21.37687514613389,-27.21716652726666,-12.787838467144475,-8.383464517466525,-16.719892359857532,-21.01021241509804,-14.359839516835969,-2.4986056087148647,-12.63771819192257,-34.477286520568704,-11.010359010083977,29.834127600622132,5.924509111881676,-40.72945964364136,-23.407585479437877,15.386865529694443,6.948865115847305,-16.2307072129732,-11.496888288350117,1.368649369850175,-2.669362422694796,-13.887955312529794,-12.242572763014735,-2.357466454499651,-4.384100997073386,-14.316522353550237,-16.739596371912484,-17.31014088249438,-16.940503112905272,-3.5977197182971707,8.162010452818937,-6.628108696622498,-33.228307825546636,-36.094584769539516,-13.340601448558651,1.9660557005298145,-8.105313008596568,-21.744647674705753,-17.030402802062387,-7.073190980646196,-9.655982946842343,-12.971034547876695,-7.072846407319766,-10.685842756988023,-20.27384957202738,-3.2130639879408065,15.834062663270101,-10.059303404758978,-34.028716169052345,-9.47226738188013,0.2946471256048717,-30.271671861753127,-30.314876979000175,0.7631869974829115,4.565672326470516,0.37208478324540994,22.514202920667252,40.707652801310005,30.63760955203612,11.99336766477076,8.533683808335194,12.379560850107147,-9.235710258613562,-52.10287650874427,-74.01489812765193,-69.07547042648036,-63.541789585852726,-75.3817470539762,-96.4959950737634,-86.57426583441503,-61.349154863207374,-75.59249755641923,-59.572923809687,65.9442270285833,272.4481677736876,543.1755308739855,630.9206278993809,154.41608504760552,-481.82146909258256,-475.32488127259313,-85.37477524792153,-33.62933836889711,-133.1773164156772,-34.92564530693054,17.08929451652977,-45.92259670619103,-17.850548689007915,25.348515367262877,-5.372108257301399,-3.1916838129507052,22.778064878787692,9.597564966457723,4.728981195107835,10.71822726338631,-11.186987567271395,-20.707331128490047,2.707915587066208,6.181463141551644,-17.889180024128976,-26.510957530847975,-23.173080114363856,-29.4566211374091,-24.571004235776122,-3.0556252871861673,2.5141985697127778,-6.453103657005741,-1.782476307734644,14.515551878731863,32.21378041721504,50.08195188611901,54.832188492220695,46.091642303673,49.374590325896335,66.38533752142163,67.03275166611921,42.76269084469487,16.08488015806727,-1.4580548996251421,-17.606750161019548,-33.20844195005561,-44.179709146441986,-52.13632485179114,-50.613646516853834,-35.638536014231235,-26.65127633904181,-31.70857003481762,-27.71938768291318,-10.385753382532751,-1.691194583352603,0.7894022537486052,12.512282834628685,21.07531568897162,13.291917525985323,2.3830997952341173,-3.1457095968929867,-10.319051437159859,-15.625244788355104,-11.513235625864423,-6.277382543985606,-6.784157764835815,-6.919971865589712,-6.427939175662656,-9.07575509478044,-9.22868546389453,-6.171498629372158,-5.5421308577833965,-3.553367300544778,-1.3774986494474337,-6.88044806117637,-9.782132481139433,-1.4727044630814303,3.624611250575489,-0.9414917759547556,-6.514835386350416,-6.993086463342328,3.466666211349125,13.333215664423363,-0.06440997156823691,-18.29589502598845,-10.689264226147557,1.8313185268620167,-4.995719214195532,-12.386378929638797,-8.265477889482185,-5.443506434487249,-8.347144314438323,-9.881210920962069,-4.682999178822019,1.376553291030561,-2.9389354086747908,-9.201471451808024,-4.361147514901129,-1.0287585076244579,-6.536943499999687,-5.806009821113635,-0.3824330016707158,-2.485176860101518,-3.6049343431579235,0.9467485144372585,-0.5297870428458182,-6.459510752447018,-7.289936931585865,-6.00526729443674,-4.319246458509319,0.4252124230309384,2.125176888069883,-1.7544389402227498,-4.5664854970499285,-8.880769368484591,-18.429060544392243,-21.511537122311125,-12.642772081222606,-1.1196417894810033,15.015255082010388,38.00107694004092,43.66695064453039,18.276634125328272,-6.5796857081640425,-6.103151741706505,-5.901164647475246,-24.564560758425873,-37.166806684064646,-39.212486448668216,-50.79295871840287,-58.39956051183714,-61.036995208358476,-77.36244255151888,-74.28046372186127,-55.77410388059669,-67.94157248157822,-38.82106033461111,82.46233650012437,251.6670319394416,508.75056800839883,640.2863319098816,201.2399365109857,-445.2761672243573,-458.0388905989464,-77.01165224124546,-39.78879270792868,-153.91042736967026,-59.17737160061796,-2.3425961275152503,-56.371204804378095,-20.88704113520528,28.073088411054158,1.2915371715442063,-5.454533105977876,7.541472478699536,-3.388813954196632,-4.5906826124933,1.2947489260295235,-5.83670259788226,-10.661092114300002,-14.448355862745515,-22.629516179523566,-24.834349190469027,-16.406858665620504,-1.2741736658662592,-1.5024537857004958,-24.19106025424256,-32.60762140005143,-24.554564999825388,-28.807080020640665,-11.716228001983223,42.17369807943779,62.23318427901756,39.307345079402495,45.35499980117672,77.22699197881957,83.51888841176364,74.81527502401488,72.25180579144416,59.93045730425608,36.20015565126819,15.656593449225724,-7.17036367521808,-37.94148606830436,-63.033947236792656,-73.24797279264726,-69.12708759024882,-50.78099033332964,-30.660763606995978,-23.418619500670854,-20.38951067717467,-14.004126406707869,-13.384181009167989,-15.01742625307186,-12.332932932744313,-16.10584298206008,-25.209472009787007,-25.991988807041494,-22.16697419832828,-19.171559170687758,-12.828140797487922,-8.606668463703183,-9.661654412469051,-5.824450020386934,1.511297787322217,3.058739542543968,6.10233831235949,15.389722105697865,17.425145206913484,12.76664626316745,17.66043302843468,21.24112692162021,1.6966486566421537,-24.70892534590543,-31.688040521277678,-24.24951961219986,-15.137273582301894,-12.20086550857291,-24.335375726672126,-39.5747586686465,-38.1702917707192,-29.151503291086456,-27.132804262191378,-28.042429812427343,-27.539820058146034,-23.055744081694446,-12.598999385925012,-5.133202067133759,-6.095273137649443,-9.314702729167681,-10.257628976440227,-5.117286661330688,4.13069764618052,3.955910056388353,-4.8796732151051785,-6.103996339181776,-2.889160850816886,-6.2252227450580815,-5.4310797326835925,4.114350208507366,5.859437937971816,-0.5601177975578437,-4.1201907802816145,-12.328564257464993,-21.438673017080234,-12.402568460948677,-2.2654588538955878,-14.325630321638954,-24.253731014997218,-17.291374190400973,-18.729570336310395,-25.856282847449236,-16.684658921672217,-10.71494880870813,-20.536453912391103,-10.910845888292126,21.813958252827266,31.146913300064217,11.410999076095958,-2.1256154543654926,-3.8676427573064913,-6.061901317499926,-12.139120375993405,-26.278678918747595,-42.87089335911489,-51.24860844427058,-54.75337908730851,-64.8915288457481,-81.13555983929113,-72.41507532142133,-46.32857958492835,-69.8467964900146,-88.66599130680237,12.45461545634086,185.3239835571411,413.635282136052,637.1006760537008,422.24655679422875,-242.83613882801163,-513.6989221135971,-173.60816351865515,4.906717932288483,-128.82992765985426,-107.11441133749058,-5.195575984019243,-37.612856385160626,-53.71282185192452,-21.606740992338164,-24.583297513063872,-13.977609943670494,4.130234681117024,-5.768057379952943,-4.8283228062560966,0.49016743431335996,-8.10712624678953,-12.547322280980666,-22.58024762752531,-29.687032545941936,-13.873338403189297,-7.1832032734001245,-19.44821188139567,-22.832552378987124,-22.006440378651398,-22.951315520663066,-14.706609459415905,-4.7310152812561235,2.2540821298634306,13.155655534478473,22.90024180410419,25.59319792269585,25.93597091985488,35.49465152222898,56.638475225617015,62.61363590595215,42.88862846759196,35.301122176503085,45.31571828853415,29.163826080295493,-9.670491816004084,-32.989514917599294,-42.87889460267786,-50.6066448371583,-51.622930891290366,-52.66586229636245,-54.20916030852045,-45.55349709362442,-33.39974491451275,-27.775747038978025,-25.479800174746295,-21.777934394698512,-16.348206916978036,-11.158772634336453,1.8479161760616627,21.7547997425685,13.86817463928144,-17.081649874168303,-11.151011989089547,17.10367167468817,7.877967387297485,-7.649073725721749,2.311221590569147,-4.798194874819046,-21.178076273086234,-8.024687152706274,-0.23427103283669481,-16.443171359595958,-16.29675586542624,-4.686741090294543,-9.150441268993195,-8.463369650137286,4.974289182350002,-0.878728731285932,-23.047696662025118,-25.21434657882151,-6.9964197986990495,3.352478401079397,1.256098211517795,-1.5509389195027516,-6.168757579877411,-14.594284299373193,-21.434740472520282,-25.150697775606105,-23.556327057682452,-17.82402190453043,-17.97190468180742,-18.707317979191846,-8.26415254836995,-0.21443281714799056,-3.203141041190623,-2.154318379747604,3.0929898894712924,3.577210399896849,2.281442501042978,-5.767173823851424,-18.429552923298672,-15.806205630096553,-5.102646509045787,-8.168507323662006,-14.369485040716514,-9.494059055762538,-3.4500116419688283,-5.210790480536433,-11.901488973091553,-16.264444908347198,-16.560374376551692,-15.29923445547334,-2.0452520365527675,24.775154766184144,39.002599400915706,32.609639919546744,19.799882993940447,1.1493407194170064,-12.998862964872819,-9.987475532204176,-11.282233043179854,-29.240814419413795,-47.37054790957595,-54.459697540100805,-50.42585902743896,-55.87250939618082,-73.47747696839428,-67.8289858251562,-64.1558509479194,-81.5614191354661,-28.874885281705126,116.06727714879744,328.23351809520864,593.0649918216928,556.1947472448494,-45.15378910339781,-548.4110357613639,-351.99034797547733,-23.53555555654581,-74.60763969857408,-123.92820522803727,-4.700382118083262,8.249246469207641,-37.536528019044326,-3.592501997285538,10.530538772851537,-4.6769207124117536,13.960471063741883,19.792333779335983,6.865884168810455,15.186267077873126,18.330834136590127,2.257905440933178,-3.6044712069830895,0.9978330202975094,-4.825576470337957,-23.55906894031848,-39.42147479504829,-37.7343802675889,-24.854212845790688,-16.905131285179092,-13.428824425326784,-5.391713711424531,4.045333815325289,10.804615719398164,23.51235423509728,40.73597274628237,45.368694033764164,41.587429978052086,49.742689569478145,64.40735654597476,67.5887482023796,58.09586278955757,40.00803630858043,17.440476881443825,-3.057502182350674,-21.624088219474576,-36.21451816571421,-39.867868122927646,-38.181250654508034,-39.262873022519614,-37.880221774471494,-29.38000282973184,-17.85001907907689,-10.3374604664094,-10.538783146153143,-11.307249978357259,-5.424073611107183,1.3116074962521944,3.691694846729396,5.139519795840872,8.341460091151166,11.56387528120558,8.33633436072941,-2.904473172296589,-9.901296893585059,-6.42326507272272,-2.2901996911251974,-1.865751973128753,-0.34161046594534916,2.5432558976889474,2.9079652945288847,-1.3299746504700192,-5.5495429198282675,-3.287431967395648,0.5469741213773425,-1.0831309207175028,-4.634642887041668,-8.873367522666399,-16.09317692877212,-20.286772659015494,-16.751509985231017,-9.441348598365305,-4.196548037925396,-5.1968869077771735,-6.305442024090445,3.698525635242497,16.073412331310678,13.593952926742183,3.239738896545729,1.7925706933043521,5.9395776978853485,3.2985125289488337,-3.234422633580131,-3.288711452448206,-3.235747696334041,-14.10689558106317,-23.939236017354446,-18.881699479108946,-7.903296580681474,-2.3239395527819653,-8.820772679302962,-30.73806055576179,-47.385997786598224,-38.374834590407936,-21.59160969147641,-16.48963637456244,-14.780486574196381,-11.044453640353321,-8.747891231483486,-6.34727508615039,-5.240877358826168,-6.533810344229842,-5.591796737901769,-3.058131572788664,-1.9220470910786496,-1.7078501087087936,-5.0270001804092725,-12.073938100208121,-16.290201324980664,-15.599534628727369,-12.95064218135715,-11.18777562530581,-14.337908511191216,-16.48920221480899,-0.5156134323496335,31.52208349021818,52.90819133741883,46.867588189416836,19.239170587185956,-12.046122635516777,-28.436863842278754,-31.619361288284942,-38.34351603649203,-51.35618099467399,-60.32858680491906,-57.9101879266927,-54.353773020081334,-62.22658327236762,-58.3881696588045,-48.825558656467976,-80.40940164908872,-81.48952148734534,30.92977884568198,178.20054095100204,376.4640907972865,594.5928455515179,385.90074624526403,-271.6820054605913,-537.0402233209636,-195.7631951515967,-10.751203437024955,-130.0569062734486,-97.70203202316831,-0.2183165579614439,-41.35480843382336,-39.02608575913183,21.840299467110434,5.509639601550493,-13.536618741401256,8.118998583829537,3.3523148109371057,-7.074766971496572,2.2477017016887277,2.850537726031529,-2.7699339770989138,-7.342161843472811,-12.836305244080371,-8.653265512117482,-2.3536549355209004,-3.3036410068293254,-5.002034958460381,-16.68335433626229,-37.001941417097754,-35.7710183329502,-12.395963174184335,2.0937337445105753,2.180153902293563,5.904834418900808,19.524115126442737,34.40799103411995,43.63410545348172,48.2103879983941,48.13039301417256,43.1779925183261,38.69253554767884,32.26245671444567,16.578428477314084,0.5015038223407426,-6.553161855539868,-14.403715574205865,-31.333455816368847,-49.313436648370526,-55.755803132189754,-48.9841329081892,-41.99934117200455,-39.16645735976701,-28.131413261378555,-12.767246779724672,-9.134076768797804,-11.301478803647587,-10.369981831292105,-11.754085890844483,-10.128681077074386,0.12699239093870496,5.012369601488807,0.11775567941439924,-2.080796776545835,-0.13440750341582586,1.3166085247681973,2.822400814270532,0.4000103396798167,-6.626424275315262,-9.768318357498263,-9.077991644851586,-9.322612859906254,-6.483000912113649,-3.7142094086968456,-10.549785834464135,-18.084693728057417,-15.023323022606817,-7.990265644063447,3.6425514663964877,22.161286760166917,21.535291880192215,-9.835607918921745,-34.42519877332796,-28.490943274962824,-15.645651357918203,-15.032194726626194,-18.74443156806046,-16.822531701009947,-9.423922538395539,-2.132065100794442,2.776131979743294,4.1266882498193045,-1.188997181327359,-3.537592619155401,4.60554071658121,3.8274840895102153,-8.295960267723485,-1.6635372439373488,15.355729279040066,9.083396256902649,-1.3471832115267086,10.53597100911498,18.884567827228345,6.498689129898361,-7.229760008393239,-15.100976422169278,-21.94415174245247,-22.934113007879617,-15.56434116985922,-5.189411327547113,-3.499619126783049,-19.291035503222552,-34.94655870209628,-22.629192046274788,12.542388587853885,40.03715221788893,42.099410360377234,23.744532749392246,3.352427375412905,-2.8965660869073373,-2.2829575482602946,-12.677612026652053,-26.582616746639573,-34.63076872081676,-48.97647230233467,-56.7654531924054,-46.54834144690161,-53.77991768825311,-71.60159141943993,-69.02052744591435,-77.28963893580341,-63.13725232220527,40.966189958610144,187.2642231454908,381.48829839546397,537.6630521003008,263.21051931024607,-336.7157587853123,-481.9746937616469,-124.83922487987593,14.98434463870041,-93.67586741878534,-53.75688631221146,0.916043531336939,-60.14317053219799,-48.2211469582798,11.94274236559118,7.642337647625261,7.754991727946755,22.860771404234725,17.643105703317758,17.885413267325934,-6.1023147104059206,-46.87366927791583,-22.33162629830019,14.540134426618078,-21.80368039028616,-50.80604429634481,-18.081998576536293,-2.355395216094257,-19.953777217180896,-15.430624503337008,1.8587846459130715,3.6958374808978336,3.9898561982435328,9.103442065407517,14.36528505623081,25.257224105501628,36.08945239894506,39.96764857320425,43.78105626003224,45.66687056033886,43.73341544049552,46.58920777884474,42.159863142578146,15.200916509598233,-13.204945232762377,-25.549048886128855,-34.615997126507594,-42.85324123510254,-43.470288539044255,-43.3788711208134,-42.25820260669931,-35.270012511717546,-31.517787835153626,-31.291747664584122,-24.78158744223267,-16.713010148532586,-12.008161486530636,-6.475217013282883,-3.817249145115671,-5.359107928858219,-2.1914906172820565,4.474730839360188,6.655682365500072,6.022622623080986,5.102749142626846,2.272474491733492,-0.38866701565162565,-1.3401024118872638,-3.3211639564851367,-5.159286958577834,-2.2910241859979195,2.6598985009463965,2.123379634512725,-3.8239230627381744,-8.373057215785177,-9.613296892491018,-12.23253227533587,-18.122802712960393,-20.756716755640557,-15.700135549535538,-9.80851468840385,-6.447295347669598,-1.5892223697012504,-1.808123462126627,-9.880496620887865,-9.968396094916494,-1.8898216514033948,-2.53490652519244,-6.599794939819667,-3.2777253049388673,-1.004542614580739,-2.2756991972725604,-2.1258974327955826,-4.136407199278246,-7.104803327077356,-7.0518902282811045,-6.684378444988153,-3.7694666094312304,-0.13902714265951488,-6.0979401909491955,-14.122493192503125,-12.183172920933867,-11.228649459810027,-16.662327911720524,-16.947534804940524,-12.599703672620251,-3.7360238323505692,21.58884357163159,50.97935689366228,53.92008105498288,32.376063889569195,14.06998901132846,3.3966743522469374,-18.879519756356785,-46.82039718616238,-53.034549038530415,-47.241731305200446,-52.49763667412921,-55.865986713562926,-54.53549178525847,-54.739270673330225,-42.7124397453249,-38.86383837094816,-37.16847574875054,27.627224093043104,131.47863856170505,266.2493539643991,455.0398918696309,383.71449202893587,-141.46097345060053,-495.06489696756114,-240.64836040068093,26.571612410486157,-67.84620220179188,-108.73644076177548,4.594777973326934,4.394435151681009,-34.126796324475116,6.788195031316899,20.97648849156044,4.057507227815428,12.083860123846886,11.688609744157523,4.338698015659153,7.851876271756303,0.6198319920440234,-9.347514659117923,-11.317229772843504,-19.962261562429802,-27.43379246500428,-23.900931088363524,-19.50952862906996,-17.557070434702986,-18.576461344168443,-21.385114612417794,-15.328510305753197,-2.2157846666892147,5.721497011365845,11.919639285931568,24.381009931904096,32.156110483607094,24.3949654919753,22.811079381220367,47.90378907218191,66.29635975356204,46.06772151365077,19.860218092616,13.23575726208099,1.627615135581562,-16.342904002879695,-18.404573790555393,-18.657945744086916,-34.4155398941419,-48.01162647082033,-44.21258334767146,-31.804384541480008,-26.047377068601136,-29.5125220763046,-28.156735945888357,-16.954653068440884,-7.90632895363516,-3.434964349396555,-0.9043158402056335,-4.41525350158566,-7.513488250805082,-4.048874400027556,0.7426545908235482,11.539701063094544,22.174056606048048,5.535649038709664,-25.925615468430347,-31.390247446948212,-16.376887658495782,-7.1763127781239895,-2.9756997229955147,-2.2236128456482476,-5.968448417262907,-3.603850664026723,3.0967244374933243,2.4915122556701945,-4.236708981919577,-10.97015724353689,-10.589643872766564,0.0410095413048257,5.522866529245212,-4.028963746674934,-12.93501537608443,-12.140354502616628,-9.188287081642097,-3.9688817838070762,2.732715563773931,1.0926384208271056,-5.237025337566924,-5.877824545659179,-5.032238532872752,-6.228842779055309,-5.8072016297257605,-2.036110236360835,15.825753847354129,45.822014475511665,48.19242038504849,13.10803864085716,-6.4754533519688735,4.978541109621361,0.5284632943330898,-26.286507845589313,-41.59839664812034,-48.44802765811271,-55.90340858059986,-52.812560412488466,-53.73575955306974,-62.269701984416656,-57.32740887604321,-64.0954258816559,-71.18823522250153,0.19703207766561093,132.21048119256238,309.75996497984124,534.5324326147263,468.73366607253786,-103.78165692058893,-549.971514206331,-353.562179908385,-49.99936873076638,-79.42060396973294,-102.87812790242555,3.556148663579606,5.541623686504714,-28.78418274191987,15.429420977827885,30.531634260412766,12.690793915530989,27.227481742206525,30.949221210497736,17.369585386086626,19.0079888162987,14.885310482968672,8.948033396834791,15.66659399653556,0.6447625564004174,-31.79104726268254,-37.37741457785418,-29.925374334816805,-36.98022254729922,-38.93954476261199,-29.855625508640006,-26.531428512462753,-18.565251425603257,1.509667726052394,15.39878776427231,20.58786693939626,26.899977347863068,32.72806807987679,40.28134645420525,48.956242006660915,47.71725942547944,42.79750853406424,44.29837094117397,36.82695140902027,13.77754678908525,-5.347707738659233,-16.703043847159392,-31.966921002623025,-43.55716864901875,-42.081975356212354,-39.072140372745395,-39.19418086522475,-31.110691271960324,-18.776048848187482,-17.751855028062085,-22.405177463918353,-14.506928733123406,3.1570926896266354,9.777278436309505,1.7351713834445004,-0.3982954026717138,8.247591625898334,6.324877347204288,-6.8780636591656545,-8.997725409206227,-3.1533701201729976,-5.218337747702286,-6.537463484251504,0.245788131166508,3.097479905060073,-2.9006852075035106,-11.059791295618169,-14.69088835424045,-10.987341521300147,-7.8824196781629805,-9.855501370005879,-6.198130463242698,0.2650505519501518,-6.707558105778922,-17.39265304404364,-11.877048128306905,-2.5773468694034207,-12.378096835990402,-29.056980855332498,-19.944005137322154,9.940366687538209,17.98857570465176,-1.5045275921638925,-9.488259123269192,-1.4491285012318311,-6.827942123924306,-20.13880776622674,-16.645279896009583,-5.83882946196451,-11.872887084132461,-27.28202859171363,-20.71138686504019,12.080201316149434,39.714866357866846,46.92641448712044,41.74703396541082,22.26299106842458,-2.4662816787212716,-9.206020444744222,-8.607073634460214,-20.95023915730547,-38.033124460162334,-57.51439909163592,-69.62192480579444,-51.60954717896482,-39.708896615119514,-63.79767732370257,-70.56996435698397,-58.56928590652638,-62.54628422362236,-19.22400723390382,92.80324702705582,243.31961156006264,436.25326059947156,419.65942789457904,-47.606368615971746,-469.9086168136196,-317.0638139340473,-20.907042624659866,-49.336775820244405,-104.80591154230308,-10.34117492476323,6.71466483194736,-32.423438993473894,-5.151077413731084,5.23052573307567,-11.72403724177125,6.845761198029265,16.699702216242496,-0.909003067793865,-11.160540535079438,-21.707626257738127,-26.47190896363954,-6.5555197118159505,8.049536315439425,-4.972243854200354,-24.477655213970642,-33.62772389964307,-31.803291133305176,-19.81678686892632,-5.4055170194502065,-0.5737793093129717,-1.2569607553284758,9.164918260886818,27.3661694744468,35.43225556484663,34.479116599896344,29.489551511275245,16.711275712315782,11.967942675045826,26.919277352060178,35.81143210550815,25.193850374743903,13.117466188360645,2.702584022667644,-9.596796471060483,-15.540348388772237,-22.273513156458677,-37.73599667236207,-45.25563339428819,-34.9907943471934,-18.813613330562802,-7.652245535715311,1.4795201095487283,19.553951002140817,36.734707889606156,28.39456664183843,9.325307976823657,11.008229427604896,19.359929145995157,12.378745686572678,-1.620764220156178,-16.127114404728722,-23.833079421055547,-13.955591138595565,-5.140369592653531,-13.8901056633641,-19.6252715736355,-12.744509084327792,-7.887667138383305,-3.06077422736597,7.205282647618327,10.143350238917698,4.215968456566445,3.8581122304045916,5.144125184456065,-7.150011701894567,-23.463659793175907,-25.19369799140297,-20.290566941257488,-21.435597540041705,-21.972612991840464,-20.323546569812393,-21.551625244950763,-19.316632751734407,-14.838132826655809,-16.636632088062633,-15.997841041445678,-7.337552128793757,-1.7839020240203993,-1.8902760059146821,-3.5270089598984278,-4.943372014238662,-1.7756223608873505,-3.115153439449948,-20.965432971548992,-37.845931324582125,-34.63605121645172,-17.276980835398444,6.708624285333181,23.105769836988934,10.001418327910798,-16.87202928705132,-20.981949516282796,-9.167899582998857,-6.817260622336832,-1.2305102647017017,24.983353303909016,46.68292993193374,34.206958427890534,2.346004877756128,-14.38763635551739,-10.997533850660197,-10.715539774755474,-23.354212906040225,-37.42160842476457,-50.438238160346145,-59.16147229560758,-54.32910726969715,-56.0512448503229,-68.23887243949628,-60.09022710174936,-58.693899843043255,-68.93139085099617,-2.239032933363866,134.62004863608496,300.3188697457179,496.98856245812465,434.31312711723075,-89.72071647383467,-477.7043151943027,-260.7204294272586,-0.5833447191534269,-94.8669432614392,-135.82199959100475,-11.23116279953824,-8.402169432394643,-54.653942861338294,-9.373476740146854,8.922115253315344,-16.17811639789253,-5.962720925048663,2.62535611367438,-9.154947363682474,-3.1801091065722886,7.758407540360341,-4.425282376661965,-30.847628189019723,-43.89921014750644,-30.589041223584076,-13.145375278721103,-10.86052382732798,-10.436733654400529,-5.3579694982277175,-6.923598018043167,-9.521973998970381,0.7612814927916238,14.568004418314281,18.250044540251334,21.33659251736417,30.265242835100565,34.95203378112279,39.650014008633306,51.96136767111973,58.8090976451861,56.55283625843478,52.44135253064786,37.81991047228545,13.986519118592682,-4.629631459172667,-24.48155524901265,-47.240897536859094,-54.04098877848067,-45.79688161161223,-34.74534382717266,-22.104219635155687,-20.76021103684137,-35.5382214906235,-36.91998554946201,-15.431175453769729,-3.916920874504722,-9.466988804564114,4.876500230227349,40.45881527085887,35.123632479903456,-28.324123222673677,-65.41178741228296,-28.652946170416318,10.532993793455152,3.24137656971606,-3.8301173408118636,13.005488058073642,15.008493115167578,-7.179839674445487,-17.054766212051813,-5.245342669250444,-2.8599045221249604,-15.38736204054631,-11.601412565306527,8.626071411743192,15.31236735825043,7.378977440068233,-5.945662083214909,-28.846461615450718,-43.22557769756932,-31.1277920099226,-17.198754992520048,-19.318568534313748,-18.084747233459908,-6.127007787137924,0.4494354478506679,-3.281605674683263,-4.858138570582982,5.856463262683982,17.701335211183412,12.309834908636011,-1.8496691966017256,-6.907479563020447,-6.275002968987512,-3.8124718117331238,0.21795641005479638,-4.257310261788751,-9.78869919865613,-2.1091587921505237,-0.4198328205666044,-14.942772027687122,-19.670141436998414,-12.315176764999924,-11.547000732268081,-7.005346597253605,7.0945973585838935,8.788935927951792,-2.36604919277927,-5.743963979539213,-2.730510910375296,-2.054809219798969,6.164794452803094,23.900352140832496,26.74628922873776,2.974299723862879,-19.056307672068996,-19.613622536878662,-22.976865542346196,-41.62002670523101,-51.756379345525666,-47.21759513655113,-40.03041745344007,-39.7570390283292,-60.81204366454849,-77.47758149566644,-60.522714672018296,-60.00206691987242,-64.99638311047445,17.227119471726212,156.40220858686862,337.0179942603891,553.282795736901,437.0878227946125,-161.48080977528903,-528.7696402503067,-265.3830212856718,-16.14841476059216,-101.11690018940541,-106.66916709788966,-2.2949664068253526,-26.204785616071838,-44.94909693554454,18.010805908576415,22.35137047152849,2.6928549902803454,24.37345425872249,19.952560214160414,-4.877975535076992,-5.469612055077215,-7.09931461965744,-10.238251785952592,-0.19881423011302068,-1.4209156899166118,-15.08513031861334,-22.22656139661285,-27.69398921781601,-28.985516016178618,-19.581487791653032,-16.759155188432803,-20.061664870933996,-5.912076383724229,14.318175347255275,17.637771617072183,21.62254782711142,37.86569358549548,45.025054669236965,41.99607061954479,43.22892917858617,43.878511320619126,44.48338875792306,47.57690244415991,35.22309166663742,10.470736817279647,-0.35760560095133664,-6.766084372169171,-30.926766509766118,-52.08503871202793,-47.37313289493686,-37.096313693576974,-39.92152570734925,-38.848727089424045,-26.61803296546624,-24.6228195735597,-30.766383578724277,-22.463431012001546,-12.476048947854839,-16.888316721359573,-13.396549696730158,0.048538663872840004,-3.0943087794705875,-11.591697952450179,-5.294745954245183,-2.844322470025059,-11.848024858537851,-13.319387038032506,-6.438319286987841,-2.3937079945921695,-3.63207617924175,-8.118401568281552,-7.310304442514628,-1.8932155460325006,-7.444630842318228,-16.258922402483947,-8.766531966303319,-0.9314891283397557,-6.247924665718212,-0.45779681179084974,14.976742438237274,4.527690130720162,-21.853122669118022,-24.58415494409892,-9.588418101971222,-2.9198952805569025,-5.026417860298837,-11.482984160385296,-17.541805333362717,-11.216103456113302,0.14015734687939663,-0.22719666932050764,-4.799899379751482,-3.031716413493392,1.248759009003809,9.387752156480413,16.12103562596088,2.553340351874766,-23.467772445352807,-30.507211785126515,-17.73743057412706,-12.44354902575568,-21.3136491528749,-26.090844607376958,-18.926482922494493,-12.969603967159731,-15.983151979314158,-17.859054235666687,-12.567768173476068,-3.189888268226798,15.424962983113742,40.77076967951977,46.37989941026138,23.03448294989736,3.3915476678049368,7.476759578859838,3.8752640203759263,-32.3055760907222,-63.91201518052507,-57.5854936315782,-46.97780302663696,-53.60095886619853,-55.042785512597135,-61.80419241621078,-73.74685742719186,-62.76170923653456,-72.19323804355082,-95.89615237869859,-20.069973047775832,147.46080217908295,371.51351636625435,626.0143337463958,526.2572473003167,-112.80523346142373,-552.6439887044588,-310.19670607526433,-30.728379840106697,-104.1710055682637,-116.13947322574795,0.4154470268787094,-15.135043250306268,-50.08486312916729,3.4333469851547704,14.588303204448305,-9.799121779715616,3.9065220535906136,17.708722517421418,20.283272121643098,23.288786283470287,5.015037485688403,-15.61112392794147,-10.87303003048019,-4.0363691808472595,-16.018020688145366,-35.48447811891033,-44.09300493123364,-39.327036798812635,-38.04674489808711,-42.43409345660161,-34.923288588530866,-20.637023301775997,-11.555437725369027,5.086377855911428,27.34301151340444,38.13733554181375,51.6851953711012,74.31337536904864,75.84956914992944,59.54966764588714,59.50104401345554,66.93343738677763,57.54518100858486,36.05549678626943,3.578736391269665,-38.077784302444414,-63.457401255389456,-65.60696428488863,-63.53539382379899,-57.71235082214136,-44.31877311167423,-38.90419570406347,-42.409078656082286,-35.037612851557526,-15.421585844823227,-2.7908886373625243,-4.301560787189363,-6.537161970081501,-0.4607225443715812,3.2940294707821955,-3.437987941414404,-9.223737194228104,-3.9811286269421053,3.7095613878523075,2.5953617226921413,-0.5298392525411213,6.453693179972859,12.849387882090259,5.899490729482588,1.3713323895800045,4.7007338294104875,-4.053609070261299,-18.304395192487256,-19.59928920871073,-15.613958460777939,-5.779227658409418,6.665887724258496,-7.566647906152566,-28.943851617281947,-11.725451965918943,8.978871328260261,-4.095867006185703,-7.9438981455876245,5.377310537025787,-6.087230572588904,-21.370613063097366,-8.772404136530865,1.671009572829373,-2.032726553016847,-0.9160349398816745,-6.646443768625952,-21.31193775672404,-15.841307361207473,2.7422779989448554,2.016079320353988,-10.399040534957559,-8.822296621586663,1.4404317343418267,2.826231306608804,-0.0904011488890486,2.715754079050541,2.3357005725077524,-2.859979226482685,2.243576953083868,7.945374222351509,-2.903325629572384,-10.164746190274032,-4.2109788466725355,-9.02607714809111,-19.043739870888096,-11.589968956578755,4.085125286927148,19.90727899478482,34.18443424793155,25.272864443169745,-3.6758621120717194,-17.34728647954916,-14.401456617320127,-18.518879217451143,-27.236262673831536,-37.082263477226036,-64.21160635890269,-91.50525485488978,-82.21811488611543,-67.83566327315287,-84.8674294085155,-88.57958326827482,-78.65936418790369,-90.10513175496429,-43.48984228099749,96.17064256712025,283.25869638367504,543.8021760665898,620.490948812663,121.47225977357955,-484.09468708062866,-420.47100235073833,-50.914135608854934,-51.60178202585685,-146.88645653575097,-36.85117583585808,0.20215097383534442,-60.51883244957147,-22.687429295480577,15.97907175631035,-8.590799739596388,3.854375913538288,22.625302066838348,-0.8856405632267688,-11.767790435369438,-6.4952719858856724,-16.700399555642903,-22.79993825082688,-12.303624626002533,-4.35757268558933,-9.56447259853499,-20.479464539623045,-25.63220656961436,-22.580518269899102,-16.526436213328257,-13.695766587783908,-16.63859501535312,-17.5861426623086,-9.354553007302233,6.682972393349274,31.42263474266753,56.13828523931656,59.97296303228867,48.780884938919776,51.132135640703254,68.874813816628,77.19256144735698,63.328727059617236,39.15150451448745,17.832153788005968,-7.3395513030791655,-36.86683125828347,-47.55652880516876,-42.61604749910836,-53.049943911790805,-63.23733504809307,-38.53895216567839,-8.844772386337091,-12.926505823789928,-28.55810874893376,-33.26539973909616,-33.54110944042195,-23.61454596147999,-7.059380722408175,-8.636916181484459,-20.77512044594181,-15.45300977700009,0.2692606466348586,3.0380162297913564,-4.743574828777302,-3.9160119439457333,5.80304124391032,2.31298216463205,-11.067733451222246,-0.4781366045771325,27.038436495771514,24.67543691312398,-7.044767020020682,-21.352797367131853,-6.372078444297632,1.6062421694492421,-22.73034023631649,-54.821663443399345,-55.30777681195341,-33.19527222054798,-26.51185466340945,-29.885676426399066,-13.499187384909398,6.90511227345176,-2.354925945595788,-24.081014627869216,-20.12796577305675,-2.8911218974653714,-7.404938190449034,-14.50558464466479,9.401665604322446,26.63617967476469,-1.3477080970906705,-26.33461708167149,-14.184680035123147,-8.29634403489997,-23.047932447792462,-29.121257079818083,-27.86553568272401,-20.91592023194952,1.6272345326972122,12.588021015776725,-6.343884791579988,-25.18120737647994,-25.524587410673504,-14.380221799979076,3.995846593480678,13.536603148836015,-2.0810748134567305,-28.047774368577226,-40.43511279158365,-31.78874425099773,-7.5821620703063,14.909925260860955,20.977318572503037,18.338877721144456,20.44844164380694,20.772957067670955,5.943591792643986,-14.096557578148255,-17.124457559573237,-9.4669189010252,-17.466074988170714,-41.389221679295346,-53.952100024945196,-43.73303636611078,-45.4256557700678,-81.56103285257458,-94.90511755555293,-66.10652904982913,-70.78218497290253,-78.94087174728494,9.598498960170843,184.5829721950126,452.53095071517237,663.3074950624923,362.34307649440626,-320.1589785375628,-529.0929550364118,-187.47080154563793,-43.279747142141545,-148.762701508933,-90.07302338782046,7.011331222717999,-23.052203330626966,-19.132475733441787,15.396766527953286,-5.603120261909993,-11.113181192339653,4.89303264362483,-5.8024264414097,-10.86805800023264,2.4358595470540454,14.27768243338568,14.127738016237648,-11.489834384429834,-30.45827402582924,-15.273211501522344,-15.649410123324662,-39.34079086019193,-31.919290150765928,-10.970674575077,-16.87176680221363,-23.387399788699383,-14.906396046238168,-7.880833643895998,0.16548333834453688,9.264261084723314,20.172270224590612,47.109930765080136,68.36842864481828,58.60348158352943,48.95741698933847,52.082606995006344,37.11184214592927,20.95481040030344,31.485166013545683,26.24659631561199,-19.339539237277364,-53.80474989963184,-49.198438071110274,-36.961140096104245,-40.63169759797867,-54.55287845724945,-60.395829907924764,-43.53039047415547,-15.424976471078338,-1.6894199550562305,-9.955715667446643,-23.727014538735038,-17.08483211502859,8.30027739472513,17.414280515834,6.742770565774274,7.038661965818273,10.595745417238284,-1.0352858426793858,-3.3269849082777796,8.718030542250633,7.316742234851357,1.7236184448172747,4.17522672404608,-6.556554765075916,-20.098653615448065,-16.629228054669554,-23.333583726443873,-39.408319325378024,-26.781971949655095,-1.6552659092474968,4.475201440230197,-2.39123278848011,-22.8392693794423,-34.371018533973206,1.2820891882815797,28.71028818944947,-11.050362109493733,-42.45160305874065,-13.174901013772207,4.897159696301763,-10.83838296768352,-6.903013201051596,10.779750753679904,8.698630145216079,-4.8233182490194615,-20.26678255425879,-32.78127361593528,-27.11817775402198,-7.8077361062775985,2.9163678045210695,-5.216859374477313,-19.884787290927544,-17.07306040296805,0.18304298335446845,4.319211456467414,-4.265780514058534,-11.086031240281223,-21.451270254919443,-27.60456643075459,-11.670648229765611,12.536273577708027,20.624860994942193,7.450511437971434,-15.593106536102244,-26.28137196959257,-21.35656647663059,-17.832387949615804,-9.568599303589624,6.180938772622719,1.203488346828749,-16.168840365374287,-9.193558789940525,4.660162855361278,-1.9753820321474045,-9.104240072709164,-8.734677256913312,-17.195393924817655,-28.357365277484924,-27.5952725728703,-13.932246397256286,2.0346361126408006,8.37331092297486,17.44769855069623,39.0116807539001,44.57837112726773,21.89649764717417,-2.8844681996796275,-15.713054804811943,-16.89577570535712,-11.779870292844294,-15.024128775314525,-28.810480670550508,-46.31154447555407,-63.50351438478735,-79.11440632446377,-95.46411604986125,-92.96851093220346,-71.50622881989267,-69.58386287365771,-41.56154925791036,69.34726642985852,222.67864996367103,446.0141791692687,605.046567128872,265.35152306231,-378.5436583019679,-483.43996088238055,-101.71277842187139,-9.27141377093777,-144.04431458797984,-69.92877576703347,11.919958793474677,-50.93462399610438,-43.395632208103336,1.629295629772603,-31.14370490554322,-30.954843691840612,18.299518993919705,24.058733498063873,8.422720519878204,-0.3744837964406429,-20.65270287684121,-31.339641617837916,-19.814223935785716,-8.660700864864577,-5.234266016224563,-7.483754197188636,-17.371885780288736,-23.350987935975656,-11.304982441214115,0.7634139476007631,-11.241292506221807,-17.770656058999865,5.388023905840663,12.296745438663164,-2.462172541477222,20.958516155623222,59.20518367659443,50.35349275411638,30.490121027770456,38.56671729297942,43.7611901745431,40.69830197276926,45.981119990707455,40.22264001201487,11.303686485712847,-25.35074097121904,-56.72931668225131,-69.27164824265128,-55.6918048218402,-37.01081797757952,-36.629804305299515,-41.85503841674026,-29.777734958550035,-13.032053847100233,-12.977539867237898,-18.60300310518027,-14.617179137055437,-8.213124600541128,-9.962679460208934,-13.550406471863965,0.37304048013341706,21.135581190885393,8.261313351898961,-20.223763569389952,-9.309522271003903,14.853867731963957,2.944758371228273,-14.972472615958212,-7.146322055670602,6.512125001383886,10.674953172542795,7.363838671736394,3.4800841752533405,-2.5925916759394436,-20.037190139844213,-18.072624484931417,17.827407175500106,15.733254111832624,-32.95608276506047,-35.49289923489627,-8.260328174808588,-28.703317348113618,-44.34840482107483,-8.23817039653031,10.87491477736667,-10.572902744057508,-22.11105001175331,-10.1211088437297,4.818421387526062,1.0477993409039215,-21.75503646682356,-28.302900869405693,-12.655881324865822,-7.492928571328655,-7.301237829647141,2.7016785549378177,0.03522341489958336,-13.735504229786358,-11.032628393838134,0.4689807455195094,3.375991452328293,5.0743368252432575,7.579172394443798,-0.2881030585771427,-16.000297591275192,-24.094287648828026,-20.111676000337496,-9.53321136937187,3.4691741788703787,3.3103288132560724,-14.352263247479621,-13.345704541709942,8.9488359710706,1.9913649698630387,-17.255272520648653,2.8018665671395286,15.065201741340921,-19.633765602139878,-31.386101575852642,0.5282950331947145,5.125526385045291,-19.922592751192497,-20.349143120964605,-6.947386197642846,-9.288264880414795,-3.3521487713148352,22.497334373279976,30.50739585531654,12.819191936160758,8.214335852663485,17.33546164950308,3.752504430691321,-21.987797035803993,-21.259126570493166,-14.946408136861974,-45.721702108896,-69.57173968830811,-32.94059242020996,-14.268682902524162,-70.08911365321681,-97.69334364106034,-68.96953101250139,-56.39646869834846,-4.742255263809955,103.40459928788577,210.9789901346545,415.94129586154247,541.2714843942706,134.4152716723982,-445.0105384996203,-409.9358438206308,-53.158378888708825,-47.32388784964153,-144.26691904660424,-33.95749370796052,19.917313345792948,-30.895473403180034,-12.75885505744072,0.9835511811201414,-24.970503091135328,-6.708337492962164,11.745536424889147,1.6568892392967403,12.452155547392831,20.076551920589033,2.409141600397845,-5.360422104881252,-2.7457657036692105,-5.1064684285711675,-10.20838402736258,-23.662732118251,-36.283776258053344,-30.151860796131572,-19.08747760562769,-18.327957966741916,-14.408996161119084,2.3598306441994454,17.805037896405874,18.8465417809808,20.979840538631976,41.61789178520116,53.0645436747352,30.323412760149623,13.527506867297774,32.09980327262173,48.31066204670288,40.3845319241836,26.706562233824524,11.658298094499914,-0.7472614841514196,-4.774646351717343,-16.068261489776482,-30.364375689942417,-31.380666394833217,-39.947968372804226,-60.037872392598594,-56.801070435817124,-32.096588506213195,-13.710697547651026,-2.2165447216038885,5.72189974399018,6.37906017053975,1.7674477691098236,-7.502766667868784,-11.973602421563942,-1.9610352930632882,4.576166095361469,-5.806070851436335,-13.80306207263784,-7.294823910660689,2.178146832374189,11.164206776491259,24.433000470269853,27.540475589637424,3.708428893035066,-26.44751375924755,-31.912046260050932,-20.346801500031113,-9.899447671026005,-1.806672248095854,-8.94560879897325,-35.2652881009415,-45.40709668665492,-25.68696758299658,-9.343386924275858,-10.341768969233783,-14.567006544651356,-13.556737573617287,5.020556962751545,33.38758642452531,21.994056437882715,-32.874969842599626,-55.62856522736551,-19.544218694829155,9.569192972714317,1.5741878643726928,-4.992960447867684,-3.9599340775669116,-10.138972516532347,6.026844857140587,37.00151547753386,17.715353129410506,-24.10550024334321,-10.606249577031768,6.735929119743936,-32.27548026525824,-49.76939565235743,-13.017803072547652,0.09819565275272168,-8.121671487233632,14.877221120034633,28.856077121056888,-1.978695143095461,-26.144321255229627,-12.187168634901003,4.762392420495679,-3.967600602634578,-22.233457170423982,-23.88712927748167,-10.976289295147343,4.162218145465545,18.914442370331848,17.746552802799854,-8.719677532710072,-28.766940409595914,-21.590643324768358,-12.294642360103376,-12.150060570397374,2.124141182082413,34.25392776886485,48.06638866579433,19.270701411617267,-10.90967471905026,3.9817664454637267,17.57669117693572,-22.36870087877484,-60.55100764378865,-53.55735999178714,-42.852786583300656,-38.23213064569181,-32.4495866801096,-49.2197750361644,-60.204235749323146,-49.73380276263529,-59.826274203068024,-44.05117180485794,49.01105336898412,197.06558925816978,425.0460253364115,527.0967465279778,128.7965165961399,-424.95078503861777,-409.05117305288866,-58.36388589556966,-17.10902300786063,-114.49835517661394,-42.97614705083263,-6.390913593212929,-52.64495763979322,-20.072657093226915,13.322918990216984,-9.028710456757203,7.176995801877366,31.80592295295936,7.992554961975646,-9.350619526835178,-1.5942659883706973,-1.787887114629811,-9.092712577119896,-13.40823441438023,-15.071442686193286,-16.333014534856858,-18.954631424704665,-15.254130931840479,-5.107851805307645,-1.257946811019913,-1.675841993694708,2.2580000061231535,1.3595655686354675,-13.530772667457775,-24.30603668514492,-7.134471902505515,19.067806022317612,20.67150064435606,19.441199444349472,44.25372970861356,60.75778796240308,43.87934717225808,26.59261009175998,28.12210318447419,30.833760431157543,15.508031707704227,-20.695783380977392,-47.737879444995656,-41.96618730008157,-32.3958964912245,-35.39982803251019,-27.45006578826517,-19.97666097717624,-34.605889728168755,-41.29575843612626,-23.217768832334983,-10.881190515819494,-16.47445406700741,-22.4304908585506,-16.09341731566812,1.0675757918477586,12.147127145285776,6.485378216710831,-1.483350966850983,-2.0962530057030317,-2.8200469872586,-2.523849971185884,4.792953577545653,12.144092745545025,10.626243141504972,3.7390600407372947,-1.0076010517985274,-3.336010277111763,-2.1292164084317218,3.453738348546251,-0.5330188963511695,-18.9947597710271,-30.692332586106076,-27.95103158370805,-19.32759971210902,-3.5284146078758383,1.4674435465027749,-23.584924949042765,-38.67300372079222,-11.267293992464502,14.09139953717159,5.928479871873575,-5.771700435548528,-7.0856949640569695,-7.4209972448578405,0.4953347203204075,7.04958509480422,-9.672082622709478,-27.07270316122811,-17.99909983262219,-3.5377158689456003,-0.4395693590874643,-0.3609227896052829,-8.663699358417436,-20.834591680745064,-14.9519683404395,-2.9306417732800476,-3.9261466717681017,-2.4627585898275832,1.0079620564665852,-11.488776145844064,-20.02855006260421,-9.824040086514824,-8.369907353480404,-18.341410224556398,-16.196546497362185,-11.338752577568133,-9.366879864152171,8.539147542327157,21.435747126885072,-0.6791319406737024,-23.41404233243876,-15.530823882506361,-9.740563388753682,-23.348018123923673,-20.872123209452678,11.242103965169932,39.411429745904954,39.86458374555815,22.415210961859337,0.6443965381020007,-23.210052556096315,-43.2578797110377,-41.77594318976648,-18.334969081753297,-13.86190584832007,-47.01061783561866,-71.86907046753412,-70.90137786681598,-70.33977213218941,-62.60187134131628,-59.44210803499787,-71.41092490987529,-22.621914027850202,99.55417197042787,261.76865509595035,487.2137132269528,513.6277234168189,45.66857487847239,-417.31253531395976,-292.74342956717135,-21.36468997410571,-83.28566802197182,-142.26540795253882,-32.550941032131995,-21.039235407686284,-63.6590699305404,-20.925236620963616,1.2730323944905813,-6.283958118161138,22.8914876207113,31.603785418116665,12.669989397017744,14.178884194439526,12.272483974556833,-3.1015862836486576,-10.98778611354906,-20.868524536614743,-27.187472013531647,-13.366199296060447,-5.00115474615801,-24.01977851948359,-33.93551205393691,0.4478763031627304,30.686608894229416,-2.2395703756259633,-42.74737864891618,-12.850957767641315,39.647326366916474,38.8490930118176,13.625635698725755,22.05361141716523,54.29282561593298,67.86714608283357,58.468592670407354,57.01193295588221,66.10775502967375,55.44183803683843,20.529349136490215,-16.297676463607324,-34.784232605878415,-26.22782685889843,-20.522983049143125,-47.01957021030362,-63.17555700548467,-38.6233362022564,-25.372563349037893,-39.056491562082606,-35.307087876735196,-23.420552555413053,-30.134656836537356,-32.6412275917386,-17.985519838270832,7.9950763113894805,32.86306052577641,16.504103535038695,-23.55820112546897,-13.17250104614571,17.40436922914047,2.734179665856857,-10.461001008416329,-3.0965871018561337,-20.322992685818246,-18.825733081789526,18.936718914769664,0.5733196636674833,-55.10144889197619,-45.206433624349835,-8.81051372885889,-12.605484762357229,-15.360650019857388,-7.569040508602541,-28.800987399297913,-51.97090956987354,-34.57394811153819,-0.07915302011083014,4.643587534819051,-23.258567013692808,-33.46636677392941,0.04539250747767731,29.872015316623887,22.239028686702753,2.275435067185999,-15.453968637159782,-32.37703630939826,-37.64264521525186,-34.737410510852015,-28.990655564988856,-15.01745262238465,-12.531903621005434,-29.944031097373795,-28.252210502547698,3.347746901826442,24.378626672107877,17.865054761804956,9.15736763342617,14.75328223108447,2.958637040782115,-45.55989893183968,-57.387485352097386,2.2698208469493437,28.038937557957595,-3.6572079208281725,8.963560627459671,29.8215707234154,-19.391150599001257,-38.29920983529928,24.35869247119206,52.796064754878465,20.052550406112957,4.936284594285161,11.670512268498198,-7.125392339956004,-54.38088943193623,-81.24177987173576,-63.01041584593959,-50.27092976215852,-70.1596188536505,-77.73929203060773,-57.9083787819697,-47.99811869190903,-64.01900683759831,-53.18957491432079,33.20816863838047,141.3979630338166,281.69493103196004,499.0314696635999,461.3258269847896,-78.09395547424997,-510.67251433531703,-318.84014948296704,-24.659563080881064,-62.192961817164125,-103.0854593800254,-18.66567078318549,-12.797558204635436,-22.829763369524258,26.074832728863285,22.628541134717565,-7.539971124088687,20.258962058402616,41.28109259708172,0.5513678074862192,-37.18536242224945,-10.123469322136923,29.969501770543808,3.2255723451218863,-45.303600646268,-38.06749535531452,-10.126904481360109,0.2121155874336873,11.544573549889842,0.40351749532545966,-46.73796115160923,-64.26519116837636,-28.7110942901044,-2.6907621230913312,-10.270825763236688,-8.146408823881137,19.446397845641883,39.28238668732222,35.79683168225584,31.62092694758841,43.369211946311,60.60049084868988,68.37981159138664,66.04251695403464,61.13414645655244,48.348462471639365,6.892962706331673,-53.73132883800396,-74.5810209663106,-38.6439310780076,-17.945678715483247,-42.21519274637535,-47.498486593063404,-25.24221879205768,-30.050209080712456,-42.441357755296295,-28.339263196217917,-25.032572137604596,-31.77879727792164,-2.6843686712463697,30.12237452292388,12.221527260416238,-23.61422922718617,-21.690108641554247,9.524325919013714,25.09983300271866,13.4614688009757,2.296811824277471,-0.5887284103753814,-6.957121021173883,-4.927468162595062,2.0008652321254523,-11.874015432936808,-20.67388704900469,3.2207442295998394,12.638102634749313,-12.397342818488326,-20.008343688525798,-5.721026031378507,-7.155867615143922,-9.93641577639913,2.073824916401529,0.4170541639369887,-15.967372831110783,-18.363023697880624,-14.146532415050753,-21.410906051554242,-26.216610450114302,-18.429988158748078,-9.035268963120789,-0.8566757091428698,5.518026265947597,-0.3166805371355714,-13.204015278352564,-13.957462191391334,-1.7729092262911514,6.747957979590687,1.4861402337544902,-6.391920527860046,0.7829831323451675,5.672070293477741,-19.822363719264608,-44.503914308859045,-27.631033554067777,-0.35505847721479,2.8905059234100428,1.2143501084897785,0.8736488580007631,-9.999570643433662,-14.894297169131578,-5.749722415568504,-1.956445905108776,-7.225761769120632,-12.744812281618124,-16.74941558828806,-17.747812792557635,-21.689169560242995,-26.700857434735564,-5.981395950123945,34.42460143273905,41.20410040330542,10.498910049812942,-3.082602397455645,5.712736535772234,-1.982380196723689,-12.664751606292887,0.44593787508332383,-7.701169818025669,-58.49767898545356,-73.82202532561247,-40.36113985687337,-47.98170236079093,-77.06727130151508,-53.48879283666701,-33.89945799999328,-30.68313437053545,44.85085079751833,175.37808961751625,332.8335178064965,444.8522108558976,213.7535890748307,-294.03659054314744,-438.31482434368763,-131.283952395536,14.52399654847773,-83.04800878983912,-56.07869877560243,23.32160721732683,-12.023525405627112,-26.61992930439714,9.653122666972468,9.929646817905763,11.295280961407702,22.876479845640826,8.847737540620841,3.935235710835588,9.321637402741288,-7.134165259397255,-18.839890819561344,-17.430965426295966,-28.248858110955858,-32.98459885533678,-14.683135081542014,-0.019127614628365208,-8.569768244981837,-28.29941620692906,-31.793615723133982,-13.358531526471484,-0.39582189013671343,4.101033138291953,18.281359231387857,22.899619782352627,10.53073357663411,14.449586384180572,28.60551389280967,29.552924194417958,37.33388372836422,49.3353759853333,37.8993786413284,21.18674171348417,11.497065253608373,-6.766769942892957,-11.497646997132833,0.29804914136216354,-23.3431887294751,-68.5484103471694,-66.2560114680898,-30.551371020456166,-22.011468311278428,-41.62222105947974,-58.8012896609324,-58.55091673784476,-39.793673041586786,-20.332362122999335,-17.131452599475246,-16.40514835864451,-2.4569863984269364,13.817882842697234,23.67844899640888,29.508995806941407,23.497909987523073,9.19217562754951,8.558672854795663,15.396023103524866,11.097318301532251,10.307043785844215,16.305803843257564,5.592894777492104,-9.382723023500379,-7.764980140362468,-11.532854595074834,-24.82834024780567,-21.487491644271074,-11.745997228259206,-13.080824632129474,-10.606729868596354,-8.687573150245814,-23.882733786915438,-35.68714321558397,-30.601244771533707,-27.090764876596786,-23.068220571130006,-7.702361838753184,0.10686277441239866,-8.008453555317686,-13.00501060513288,-10.477221918134402,-6.912981169769411,0.849723550743148,8.094680046134002,4.9702167701959015,-3.4552117117271095,-4.000162059468988,8.564835122861808,17.51617290144784,4.418105545440641,-5.261451130727259,14.2055578490713,27.17703956073473,14.786991348823287,13.642917158889357,13.641615196581775,-19.815163785457038,-44.5604866953977,-27.14664848835177,-14.97258956830235,-24.218983029490133,-17.92038605760291,-5.597631493089267,-17.398902081454583,-31.731202120689908,-22.445903712605293,-7.174541806562088,-7.473907633668496,-18.650212561127848,-27.31164663268203,-21.556554137755978,5.300814290159498,38.70253644752002,53.16760741499991,44.5574465591408,24.965186055686758,3.047300720382407,-10.59399086161668,-11.17850219177845,-10.047351104399525,-17.221576340583756,-35.16041572902787,-53.109277079737275,-52.64852985450008,-53.12806254888418,-72.24638095102866,-73.4849869207361,-68.256507071577,-84.51712323474925,-38.233596088663774,93.4803492388099,258.8438882362966,506.2512703844189,605.20066508523,140.43696071958232,-469.32655088910974,-432.90239269900565,-61.56384244249851,-46.01039043903815,-139.63173695023536,-19.65874250423015,30.280262385128616,-48.9974046578881,-34.56434690094966,12.583269998981514,2.147453746088445,5.737380593753267,11.808515562626468,0.6402390730946301,15.13717593434391,20.71710649962708,-7.934878732803623,-15.568221177855753,-0.03718041097631186,-1.0019280217863855,-14.116387711459954,-24.912978701406786,-20.0565006844367,6.009457376223663,12.679998936774764,-18.09501380765759,-32.25173324463158,-10.300704693068333,2.449107984400034,0.23578098945593773,14.201402135050165,34.880646099226425,39.83094653937372,43.53978458063889,63.955188444071595,82.72183164079821,66.86463678222886,20.926125167096124,-11.177312779693196,-13.960012569521018,-18.95695755377065,-37.31908059022145,-47.08755168567064,-45.09956306226944,-43.87334657480437,-45.037809433063586,-46.6577735614681,-42.182835829133545,-27.512576293176657,-18.95845071380606,-23.407142276332117,-21.582129256652344,-8.830864169169164,1.6477682440985149,5.43018499187367,1.1160365412577598,-4.378688273671418,-1.221261691215222,-6.134776130207523,-23.81595483899919,-21.680438849730095,-2.662016149025746,1.4511632037095517,4.129045525149056,13.044474133793498,-0.816372901566595,-17.902469911212762,-1.3817360525560982,14.980831091184193,1.2601168375605951,-11.40725954880682,-9.056333245911794,-11.874332124665521,-23.72450575142985,-32.898453604482484,-27.56451203116732,-12.193076905960012,-10.700082195850904,-17.984987463370246,-9.055678392454226,-3.2726690354943635,-19.12328821352282,-26.740507774671364,-19.69498210041366,-15.442887054182027,-0.5925474408542506,12.05488868685931,-8.151981684865788,-20.45067199262099,1.9031113743379908,4.712955512260386,-13.973847824068935,-4.522972654899011,10.565620816255862,-0.8480230366949009,-18.13726101429004,-33.17123360923533,-35.960357872877125,-11.136391504132835,-0.3366628777342129,-29.86754321176221,-48.00601276365467,-26.362436312048132,6.0629182544613,29.978394448215067,40.90138202521085,33.04251537966098,12.184015223934628,1.144367078800192,11.699056162722506,13.838498329196662,-12.470599228196086,-42.023086984431025,-69.15411233859064,-92.15814331636425,-86.54776317542888,-78.46942082020625,-85.47598775424063,-79.40678146231444,-93.78922075707288,-101.27454932957991,7.869766945611843,183.18063574013243,395.6325289301867,631.2687907515643,459.61052186769996,-231.61277916541502,-575.9303034473342,-219.14776676245685,25.824962798272104,-112.21685580670902,-115.6001191836665,-5.0848729387239615,-40.81622394064749,-53.270908341734874,5.741836018071483,-6.810362281440508,-13.752189997781514,26.09089036705128,12.414441447607071,-10.405514318131097,19.025710134511193,19.421345560339077,-19.794797705226824,-10.443986029542689,23.60010669903322,-5.392234495844416,-58.7664445797832,-48.201518755462516,-3.5357361050703187,0.4207032788685785,-21.00685750508535,-11.2896672696026,18.04943711695678,9.258158457094531,-24.503355215423788,-11.079556057285178,36.626796902896224,50.27428260417943,50.342738425215444,79.00150646067948,91.94505098152187,53.79320374895521,13.040992045318795,13.285505923620772,23.760569024999498,4.404692225718803,-21.35638817643216,-29.38581532397707,-45.64698406388835,-61.8193169048987,-41.535019168758026,-15.82474793173714,-18.13122589636881,-19.403996709164982,-12.925219949265937,-17.24175008003791,-14.70022943284117,1.5268783338388623,6.321295823764065,2.3183391312404,9.028438945602492,10.786589285312923,-13.293579560032708,-34.65862090373296,-19.171958423050278,2.1563185739731097,-10.222426300236567,-28.32508298622113,-20.84743466839003,-8.791700245777161,-6.678664845473941,-1.9007660394868129,3.9580325006078727,0.19731178030970753,-8.38643181254903,-9.220597840787192,-1.2384125711092864,0.2758956309377094,-10.956820010009748,-16.73401519425984,-9.02020360205308,-5.525931273576074,-11.65717663433168,-13.052604328845767,-8.630235860403236,-8.014439757381089,-8.229940129181639,-3.587387535409995,1.0046768951128406,1.6094309500179698,-0.07355671654480211,-2.9813444767741313,-4.261782893217781,-2.253995855170386,-1.4075377356798278,-2.348025574379916,-2.0523293848548967,-3.6173981678603635,-6.8702696748320955,-5.449732741618153,-1.3590176508967362,-1.2293758930395224,-4.8972269727533675,-7.527988972432074,-5.322711390312605,-4.133321689055563,-12.010051972232269,-20.33589433664929,-20.676903379480216,-16.81707319566574,-0.0921754411349669,32.11635831705165,48.0570133554443,29.80702441744541,2.9863384423472636,-8.14120715031202,-8.562002607331525,-14.266748295358186,-25.126752854029633,-33.427466938114975,-47.05359298659692,-59.96440500692954,-59.51276641790875,-67.32739493469606,-75.99304151526444,-65.4718758409345,-78.07536515460008,-76.43984568030321,29.02965579953765,188.38959643616352,407.75098457758594,636.2278346905869,416.50641473315983,-270.9912941509881,-546.7403792563384,-179.52057087726928,21.46478966787003,-111.78866993773038,-90.48550037618543,2.041350835463689,-53.27866820709003,-54.71823937772891,22.37617567156912,14.490103329532946,-13.192094129240594,3.2745170979188423,3.1278874501068223,-3.370052522611239,3.9331046773074148,0.5125753775606565,-0.7149335871416262,4.002003789681537,-7.117680411869738,-14.273456857961573,-4.298244623183694,-9.981477955780448,-29.280711700610986,-23.326694370210042,-4.224927917362295,-6.5467830680555945,-13.181673269531213,-3.9398551872040635,4.16906832802897,10.633207174288799,29.362569406017386,47.63047358411485,55.54727565523274,61.41049204047671,62.573224284711664,56.71661356152474,54.21499108625669,53.05210722700739,40.361910221124695,15.927053018576228,-10.34392807984097,-30.684734827807283,-41.20670559565093,-42.227004613124116,-39.75146201530929,-37.34455191816372,-27.481851858061752,-9.619297408163186,-2.4723237094053605,-10.103603053422109,-10.449788181833457,2.4153318828396206,12.85910074283236,15.476230354372234,12.952004076263052,9.17493335347532,12.205196202579156,16.909493048410777,10.507889429064821,0.7474438624279625,1.151936369054229,6.4032907878426455,4.334589307490865,-6.547988888754961,-10.481657469852495,5.43484821331151,18.190380973820638,2.1667007046692364,-18.354078664584485,-13.390651720921673,0.0437208164916737,1.2609297723863495,3.0748429522588303,16.68343082963923,25.16085451311981,9.402971937967692,-17.135681228874198,-22.837801495770545,-7.057049723406675,2.055382545700118,-3.6858210545444674,-9.183590818890893,-8.370799877150006,-6.508136629832197,-6.590247593954322,-6.691570095556816,-2.954256806038549,2.615558875682742,3.3387783597907377,0.36450288944685383,-0.9990522175602212,-1.149465958700488,-0.6766972587314815,-1.0476101363012784,-7.592579609493329,-15.7355125459759,-14.3440384300232,-7.75529163054761,-7.294403812433788,-10.649103826796003,-10.769419435288967,-8.993628862196106,-9.658089017611303,-9.512377172542086,2.2725819073370714,23.992168855055926,35.64741848506968,30.54356812097798,20.16107871518612,7.265257327504649,-5.969413243412406,-14.550331458893993,-25.447148943129378,-34.041467091115805,-33.72287260867054,-41.3640848025565,-47.84696169699984,-42.7534376863603,-59.54704227841977,-72.8898992715721,-50.31882877462814,-62.532456911251664,-75.67897842009043,27.99596576020842,194.29217639525024,397.52159129800197,572.8660395033567,316.0917297719509,-315.006839734297,-501.39104137293134,-143.1261999295341,-3.2276172040469326,-131.59146844173122,-74.78056829842889,25.58469659338371,-25.30149856719006,-29.223530620385752,31.30965901891532,25.063504943850653,5.165357051193925,10.4906427008464,4.180011052404239,6.47815462530256,23.080490855138606,19.85677087800093,-7.714616513607838,-33.553501608100156,-28.08603425761109,-7.099574103624537,-16.29233461498232,-37.9428117868115,-29.4658726841579,-15.116579369744237,-20.20712635593968,-15.260790062095293,6.625113127940009,12.557764717101277,3.7525212068781357,10.143282169227845,30.755393420130567,45.629489683305884,51.55164442267266,52.54684264535477,52.00765599886785,53.517049492682055,48.29335737799472,32.2021957065473,24.473081393437706,24.97525249243712,2.9612647250088573,-34.68642066667952,-46.561822419979826,-37.207027078656665,-39.71057631823921,-46.112078184890166,-36.12889743265594,-19.704799946556225,-7.968820321480306,-2.031498672677163,-7.382116838436758,-15.780848957564793,-8.044015499287523,8.697284555892463,11.382567934129803,2.4290864758635067,1.25742784214183,9.151719884984342,11.660740253466509,4.463510691517276,-2.536597110110794,-2.742926270315756,-1.9666895223930165,-7.182202943340155,-14.68400829933369,-15.559913666020648,-7.399820580392377,1.820361791123025,0.6941484569139682,-8.709535797385076,-11.147809005508496,-6.989312481299191,-11.731116305654945,-18.768777964509653,-9.773476719104185,3.9043247907376113,2.790745139317206,-4.50596892949218,-7.645953943345379,-13.181649293231473,-17.551505550167455,-9.323079059715374,3.1776434102514646,5.578489411994924,4.40805141701686,9.62717735090981,7.958406735567186,-12.544928181471322,-28.26079049002899,-14.384106445722018,6.5541636406471735,-0.5446603477136698,-26.55355926717336,-38.311529536351976,-28.94755465264127,-17.572480059014758,-15.042553727791397,-15.328676130411768,-16.837538662009013,-21.386235992694385,-13.678768033902074,17.226337317156407,45.74285078232012,43.970527675207244,25.22902215109298,12.054750518167676,-3.643527289535367,-29.279968927438002,-40.34226025920815,-24.745419885831538,-20.91993711047468,-51.572112594631164,-72.36034067112686,-63.8254560152258,-62.47685673500145,-55.25215168988938,-34.98979813051622,-61.14451612303032,-77.58098772000105,19.483904400302904,169.2429513769169,358.43736949411664,537.4667549330783,314.9527129591751,-295.0529106291844,-511.9627554371691,-157.23285641992453,40.763139117871056,-81.24190541888076,-88.27472446050405,-5.290340926504754,-24.54098320737755,-30.624636274356845,4.1509293473326085,-2.574184389249929,3.5694142563893188,34.543260316795795,21.221863400150923,-13.058319836973805,-20.333643706209692,-15.321221456888992,-15.214428952956176,-21.741643082089524,-32.00375092316174,-30.000674878074847,-17.278256020034355,-20.189503485885872,-32.15301219327938,-25.79197030410786,-21.30793347328468,-33.479797747898765,-22.31401675817269,4.901905494637262,0.5936519653948693,0.17271651315475278,36.798669213582116,48.508128723634066,24.06116616669238,28.016420547395768,50.21295154,46.76949288313554,38.71747351321393,41.7722787284478,33.862344524555915,7.636356130024353,-27.902726965639786,-49.90829508558552,-37.93286714028661,-22.884038018687164,-40.50466674430225,-58.872682820231596,-44.671699271470295,-27.674703662375155,-30.241549642476233,-27.48849267227075,-13.13931827270192,-14.97231785891271,-35.43407188670193,-38.94170560965867,-5.192379143956707,22.133700115846946,-9.522754028311873,-49.14914914200962,-19.916302861798016,25.763753307742732,23.088777968322336,13.571189507770669,3.5820272293272417,-31.523824857258514,-29.802003625562204,11.663944316315728,-3.2940895820146494,-50.492949756721345,-39.21589702923576,-8.041092707731195,-13.543554175972876,-18.043556478642685,-5.465587537748888,-10.650576449411183,-24.95392828290833,-16.761133816655423,-6.829477128591723,-19.66175937065578,-23.17954677723174,-6.644431276497194,-14.270840221253277,-36.424691646630855,-21.304987386520338,4.771346071991104,-0.20475519680016419,-0.6550108797244434,15.704522396378612,5.417806254149035,-14.532495090415441,-3.669155540086585,1.1282371581066073,-21.60104732542765,-22.08937210323203,-2.481330242576046,-13.286698315762692,-34.197696537624495,-26.778833599174128,-10.590287415934586,8.774942613440539,39.78586740455289,40.27315330086752,-1.3805579175947251,-19.6406109355603,-1.6709831213685629,-4.500010392502844,-25.654768596738318,-34.38314329501624,-50.56940175489933,-56.71716344022775,-18.921186695580545,-2.8264888474947085,-35.357740496663034,-41.71118090487015,-39.5610037682404,-62.23299388439362,-26.12546254631755,102.1131336464366,312.6092931385347,495.7861006641079,277.85193004568714,-306.242738856388,-508.2312021894826,-166.73635169039997,8.015378936884211,-106.00088065901474,-62.486336863017,46.067537610813424,-4.122200730748382,-29.81794542088765,18.714735390828977,9.42934031325678,-7.172391104451248,10.459574285446536,3.8420623828354294,-6.52010197830055,3.2980106096375863,2.941590600953022,-5.228724203390886,-12.207397498950705,-21.142718849999596,-18.278810941524057,-10.138589695831278,-16.009827784275785,-21.860602338748315,-14.87925064677095,-8.799035042952708,-6.302178994758253,2.131609599650053,9.849085890374646,9.380758428244121,11.050260636636061,19.770705403111332,26.42127850896272,30.82947593151582,38.530572700251156,45.27887667668602,48.00823659057889,47.01144656869171,37.67393850587076,22.06048256820107,7.510436389007512,-8.321699204131644,-25.365532942616007,-34.58876149674622,-35.146365148886304,-31.859283745558187,-26.250941298869073,-23.156667975222632,-23.765574109941728,-19.32416639330733,-8.342992382911149,-0.3657500114966199,1.0169729242867849,1.1144798913723122,2.8660580577465593,3.9269763998988783,5.677887789052681,11.292622406858506,11.854726561261078,0.9728117827984519,-4.223444484208416,7.747023202565738,18.959465547578503,13.59975702604143,-2.719326268833706,-17.407466513179116,-21.468914532935933,-18.49897213423093,-17.674275338736837,-15.1440088418105,-8.548693518327134,-7.304102279068442,-9.90138697872234,-8.3900775063353,-5.400982963432821,-2.4784170317671936,-1.6715089400454435,-9.142536013798228,-14.856881953366983,-6.249371102105579,2.8202236741603137,-3.850085305499718,-17.242292013257604,-20.10957871973002,-10.334141687975304,-2.9821455474106493,-8.541939518832766,-16.197778725406145,-13.750270092231615,-1.5746944660018691,19.957242989682506,43.428064782410594,45.9302999896682,19.407970002938423,-6.960037020148953,-5.986854786793774,0.38088248932383717,-15.874993515291301,-33.58898348154145,-39.13437996499841,-50.973416554314596,-59.245741095111576,-59.719089447852895,-70.77687764124141,-72.20554630860966,-68.67828626722573,-80.4405280345544,-35.7179480786551,99.15707242509987,296.0120708068197,535.4332170476808,515.9949167512542,-32.53859055464402,-539.9097692827665,-380.51736682151727,-33.97050040271537,-57.88671464995433,-122.54184536068333,-9.052861990897057,15.231171864868358,-32.34691825152913,9.823321161228703,34.27139429269096,-2.2522952038657778,-1.400844965797968,13.414491903034328,-5.757373084205035,-18.028909060840036,-7.1612211858410895,-4.010678597609953,-18.730857130967948,-27.898045089265413,-13.792243434735816,0.3127123784000574,-10.036929100527036,-25.167337597501664,-24.085096192609143,-15.858163152954381,-6.823370939370696,2.248820609979082,0.9566173714278596,-3.0709032073389873,13.759376589297682,41.572913388653014,52.26266696416975,49.02136568838634,43.971838297767576,35.928143440082025,33.05249784426091,38.4183098482882,35.43287524250512,18.886933175785206,-3.8363607281377075,-27.848090653896023,-42.060133106518364,-44.24658691776858,-46.469694655841984,-45.23007597006087,-35.3622376407623,-31.661100650918932,-33.9160118856229,-25.431577713867263,-14.09465310947698,-13.842078145496409,-13.17055451713539,-5.968844398723377,-6.5445865442786655,-14.604711194507935,-14.301414562286617,-6.35607867310576,-1.5853624349476743,0.07608348584543378,0.31758001650281287,-1.8273508945027377,-1.2181414555161183,2.6264712669072807,1.937468362336519,-1.675489953818179,-2.577190939948119,-4.451943869515276,-7.328901479969705,-7.369799253560592,-9.46618863677464,-12.114942705362392,-5.752113614282564,2.1084670377034236,0.027160382999021238,-4.567368338143487,-7.297787506866479,-13.507232169566702,-17.683922118690017,-16.83068088583905,-20.67775129147754,-27.44351167150168,-26.141702663305637,-14.247211060891544,9.407836243044763,36.85201319846949,44.609472102873646,27.278089429107656,6.19847111801939,-2.160958068895658,0.5916717837572332,-0.6830428491322538,-16.145497194850343,-35.26676744664453,-47.00445437215875,-50.186525123267856,-49.83193462729574,-56.29584493463133,-61.02436597704115,-68.46245405653153,-102.76108528731584,-95.04543325355874,18.977425340414484,170.0973901891055,380.30352654051256,593.0725545055494,360.66609306321595,-303.8918346507407,-551.6746972395476,-191.57284468336746,4.1890914068840175,-108.07937349647362,-70.81776360327275,27.394807136966378,-22.268612182710534,-32.09483586855683,29.79470742805035,24.568860377167603,4.844057660226882,11.3967183050006,-4.10763106053281,-13.85045590404388,-6.588769388123296,-16.73417121364782,-24.02512791849584,-15.563416368693204,-15.508401108429544,-18.80552306610003,-15.871908912349614,-17.891612609583973,-23.979860062620965,-24.80347022579137,-17.256595076921656,-4.540439614163635,1.550785334900003,0.2217412436884918,7.257091292197264,23.239507857120483,34.836235240372346,43.714793511664254,57.19311459312772,69.5839605391469,73.43566658389496,66.94944419771868,47.599343793577575,19.702965760228636,-3.124837226815001,-19.85013968687181,-39.19181768308622,-52.56283667220445,-51.07635876532157,-47.61357609080635,-47.43383578041053,-41.74778375251181,-32.00591152322015,-19.170241774284328,-6.002588914612431,-8.83650691569732,-19.231528474049828,-12.27102174136098,-3.8126299395999155,-11.520461084923609,-11.444345882521372,1.9576392466098795,6.115666847668843,3.866127366911634,6.255270285349596,9.115253253064798,10.196362673378175,2.86072383424143,-14.135036093908585,-20.74062155157747,-14.594020888075391,-12.851335813364205,-9.497627145686998,-0.9813265035608083,-5.022483890541711,-15.013282221483681,-12.611236083361058,-8.203010871345134,-7.136421546891082,3.007191599034151,10.851342739856433,-2.1841681699797277,-21.292992324435556,-25.69973033778747,-20.011208966159483,-13.436636557536376,-6.508334641216347,-4.677839467242448,-10.994103719293005,-12.815248122871864,-5.775870042509059,-4.497019892900038,-7.556838615900894,-2.3208096169717827,-3.17215043698868,-19.90825699577799,-27.10089707027527,-14.307480393691424,3.1571093478531234,23.80701998745493,41.073654345933164,36.085192750636836,18.880165205207625,10.163740286648848,2.846162465876418,-14.449326674086535,-31.91504191357283,-36.86736390313601,-41.839607784448845,-58.258561320193145,-60.174315375052146,-45.71332734604826,-49.71329131882014,-60.397023113274415,-72.2467827298277,-94.53010662434725,-44.38954177690148,92.06567184640355,227.73209306847528,412.42166548073357,505.0484883504764,117.81787881159977,-431.5097430977481,-399.30352979265655,-40.980431238935566,-28.160789972051504,-137.3580335292392,-34.50517761600667,17.192086526509797,-45.81446900059476,-16.398203302681686,26.376835626437753,-5.766711313882261,-8.62436243943166,16.749468042985324,13.932802062437919,11.742882923928917,13.124777132699819,4.497568658154634,4.03543784098178,1.8793132457669053,-11.70687853884539,-16.607028897467806,-19.97844454904678,-36.63251552352706,-44.79927285828536,-33.35419980997319,-24.757399486206094,-27.9118406256465,-25.074407405037476,-8.279705131709207,6.949520109216237,13.732416046806861,27.443689129358113,47.77016385987678,53.3316999156871,46.6145257514698,47.06726138549648,50.63627762233729,44.828026903937534,31.822280625463325,13.913552603595083,-9.457243984181543,-31.540352018744265,-44.569601181642795,-46.49404208965298,-39.32491945755186,-28.788747978284754,-23.02332814765458,-24.29452947605018,-21.769605041995206,-7.205616864362101,3.2205668201626807,-9.038956178807204,-27.246274665866643,-22.780450150178304,-5.499777190899845,-5.147085414242664,-16.945509892712014,-16.43444925590885,-6.061301109218114,1.6345903502116652,9.304672174757236,12.327979165086836,2.113885947997156,-8.2880063396502,-6.764135361432682,-1.450996648200535,1.3692038094124896,2.77556576904143,1.3871459791180456,-3.3033509775600045,-7.566435978715119,-3.8349412297221415,3.3542773968027415,-7.646848703648196,-28.973328325293878,-24.513808074747715,-4.8153713940393015,-2.7834490253089577,-0.7339755363740439,12.743274480545896,7.262468677145841,-11.113213682659369,-11.67995922662283,-4.532232955781719,-0.7296896139044193,8.584402845494719,12.423805640222001,1.3405730383356254,-10.000842573779874,-12.26657358257648,-8.246883453640685,-5.1533515035045045,-7.17473969823593,-3.0309484035782894,9.471875733660434,13.49376784667487,9.931639909448208,4.450208802444521,-14.770409253381608,-34.08765391993102,-26.74898177186352,-14.448209080164677,-24.37274159163594,-33.895397609639296,-26.668408667641188,-20.08433370303479,-12.548694917697187,9.496084288280487,31.757568187614176,39.9152636820384,36.87035867696872,18.50596627537761,-7.000174034633261,-9.095993660519056,8.00227032692949,4.710754269204498,-18.073025702705618,-31.043217884021274,-46.21820052395897,-72.75795130979151,-77.91368062384137,-70.73588131892537,-79.07765029976991,-73.16388593832015,-68.08335286228821,-92.66374358536432,-52.66244910597521,88.15471154582268,282.53561455403286,545.6911026489103,598.4521154672069,77.63088058496007,-497.22741526136747,-394.96199917011864,-42.53958621492758,-65.91062760434318,-141.77431848615424,-20.183651252372698,2.2344615414625792,-58.8732904027718,-14.191858334791172,15.282331223130772,-15.971924473888073,-2.606239864665115,12.510183531530407,-3.903933122219854,4.476224778648508,13.029449714762618,-5.456770886893921,-12.917332093788325,-11.790700419990488,-19.94054068501636,-23.205477693592883,-27.322835317239278,-37.500837018559935,-30.83941883621128,-11.757921056004056,-6.663117476538653,-11.127719235973396,-11.356043538935527,-10.849490124871405,-4.231095531184897,21.54336194718103,53.24492287558296,63.94037945106972,56.985330131401625,58.29023772645472,70.67284692048717,73.85684681303452,60.09227721346852,39.38710226423679,20.643794121890856,0.722078497658277,-28.21626670584446,-56.61140487298325,-65.85043077995165,-63.20232826866591,-64.58363337380457,-59.012253219899335,-36.30077423647973,-12.358495252068309,-3.4042540587353756,-9.446622232920188,-17.030568566352734,-13.924625655608402,-10.889395211170381,-16.14621577350642,-10.902423061161207,3.219173639736937,-2.6075809247414234,-20.28082208122762,-16.482718906565186,3.590540104362553,8.813227758849278,-5.403493664899159,-11.983866850975517,1.8588563988324243,9.799886704421478,-2.385853530233833,-7.147921521411625,5.0027281933872985,7.142024488233149,-5.859150835786373,-14.237040187086343,-13.5169621889996,-7.898185250461076,1.3413597737588727,2.931543087600927,-10.941852404589639,-25.28056409648161,-24.695972615120212,-13.383596801472425,-0.36341954475677873,7.713363943505934,3.8418085921522156,-7.292898459458007,-11.687657895074226,-7.749733867158703,-5.368412612162057,-7.67103738140305,-9.177554398238142,-7.180562595704334,-4.644544309773371,-2.8086711101304314,-1.6725562611429456,-3.6959937298948162,-5.738953144753896,-3.15944564925368,-3.086396333960069,-8.507947872508039,-8.634339198230185,-3.590761363860297,-1.4449108318243322,2.53329234442349,5.983874271749777,-2.1627203733289697,-8.63866409328018,-1.9350070311035221,-5.802421516130266,-26.166535723438745,-32.44503678598419,-25.646528905153247,-29.46444965748036,-24.475525286068752,11.061845514174873,45.81684940086212,49.018245697777594,30.511683056706886,5.692386648607981,-16.106386160471267,-21.709371707195015,-15.956456766221486,-22.345309988771888,-38.73033385469162,-43.54004427539533,-47.51482260966762,-61.66981360059046,-63.13053800664517,-61.660086918804005,-74.81834619061064,-69.98294910510712,-65.4831899183609,-83.37626436208731,-33.013168129540304,97.84864871407972,267.9559419029641,526.1646767047442,589.8060158761336,75.11895839091763,-493.6150125722045,-388.18780410725725,-41.5493349191232,-64.72798577854155,-139.48615299962069,-29.67499723220847,-12.021361832810754,-63.0305653111649,-11.04329270723956,22.998588576608,-8.816244475547443,-4.600015591094408,15.177868811874694,9.371135991487877,0.20122624242734233,-13.001954082973187,-21.31219503228797,-9.061927719252655,-0.5082727973286048,-5.885502354772402,-9.571550408966617,-16.715088277168974,-32.92484079352751,-40.578022269515046,-31.002668151701563,-20.037884577040742,-17.37568002985674,-11.511221739305437,4.096369376860715,22.82474000532108,40.77575396167275,50.420704191846596,46.57028018271711,47.09534426185165,62.264736132086064,71.31825893300586,67.17080773430214,67.68358684411908,66.39069427890215,33.590057921669654,-25.643909582466556,-62.75339705677072,-56.11216266836034,-43.96783062832584,-50.42287691795151,-52.66907267835647,-48.31523916045349,-50.222539673732115,-38.932936998551185,-15.408492120973918,-10.883514587545328,-14.556536889429161,-6.895754299644931,-5.266780494807726,-6.178984686313484,3.160417545026476,-3.0028925959540906,-24.595747129626105,-23.685943727288727,-8.255935638278254,-6.148737975055607,-3.0384523878814917,7.153045839732899,5.723503799592486,3.455733833629523,11.437864173651363,5.3224591862967365,-12.800875717169587,-11.381303181562311,-1.397838079126121,-7.137990614341186,-12.626268517397968,-8.501318415042412,-7.503603748744432,-5.09824014341179,-1.744519837883992,-11.581149523587442,-19.474983201200832,-8.318335718111667,-0.00012012987546583531,-5.657221803714425,-4.527826714324192,0.311298394700124,-12.24158617851513,-25.725723352395434,-14.010887892997967,3.4899647978606083,-0.2995792960852981,-10.122677738053508,-5.181335649488487,3.9008410400306133,4.594578279647335,3.2311744776538776,2.7713979024514366,-4.476296042397374,-15.691008509991207,-18.847950365906478,-16.679827343179454,-18.249255218697755,-18.30655560577955,-13.355163027567002,-8.580903593480832,-2.631281290421331,0.8056745037860953,-4.022603027925335,-1.8291258893555078,11.918105425757194,12.154835879504812,-2.4464013371411433,-6.049037989223546,-0.6578405932928533,-5.697127365081947,-14.064405953179868,-6.3071663686377555,8.828395334532384,1.7281083180422314,-25.20706456171457,-33.89657282147857,-17.598361921622566,-11.159286805756093,-24.28417531740903,-31.786575686977717,-26.32277309043087,-23.08121330256901,-19.691114666813604,0.8143249352811788,29.42057625840839,39.406965768241896,30.025037867699886,17.667732393783822,4.9350526059807365,-6.970715467213946,-9.087643294950773,-7.303024891428926,-17.989296591139077,-33.22279334482355,-34.5060879967198,-33.53357436013874,-41.90521844913941,-50.00819337406077,-66.36133778504232,-81.72689796312754,-68.91615630766447,-67.5077717724059,-76.02485093286876,-6.098427373772445,126.72740724520314,310.13007813360434,542.4277947483686,462.8423807754334,-105.99124620640846,-478.6122636801555,-237.0875344166279,-4.838210963080691,-106.39817521973671,-122.83434289197152,-8.729666767136216,-15.604295618016081,-39.58544221594549,1.8487156853146818,-0.8339862248427892,-15.186517512369148,8.787348364106446,16.2907229439296,10.226721655750861,8.70963762608153,-6.6515663306371895,-16.76760000892548,-9.922420206003217,-5.06206237901532,-3.925866208085493,-10.222590201347408,-18.806259170899207,-7.64500483188995,1.0804659424941496,-19.130267439645806,-32.325885840205245,-19.196385621960793,-13.118854564730292,-16.95275356714476,-4.4066043068156775,18.111899137355373,30.633200825136562,37.1712548884538,49.022916363994256,61.080190561540235,66.57338308624519,73.2463448681778,74.01632397236567,48.39364014592679,17.844501517536408,9.079697644528,-12.189184686727653,-58.860690635732624,-77.00643823458087,-60.91135127446786,-57.995417240571236,-61.39858864061438,-44.6857129259117,-26.706907716868468,-19.227554006257407,-8.500256383549916,4.281465485502089,11.499262612332071,15.63455667193368,15.418341436892419,2.799162238174141,-20.214703161968362,-31.568651800045068,-20.957424017314054,-13.56194618807078,-18.765204066766422,-13.676157175459807,-3.5853572313889472,-5.649701150959409,-3.687558137391745,2.470852961041702,-5.032969243489603,-6.279620941237862,7.007457353166072,3.7852996038672906,-8.203063254968608,-2.896131347028982,-2.0224511708532322,-12.610537494438734,-7.069130483321494,-2.136599508163833,-21.762851598813924,-28.3023892222008,-1.5159411614688372,15.934632359129376,5.820207511419715,-4.75930792842642,-6.749888564071604,-10.082190187605711,-13.211475177345044,-9.799696390523039,-1.5647962445960442,1.0444683670236081,-5.441919700648626,-7.686122982214741,-2.269800916892722,-0.5982546371400712,-1.8622174594128325,-5.680092217100524,-17.26914962898579,-21.733250465224444,-12.693183841671097,-10.549177243325197,-13.004776564598643,-4.259000253645269,0.5224967862020016,-6.9774288026512945,-4.760877236120983,7.4013870996846585,1.4406281952398565,-21.074600275206215,-23.413740099412287,-1.6338078712649686,5.060761777427485,-3.048859042706263,14.934314499625458,46.16740468765978,41.89712624906751,7.810222238342707,-17.70981426565082,-22.61044080975534,-16.37333887711987,