ECG,-17.35702337507114,95.79818076428919,124.5146834592926,89.68434602278094,66.95324726920228,63.86070714268361,46.41843176939862,27.03999211842393,20.033220944640703,8.038074366385667,-4.60927831951052,-5.258125657933066,-5.643465452235026,-10.304620844997077,-13.168964516270893,-15.844795899640285,-16.53925499859234,-13.41595848948601,-11.215490107035297,-10.412913381998152,-10.635866447072903,-13.797371574860104,-17.29657673639169,-17.987335864904335,-14.91809652947315,-9.048316663046418,-4.133180012400504,1.9640325626008037,14.727320578240272,29.44044848813547,39.385201933622255,45.980197141767945,51.86372713829543,58.646315929635016,64.16338400583935,59.73160865498301,42.477487111339705,17.309227947540947,-11.550102334381307,-33.88576012684922,-41.13766332753349,-44.886481292496356,-54.98489042713682,-58.461180714260735,-48.02840063399365,-35.813996909160736,-26.888680974791782,-17.07277063795877,-10.823516006947433,-11.516789012679993,-11.093853967168382,-5.248092101041337,0.4963105667279599,1.4807097880331241,-2.9960620706040473,-9.77257925606639,-12.942947586793531,-12.093865099016718,-10.365761974880211,-7.021670491666342,-4.297847121005919,-7.090268329939747,-11.30150507970595,-11.094065983455424,-8.998197357384154,-7.268814710600914,-6.015739471383801,-8.264606239158898,-11.981736640460298,-9.794590673157208,-3.763029272134361,-3.1306185395037716,-7.338819778820039,-8.366880833190024,-5.7764385684798505,-4.450616864782276,-4.561180819027914,-4.043420667791974,-2.220741209595573,0.33089317649370287,0.5733284994108061,-0.33619829741039986,2.9596081055093197,4.457558369109911,-4.674349473875173,-15.399757482344702,-18.27905990801021,-18.551683329997573,-17.4367807322745,-12.742238932878514,-10.501209779651706,-11.448028469599354,-10.612673520850993,-9.94288288319953,-9.326779283548444,-5.769452629272974,-4.196725648993235,-6.85720230865793,-7.919342324874146,-6.875834567849969,-7.235836574921763,-7.61726834027235,-5.998425370700762,-3.519031236371129,0.6656439356039909,10.973332992077818,23.592262541270514,23.850388845838026,10.981646578909883,2.2313177182364488,-0.0549527701138377,-8.73008406131833,-22.37752151488482,-32.25492524588553,-40.56513507392069,-50.41044739930478,-58.58157214742965,-64.593428769552,-73.47044932657357,-85.99365830701555,-95.40425937567612,-93.40050639122097,-43.56206007907717,130.98552938359927,412.6902798620152,560.4452274160501,340.4738114558817,-90.04901325128398,-317.7499464381374,-229.69014247743556,-94.54126568867811,-78.29208720049454,-82.4732131764609,-48.24225896862163,-31.62795564203948,-31.65761299194636,-15.850990159672177,-4.2000867560155974,-5.381501659325391,-0.9345483662830194,3.3605886109718863,0.02576579729666406,-1.3051117365669906,-0.8963151882366969,-2.3737622371001557,-2.1014653009713857,-1.925573843290982,-2.789666827310832,-0.6804319048561314,1.4602377242207396,0.024591668667672373,-1.5633828511254162,-0.4008818140447683,1.6063639473151254,-1.7224798168402962,-8.868167488040882,-4.324582412440783,12.831999618430501,23.80588375203928,27.833726344156645,35.628477430882114,41.92805332593633,45.85456429287428,52.14023632972164,47.01999083154975,23.192495969074677,-3.6981962304099483,-25.606363279345132,-42.794925754087785,-49.729595233168155,-49.905448015695306,-49.89067802813888,-44.3529508566888,-36.13091511437927,-35.440777294978226,-33.06802679655773,-20.19820891207422,-12.147786830177516,-14.625390495950889,-10.585049106254665,1.5172706814993013,5.976277796769455,0.5825168681198498,-7.410744999839505,-13.649462366590985,-13.435562433813004,-8.885232673997361,-7.626354787703367,-8.200386582609774,-7.892283120537773,-10.367157235478743,-12.818039304703966,-10.349576345129975,-7.897390377251224,-8.944104118750758,-10.395538489731567,-11.928402337552498,-12.817309241325741,-9.858967021275365,-6.1773035786323085,-7.046700057842127,-9.8037211814916,-9.895444824090415,-8.239300951138196,-6.5530739275372305,-5.504244073722376,-7.20039159466468,-10.649851648496856,-11.06545023203734,-8.11570519326314,-4.888591594767471,-2.324166999389238,-2.657046119462599,-7.188929048362244,-11.123626426024448,-11.629364911370807,-10.640837243113275,-8.507438664782384,-7.517072031729715,-10.18991446863958,-11.237656462136457,-7.4695723754411265,-3.6120647996332274,-1.5746064262423687,-3.3361911972382927,-12.009545022813352,-16.783691668217976,-4.951413296762809,12.403839387825972,16.907470760665674,9.6037978690832,-0.45297840834433245,-11.585852277389964,-21.959203481082614,-28.508108926775883,-35.288458393028144,-45.85102263855778,-55.371563822242535,-62.90085343428471,-75.97208810643869,-92.46246697835082,-99.00776903758964,-97.25243126309924,-75.61806692401994,62.787888546488404,375.4721076905747,620.515034078051,447.7479181315665,-37.316598095353854,-343.4935575411608,-294.0692210378154,-151.6640461146863,-95.15681097160902,-71.5164835937486,-46.37602365446655,-36.27740368854823,-24.95777814016002,-6.324898441956126,3.8486084972480654,6.107184207879513,4.4272561485857125,0.7115525002618526,2.411819062485497,5.568822125066566,2.363861919857433,-2.542132936937522,-8.011265919932553,-16.955968536136673,-22.310308465101986,-19.43734098682903,-14.371245737897299,-13.64871490818392,-18.028286903742682,-19.39257155594731,-11.540971328476246,-2.813726712709968,2.4333764333452015,12.272819034006108,23.3058987455306,26.166060794886945,29.075479077234544,41.01978010488291,53.70974246127711,58.50979717823862,55.600488562060264,45.25425165282792,28.220389415343952,7.148743714250572,-17.84843510127362,-43.726449411404815,-59.87560834599849,-61.615720520985896,-56.49246359741194,-49.086080737035964,-38.18131274284019,-28.349089271102937,-22.825385768561873,-15.64027270717547,-4.766683027061676,4.787948572168363,9.502727986118138,6.427819468989636,0.12228082656344874,2.7311200051052484,8.542448687913877,1.5298750045616032,-9.320570919738694,-8.617028904054301,-4.952668281354752,-5.716767061936864,-3.4257580366777116,-0.1585132696495073,-5.4545010067974395,-16.451191851065897,-22.50291365158084,-19.13163887841552,-11.597244932750387,-7.319692709911539,-6.985148963270163,-7.753074822230261,-8.320109192799023,-7.011086212636242,-3.6903069729823166,-1.535694988251663,-2.388753858965318,-5.20231823809157,-8.064103532441049,-8.910054534052595,-6.921848007771654,-4.196330607843706,-4.759004770534114,-8.969939894892212,-10.201786148569575,-3.2911401101813764,7.882729235702914,16.486897789218016,19.551748385282437,18.14659041159176,14.544081029709561,7.508711564908114,-4.006670290418279,-14.807240295099422,-23.463426316508425,-36.66465008394768,-53.92915750577916,-66.17129040898628,-70.94828442852935,-74.83158692802357,-82.44399270501444,-90.59228976600761,-94.42148791391966,-66.1196996697071,81.67207177518722,378.8380054655647,597.2529702172156,431.07336230893213,-24.052617586716572,-319.9142326444138,-270.66202177852904,-121.53960302110745,-75.24464287154514,-72.7885827587421,-45.909226725434166,-26.360705116447157,-22.06185596471419,-8.888696997797808,6.5280669773505,12.161521979944055,14.084112771307494,16.158825746901947,12.699097383022794,-3.6232837059526872,-23.74641213347077,-26.383939128017364,-16.730111358297663,-15.919151376727743,-20.228533888186938,-23.920260570431285,-34.133087053812844,-38.912207196511154,-27.51627650153631,-17.930221698971703,-16.692771212951733,-9.259413052977031,3.4395067311644665,13.313835427610194,24.11399851900223,36.5543604441667,45.319119871275774,51.41329960017056,59.75717636007872,68.14050101798874,66.0052631297992,48.59399721266159,23.11088703980759,-3.7322433013410343,-28.773667386435665,-48.13734299200993,-60.08707454232342,-62.33556301751927,-55.13958259585432,-47.030119926400296,-39.31711647056877,-26.52401424185113,-15.941794286813412,-12.180018234145264,-6.331131164746715,-0.4888392356565916,-1.0949813334043785,-0.2737652537122841,3.8581981421730625,3.4756700646575585,0.45937429663613827,-0.8891433157786004,-0.9249027161858994,0.4780138866424739,-0.9050301064549302,-6.79086481907626,-8.710746240678814,-5.354646185151106,-5.186579984000943,-7.460508420474657,-6.078075193741318,-4.469024319496491,-7.8689204239350214,-11.121858745095004,-8.201481499412523,-3.8516280579849074,-3.0358062511518433,-3.3454635414986527,-3.9485696827692394,-3.8446419432947287,-0.038819980007296806,3.821822609781491,5.700412518338666,8.06193173061798,4.957300481197679,-3.3028889537207515,-3.851274391114372,-0.003388124169376283,-3.314047485446009,-9.63586958328917,-17.01429770548152,-25.881850100664504,-24.16438102950444,-13.669006249026637,-12.368678493729082,-17.407009992309803,-15.770055658386612,-12.194983796459361,-11.828552873670247,-9.101625840423257,-4.192916216332552,-1.1708920678185972,3.943368752385256,13.919846048644832,21.378168164216046,21.226508735336587,16.969223506595306,8.744806744526816,-5.502930278414279,-19.227028613234705,-27.038451238162036,-34.374861737268574,-46.29012441795351,-59.89293113438639,-69.76509932530722,-74.88373132390416,-79.02572358844012,-83.70529721773653,-86.96466497535003,-63.44604202243166,69.29005204396213,348.4695037697114,574.3540439445445,447.89723621177,19.29673131777905,-294.1347071173242,-271.21847226577364,-125.09136867280988,-76.70926945527751,-81.01192498953199,-59.58533567122763,-43.262001773690855,-42.12821279878656,-27.64051758556518,-10.615573387187705,-6.384358368061349,-4.144234646280427,-2.6114842402685827,-4.939166222125516,-4.063071913131328,-0.7224966851994346,-0.9639095626277303,-4.456085189058678,-9.108016050134102,-10.917381447690957,-7.36229722830174,-3.577631836951536,-2.525598471865991,-1.7212785353105335,-3.239119903741053,-9.48928989879676,-13.909474140917554,-9.224121931773396,1.291923333692476,10.420242277968608,19.1072008888688,30.76643441777788,42.50467026396764,52.983033466093445,62.3721144393718,62.999084154227205,50.56429456142176,31.40650110821788,8.54114111141034,-16.862160779481066,-38.23658790240826,-52.29814031121373,-57.67477319466246,-52.04806010984664,-39.619066771454925,-25.744656947777113,-16.086261257356163,-18.632598805418766,-24.061485002749322,-15.319243968921539,-0.44622939243879856,5.984529153861239,4.058920885728494,-6.58601399100905,-18.125236204610935,-14.764255973594729,-4.225763762108988,-2.4103401720646254,-5.536926503843777,-9.136346184084422,-13.029513746482326,-11.797759750580319,-7.508949655058947,-5.749356558001061,-5.390470380377884,-7.580736607559951,-10.549189703530269,-8.145003485859695,-4.552539581926727,-4.3390085644131595,-4.464686719874587,-6.845290138518978,-10.429051442135554,-8.114285366913828,-3.925064676156108,-3.759198902041563,-4.274300459643289,-5.9252236660892805,-9.00076134732487,-7.399106807698882,-2.7869274319240525,-1.2992681899713485,-1.8137846077770003,-3.0127820891403108,-4.414998265862492,-2.461050891729734,1.9102265888360783,4.710489063343065,6.263655525281744,4.537906449547197,-5.380569236285908,-17.526672050230903,-19.553161684236667,-13.608968158955928,-12.025227360901686,-15.3989639291648,-15.959699684724399,-13.02002676886983,-9.75402560779993,-7.930937014829052,-8.209507475593172,-5.871182109062333,3.580772873385838,14.794655430107582,20.97711352403275,21.71301208964079,17.356982165453786,7.805217124148069,-4.850826449544876,-17.15796979177335,-26.63161084781391,-35.58324434028542,-47.21897644316388,-57.77887674500472,-63.4725659797953,-67.79440760294762,-74.42149198870213,-85.44894935210351,-97.9228122735225,-71.36487186317063,79.98048087434817,365.30864560030886,569.3030317553789,417.46478542994953,-11.139460449394726,-300.84884214950796,-257.3508249666932,-111.64794247020512,-73.3475311518254,-81.1969893385502,-56.75861627448385,-36.14867531389855,-33.9575915439897,-24.014593082314672,-12.501116237104405,-10.716040193382273,-8.776804922933746,-6.030919187680336,-7.035571414479971,-6.280087192403698,-4.215832990395251,-6.396494940983198,-9.69138255655377,-11.14452731065468,-12.198093129957439,-11.401622794871145,-9.405257940907598,-9.458430521705854,-9.640599336630608,-7.624760051919819,-3.7143408816205348,3.039716987138677,11.362219975922327,19.865008720372117,29.36195445646821,33.913145079399385,30.17523144921973,30.042896345181873,39.44151709370035,48.623825115415855,51.92598000835436,46.80602044041132,28.313651116282095,1.9572204586213333,-22.345881538230213,-42.37043492973814,-55.43010828351454,-59.451232441541826,-58.434480619665635,-53.03162317552824,-41.988768847850196,-30.9332967816643,-24.287214108986007,-18.237325597101048,-9.587730531728845,-2.804342812523533,-1.424719161468179,-0.3155013690090698,2.7034542387449356,1.969052676917629,-0.8065775684760617,0.9760675431377539,4.669093333251521,5.864579572621145,5.66434333642078,6.208203606150608,6.585815446146366,-2.447806463701287,-22.654758206850065,-32.11043110552749,-21.952720276154114,-14.870192386805563,-17.402593212903966,-15.412740198324482,-12.796460157211637,-14.537104740853653,-11.491800119263257,-7.579378310318951,-9.837480229328687,-9.779209280921268,-6.597932468239165,-7.34313364490551,-7.9448140593895005,-6.7097999122367415,-8.084899874681431,-8.27898901091709,-5.202675310368878,-4.5231649374809155,-6.090040426456891,-6.2757809174967925,-6.596215970168874,-8.577490101473806,-9.455475408603878,-5.326689947680677,0.7735388822514153,0.02173715559035827,-4.543394495412677,-2.715070251763711,-1.1623129965941228,-8.098484490608865,-12.851213234043742,-12.183981923339514,-15.032814246511105,-12.938789967418987,2.2305422413414906,14.04834934047636,12.896688893396501,7.0715857711770855,-2.9245026607455245,-17.3897549173684,-28.303426953257418,-36.249706385468365,-45.560292194697624,-54.44901564754879,-63.444850123790246,-71.90733221258543,-78.36588909673844,-85.40682349359005,-90.0646191801325,-88.04879653603729,-37.98766650228908,169.49865020298532,501.9481804295242,617.2278671860637,282.9057053678546,-184.9046366335894,-343.27061243548536,-224.96962127105397,-116.70137218655162,-85.18405466248713,-54.25389311143812,-29.82712351006937,-32.78810676324825,-29.297715041065686,-10.007260054491077,-1.4537934053629762,-2.927474724147375,-0.5133881930643689,-4.607489808810698,-18.030140541735214,-20.317567244252203,-10.117174564666552,-6.8174982548659955,-12.589599328760958,-17.398288465798807,-18.751412863797245,-16.76795086911033,-13.5809898963456,-12.80778261466185,-12.64225557021243,-12.454336175742005,-12.692024009733563,-6.015223509704701,9.098942981899915,20.680811201202353,24.977533959885633,31.35049939350495,42.33543232547245,52.61181232304397,61.61795288251681,68.56973308913014,65.70945231526234,48.69821921668108,21.522573918304683,-9.026032307117145,-33.08164704783958,-46.66826987732692,-59.38653261302724,-71.28384628595579,-67.7616750854484,-51.738004086948976,-38.720392093635375,-29.297210764417002,-21.295244405593955,-16.815063613754425,-10.059605368214765,-0.8099198834100818,2.1328990468333835,1.0308347008952268,1.814328849573517,1.5775821081587509,-0.11264991261421997,0.6298812506931153,4.244381231782636,6.454854463161319,1.0575323710731688,-7.502369883576627,-6.276587280264101,1.0893292533626262,0.8230160412566168,-3.6909769343953087,-3.7326284533958187,-2.9088469902991214,-3.2287682392334753,-1.393774996787549,-1.2471911589583478,-7.118394124162407,-12.999783762404633,-12.656675701323309,-9.464482129904765,-7.119177824787102,-3.781190270408498,-1.831706108268211,-5.374211775108989,-8.081450343144347,-4.624984273541273,-1.5773164402905522,-1.5831521976484515,-0.7735372984030473,-1.9444533920897111,-6.092175093903853,-6.1547255741547495,-0.764511077714614,3.2372664811080654,0.12845360203723466,-6.410445550238103,-3.673524600161583,8.557310076981747,14.157531815758372,10.468713993769821,5.602367631275497,-4.4018596194975235,-19.08550374784774,-27.734658594628964,-32.673256818627856,-41.079854397096646,-50.78511894931773,-62.032721541337054,-75.0751750712641,-83.1739357128929,-84.87560866919546,-83.73310567753722,-56.501673017801,72.97875580055596,341.8043886762749,566.5341023994727,447.77523726729726,16.17124248279773,-306.3543196226748,-280.93030942189023,-127.55806536027359,-78.37577111052832,-82.23070719254183,-57.31707971174295,-40.197659276360966,-41.47758424973257,-28.00076541063889,-10.263155366546197,-6.408067488865946,-3.773012384386975,0.6125429179755333,-2.015889213699161,-5.371523757216735,-2.762823341551236,-0.46584808264733546,-2.7940945749870085,-6.462925346660279,-8.431356442510632,-8.871928908368536,-10.71672032676406,-15.362652778189553,-18.582462498338963,-17.800269423869185,-15.165631245856094,-8.609033470301245,3.6333876756286925,14.997194076755049,23.44983085374303,34.02795466265691,43.83081184576437,49.78057149776555,58.712108156660385,69.2398477378349,68.58123088649494,53.49166213332799,30.15682407098543,2.857437419297133,-24.02212178840898,-45.42972340267033,-56.93441710542585,-56.51435589252527,-50.46865415049379,-43.461155183849996,-31.374901541311715,-21.096773493865058,-24.416465746915037,-29.116973080497743,-20.68736327208786,-9.8933534871664,-4.869365216623358,1.5415618096917498,6.411873036054999,1.5946648614917933,-5.047318544368899,-2.6537918615852316,3.2536706214003512,3.288547359118267,1.7467098899601528,2.652179389247058,-2.703326824639257,-13.997808022633762,-17.563405575518424,-13.559689992620465,-11.79723090823947,-11.305287316756413,-9.88625687931771,-9.353906379556328,-7.8400802415923145,-5.926667038258454,-5.843353616124908,-5.195190437191364,-4.625238652845095,-5.531269485016768,-4.571300030333191,-3.604654587193295,-5.545931943237527,-5.61324006010002,-3.4616266757216287,-3.097879127694746,-2.598018488326474,-1.867254678829097,-2.1228469910996406,0.053935882519205336,0.7779026551144028,-6.503481120823322,-14.112593634485577,-13.554160246744429,-9.410395030086981,-7.109245870849307,-5.897792051270345,-4.6563528451187,-5.192771843649162,-7.931542225959696,-7.419293898694409,-3.2612792740336243,-4.733513130620818,-10.911634900780228,-11.493934577201834,-8.646121233058928,-8.119582462780341,-5.135439835263522,3.1179227848622895,12.705626828946405,19.012094619260793,18.409263532056965,14.05754929740746,10.519776551318643,2.395418862716416,-12.997256753872701,-26.995948810449143,-35.2466593471473,-41.989501460735,-49.838441403706575,-56.86108716232813,-61.285173748064146,-66.73968165929267,-76.35949935120726,-85.44649905281211,-73.7774073500026,22.90876135155048,263.425568653777,524.0631381731162,512.8694323192578,149.89598631145148,-235.73204594094176,-317.22059850741607,-182.65418435082893,-98.12538990148107,-100.46706928460728,-84.02884707619788,-48.509222391499186,-36.628536197856725,-29.52374782561893,-15.676758857881055,-9.510854752920874,-4.245807610418412,4.208978730642947,4.57539806387415,-0.5459763510150033,-4.039569194681569,-6.860566284796247,-6.9804969476282235,-4.573064135035031,-5.439038338481067,-10.330306180820909,-14.40432811561205,-13.128587336739269,-9.139050364314496,-11.095977579164952,-16.499644085572644,-13.585672823522431,-4.092065107519273,3.6560639560439343,13.480928191061876,27.33298517056864,36.71234970740709,42.306634871076604,52.21673978144337,62.882925146009654,67.32710594777046,63.7703632659514,46.279663298572686,14.956179234618666,-15.242608110006577,-36.0048084540698,-49.80390513770652,-55.456527976056215,-55.38668823012794,-54.876752002725276,-49.05377847796119,-35.701812587307515,-22.584328461576135,-13.37369536899006,-8.89658485337213,-8.571388776237653,-5.276031399533602,1.3603866551848256,4.624087578585042,6.555542772980063,7.244955707245891,0.05157855498312003,-8.68481245985508,-7.969745811770901,-2.440358726697056,-1.2704233199112362,-4.57197393044445,-7.18507488878047,-6.819745922598461,-6.359325909577322,-4.335411015284084,1.0993053654210616,-1.8627993893705295,-16.351456079137467,-22.368928789916538,-14.14460503312887,-7.295415235078599,-5.873569777135746,-6.237296577116496,-8.245220038536637,-6.534833917702564,-0.1968693013749423,3.420026784154542,1.0088637550098873,-8.81888120450638,-20.609614476677194,-21.185137263913568,-12.815579343766109,-7.452516081370833,-5.66900393327154,-6.894463214160492,-9.837478487472039,-7.681332834523779,-5.560275743355255,-10.445682158810444,-13.285138240634726,-11.099838717494235,-11.33207558097103,-11.672914127646038,-8.815972001618212,-7.107440144382778,-8.470337489435762,-12.068042246749467,-15.190973756006304,-13.942460373084831,-10.204163741479025,-6.234547346353029,0.7905684427353528,9.44468387995242,13.757675517072197,13.59236099354434,13.66407998358824,12.1686735843797,0.8474003677127868,-18.475722652613577,-33.66478597221541,-41.09115426411414,-45.35668290132509,-50.55397336340941,-59.53845347554874,-68.79153346329716,-76.12090024006753,-85.1927649233741,-90.77112285481334,-77.96187612712804,11.810127027432657,266.58636654684415,568.0312478327295,550.6274173070973,123.4686661834267,-285.4554602864631,-338.3636024879106,-199.0658537812937,-114.82438972878823,-84.60324074208671,-52.78874342121792,-32.801130104107244,-22.841004264753064,-11.822253067395803,-10.847586382750972,-14.71435678791499,-8.568917829881407,-1.1556210393452488,-1.7291690684046301,-2.6428493589761004,-0.7147570570319388,1.2672333618446014,3.5308467674781845,-0.42505023160179434,-14.682361100787944,-24.7758802744078,-20.137937048895758,-10.255198009536699,-5.533155499306767,-9.416491585616212,-19.101396998037913,-21.797486175939916,-12.347771360707295,-1.7572824502054214,6.263793425818445,18.45915549770066,32.55263529529388,41.031996769866396,46.58282543367797,56.4968562936152,65.29458680736789,59.13760007894569,37.82332864288901,11.957751416675308,-13.902897748860962,-36.62377141369306,-51.45657029670617,-58.88123932195539,-60.10454183371951,-55.943653136772625,-48.91033404242309,-38.295794894360256,-26.262504196769026,-18.835177069397393,-13.476076379929069,-7.094461537829378,-3.5923965445918054,-1.0870239774056287,3.253481866318115,4.900876401881835,3.7866705147330535,3.207146655992725,2.5703315845692405,2.0294300208785607,-0.05530619170598605,-4.718237465263158,-6.644797995435731,-6.378908496627323,-7.758313333166196,-5.760310290197724,-2.1128243735814323,-4.579325614026093,-6.335181395279019,-2.1438874809014514,0.23618084524242633,0.8590868456430618,2.8407939049444355,2.498926738557514,3.4899245201660136,6.755532343662937,-0.45364618497300846,-16.704620015243638,-22.606036838875223,-15.500671008757426,-11.191626822487963,-13.269130418422407,-11.499237713401524,-7.051902953378217,-7.881315951318523,-5.900935132918938,5.697464367503445,16.406618429115575,23.84301778437889,29.500603280956906,20.945716266399046,3.343531587891693,-4.451345521023246,-12.270584157470715,-29.90438704455311,-41.72215860397547,-47.43911646984226,-57.72267597754867,-64.70555090256502,-66.78941313690918,-74.2926518600508,-84.05682073552057,-89.75193311802789,-92.91255497004637,-68.74215716114503,65.04889767606268,348.4354241366688,586.3749698167711,466.1553191043284,25.159488930256558,-302.45184464676424,-278.97612618849826,-125.38243669813139,-73.86138368384803,-80.0385326348612,-57.073613062084874,-30.778324519469074,-23.458528020769116,-15.596741190267254,-6.675520619529507,-4.735004317532439,-4.170690915325659,-2.9686533197998877,-1.92981958342164,-1.0556283443555934,-6.599463705003895,-16.501760007121135,-18.263291694488196,-14.34330449684128,-15.936004902739903,-19.350364767062125,-18.487440693130686,-17.11205192030073,-14.760330585893865,-8.035238056395315,-2.0656501023344154,0.18351675976068282,5.143597424150793,16.33621986329453,30.82970113589443,44.26676067611341,50.04309063286768,47.3895221651451,48.835617297139535,60.089679722406444,65.55055924533441,51.77341941660165,24.207330755734493,-7.075334131957976,-35.172332230781066,-53.34554424229574,-59.618710917279,-57.869770961759855,-53.01732926519604,-46.49899357474537,-34.43708958674797,-19.64348042583613,-13.270457833632975,-11.324777752640887,-3.925491240623458,-3.7871882052198202,-16.60889330233783,-19.264830054889742,-7.6450359553282805,-4.178005382631785,-8.666146991874186,-6.641149926426031,-3.0096962698886713,-3.703112977153694,-2.1509534928479486,1.5025391483848356,0.09532727240992855,-5.460351897307824,-8.66838678748866,-7.731020300990943,-5.554973953767131,-4.695454345506398,-6.235260994615835,-8.843200850205614,-8.893565353236049,-5.94090846472573,-3.0000927098922023,-1.9366890314407001,-3.423137995195356,-5.116884566134495,-3.5274321100639234,-0.7483515826159639,1.1888083329121937,1.510941665048776,-5.633552103557957,-16.140968411339827,-15.453682483431875,-7.299519418881369,-4.86884131222088,-5.6609268709408695,-6.412920611351044,-9.297633160832948,-9.263865109669899,-4.7164251141796445,-1.5879698634663395,-1.9724836525785374,-5.681402770753788,-8.638018794356633,-5.375929707117246,-1.7576145490220672,-2.219787139547215,-1.0343103738429154,-2.4104085028603226,-11.264413579128526,-12.431723630858052,2.629561272375943,17.209174144271117,18.480327223249667,13.055656164500071,8.162015258642498,1.0525894112929741,-10.155593437032204,-20.879413989004732,-30.429374654646537,-42.376853808126974,-54.06870423785493,-63.162397004075274,-72.80639907888983,-80.17562071774694,-82.9033404168437,-89.73356809597318,-87.95852247803106,-5.689821282477084,226.96198077448722,510.02296398446686,552.8086948370794,217.41505781292187,-200.87649535419052,-321.30651436311234,-181.42216846464208,-73.68016583858646,-79.55673134319912,-89.08292325980338,-67.1996449271571,-48.82385924682838,-35.3618787073606,-19.622285339254116,-10.564970828827235,-8.804064483136699,-6.680312428204742,-2.378262882498454,0.978009920884432,1.9182785699043663,0.3936617066319563,-4.780056326019659,-9.796447375952265,-8.30979325093894,-5.794710913858111,-11.442575930155718,-20.132961729051342,-22.3738104456941,-19.30826808987114,-15.286804457360237,-9.214350570132275,0.08732000465057066,10.076461496677213,19.459134888105638,29.119861416053055,40.04293765938352,53.93822302760182,65.80139736592086,64.93273964727676,55.827977477250535,50.74617659995649,41.73186709189163,18.474662435524756,-7.99309950095174,-29.778411394383678,-52.007130867268174,-69.51393103340477,-71.85296420899247,-62.72569314969407,-51.30369442026359,-40.04039600180114,-29.526209257645334,-21.133707316656082,-13.13353278883151,-3.927768774118192,2.967962554174541,3.5847553599655093,-0.8841519248265293,-4.792107288071362,-3.517851170483656,-0.9178387203821998,-2.999925959684493,-5.7913844606175715,-5.980915458307731,-7.7445742201552505,-7.8733010603849145,-3.3145677109720886,-3.662245487588489,-9.99124194903025,-12.489974398066416,-12.366262417412438,-12.257548592410444,-8.262326287842184,-5.040299907972855,-7.171505144119731,-8.56796269767894,-6.512082858022417,-3.488372537645125,-1.2853804054903115,-2.0102178563436777,-2.87714228379474,-1.1280030872134823,-0.18671921170491146,1.0805149111719174,1.3508383186850512,-8.649702163517484,-20.142519546392084,-16.185024605245992,-8.161688336292855,-12.145400279395755,-17.87019058650871,-15.073597232958821,-10.382257716126755,-9.354325536727302,-10.18906096160407,-10.337965362514696,-9.955600814131962,-10.328880605506434,-9.72153372723577,-7.868000469606024,-8.539416418116133,-10.232045557688199,-9.050334661312512,-8.368205736433481,-9.611051427173962,-6.314029427800817,4.168922922830939,16.12054615411144,22.248397011043323,21.720798680091818,20.241057929357677,15.014577973639318,-3.9874411178677924,-29.177160813980606,-42.81976326145032,-46.329035193911835,-51.956972273704345,-61.499248633863594,-68.7721920848071,-71.83199762599966,-78.14539120436929,-89.82821770722526,-97.52743062096874,-81.425190875995,35.173438512464486,322.41702855058196,599.5068169984711,512.7126721826849,64.43142582072913,-299.0394495805329,-310.5223471326739,-169.20970337456248,-104.9363564002165,-93.31649037286903,-64.28492594458325,-40.11765867899663,-33.31736045937967,-21.833823971414883,-9.611006689774552,-6.8642978556133585,-3.1592173444919798,3.1757289036759797,3.703807424273174,1.17434794934886,-0.4529698880251889,-2.632031911514865,-3.9786693807718887,-4.066833583525456,-5.154165586941396,-7.0662942934695385,-8.067103309300812,-5.93764193976206,-0.710917727171632,2.315724223496999,-1.4959076093385244,-9.675742927189853,-12.62663610849581,-2.5225655825993245,15.392121520999964,31.16898563269221,41.245213232393844,42.270810021717566,38.597312078592296,45.297276486491555,57.06868319681487,51.24012062786602,28.47884232632373,3.187988089854695,-22.871809325965984,-44.994892167684256,-54.27354245301731,-55.70828317353861,-56.00763641738582,-52.07991282306638,-42.129392367996886,-28.568483535310826,-15.562870647507076,-9.150088879779783,-10.459849173669294,-13.411867761054229,-11.74652621828043,-4.908692458900944,0.6337127602562873,0.7737831346490793,1.5377994418816918,4.842782841655527,2.3170778446482387,-3.984773363599544,-3.322670578609902,-1.0314568190826474,-6.421325453561927,-10.24554186487958,-5.561696809746822,-2.182911422187251,-3.9646710208323928,-5.486730185191865,-7.193772528352664,-8.535838369164805,-5.73686185409959,-2.8059512007333236,-3.1648140423613746,-3.304340688157115,-4.232758647306728,-7.341418861949947,-6.938220249807534,-2.8663538114383336,-1.3104164615548513,-2.236864922913636,-3.980648603383564,-7.648967602913286,-9.348509534754944,-5.329387321466509,-1.8366640996208314,-5.00132875827412,-9.382907162319075,-8.248641123663214,-4.609539116404001,-2.5823082777907427,-1.214180725808827,0.5388797983945066,6.357563601846783,17.961153610139817,25.37067725956702,24.59720040547206,21.87893271664678,7.8942560658606,-22.766348691851082,-45.54691249391912,-48.82830371805113,-51.3411290409998,-59.86055468017118,-68.50435213711333,-79.1014941211136,-88.19801059858801,-89.57630699657356,-89.77230946172172,-81.74924197318973,2.6087509494880834,242.42744231204057,532.6611441364479,558.4309681366569,195.86767679654417,-218.04368542124928,-315.65019621011714,-178.96965296973468,-88.97084069383912,-86.22593519776775,-67.26365128835553,-33.88955786092698,-27.78309073235973,-28.559909227261045,-17.011749974181157,-4.391822737766457,4.001386897056635,5.985251521400626,-0.8844782682808336,-7.917292721332824,-9.4851050556383,-9.115551055604374,-8.006280103295913,-9.26031668498155,-16.10031346561218,-20.61713340580863,-17.68144062624294,-15.604785700332796,-17.028550235736063,-15.142579514137104,-10.89399167186753,-8.123912929819719,-2.402032858881096,8.758022091757383,21.020211854868002,32.01125192130778,41.67235534134553,50.015708066222764,59.058283370544586,68.56315533833788,72.27223718756183,63.178308551569344,40.32008543374569,10.144788528089311,-19.47750549835864,-44.23467756375155,-60.61747927788261,-66.86517288258018,-66.26399164326521,-60.99661958460103,-49.943700883771875,-35.85979034039663,-24.34145907187337,-17.21091319209715,-12.514683118388177,-7.873398985758,-2.7141044187256824,2.464200503508401,6.94101195824703,8.131475008509678,5.2645800974447505,3.611131646347271,7.186181649884654,11.618692628917682,8.55679853700958,-4.328119784540533,-16.83688084625812,-16.94642528676763,-8.84862914980701,-4.609239784750018,-3.6999161063766373,-0.7469473726940663,-1.4163952927479855,-10.89414507181529,-19.388483109978086,-16.636972374338043,-10.164092778167449,-12.045005771324401,-17.814001892841258,-16.53338500125776,-10.163639265371824,-6.671086949808942,-6.584965749382693,-7.16744356237372,-8.033483929987892,-7.887141707706533,-4.820759986045891,-0.6519018042013052,0.7044843065760809,-2.072144897848034,-6.9056732559831335,-9.37897966914435,-6.223973192132048,-1.685269803621372,-3.17954565553568,-7.802158518824934,-7.281831159134512,-4.245521975921472,-4.841626159448351,-5.530695055702207,-3.873899440985907,-4.599267987029766,-7.123388436492266,-6.326354654801791,-3.676406529847478,-3.8273861953050137,-6.121772205975573,-6.58411654016044,-4.2471263831361865,0.41138715085107247,8.567888528162689,16.08933056831271,16.07857044940496,12.067040501463698,7.658052616806389,-3.0499904777382962,-17.031991702273725,-25.409032634749728,-32.70264715292783,-42.92800742473533,-51.13598937385484,-59.38466376434005,-71.41211104747629,-81.01399462991009,-84.42241785476176,-87.9804070331996,-74.70526424339432,35.647140761677065,296.4347408708029,545.3706876584602,483.9199822812731,88.35948358222642,-269.0241826836672,-295.30901842067635,-138.17829421200466,-67.76289816182114,-80.42086785422013,-58.356898673318796,-27.700185004571708,-36.01534886007807,-38.187809010788875,-18.37754510678547,-10.175300415746754,-8.415729645889726,1.0011562774250393,6.264056156220786,3.951234505229678,-5.437644310987363,-20.284969499923456,-23.05620449965683,-13.88144298300672,-13.61013913943758,-19.21502075571535,-18.063510655869507,-15.754648923038706,-15.422435441530432,-13.743979597419116,-11.676755488563618,-7.056683363336877,0.5074924547734985,7.405751043598671,17.173982232061164,30.389383282000278,39.66266718315823,46.40908873860499,56.61590045472017,67.06970992994759,70.96664969646565,63.582033525723446,43.37281775409141,15.006675961960434,-13.073089279581088,-34.68173526828866,-50.6616239430686,-63.21728988735332,-65.87805840777298,-56.01691265068935,-45.31119225002747,-38.372641739449456,-27.86406019341077,-16.544469862462286,-11.3739922761274,-7.186609448106259,0.12409514819878709,4.841286229446702,4.9682405344412714,4.799424834209981,4.087146611113559,-0.10794731392243229,-3.82760479234714,-1.4600824733841051,2.582600517845192,-1.0667427051406992,-11.53488188847833,-16.58588273229815,-9.621593585426748,0.14458890281034975,2.2819341207878896,-1.0794249347029847,-3.7042587971945924,-3.797297043895405,-2.1612502835129384,0.0035339634658502206,2.797000262004895,2.679037771949192,-6.601947134008011,-16.651569685110957,-13.807700215744436,-5.612226929597135,-1.9575894437275725,1.4500743711944573,-1.4280827679877923,-15.391529038652251,-20.59770807379678,-9.479361643649089,-1.0335806776874676,-2.401073269390775,-8.784947170303528,-19.124160038251773,-24.16896542943497,-17.5549695404204,-10.342043538124452,-9.52331884241972,-11.055747406052854,-13.29819520048834,-12.928082767537926,-5.72648692837245,0.9253343243554468,-2.0649571694899933,-7.967434387794256,-6.990317944547215,-4.8464119000252595,-6.860205953705449,-5.726532529836241,-3.2909371667467084,-7.622724311491842,-10.02073916287603,-6.132400381130376,-7.07470007023095,-8.316881684945646,0.5861417382399701,10.426155883748438,15.12020048018178,18.986731472862807,18.606741879802502,11.800620651834498,0.8671075574003382,-15.471242833852028,-32.04307601951909,-41.79819733344446,-50.01346511083743,-62.62499021970759,-75.25795971456998,-82.99273238631258,-89.39830971787057,-97.12579868589134,-100.35852531190892,-87.36747966929424,3.06707502066989,261.5634016519224,571.894529260807,572.5250015631298,155.9414564251145,-271.32975633447575,-346.0530163245887,-198.10577652456533,-99.69298444617247,-76.80534242787559,-49.81670455485773,-25.135557389492774,-26.34661473247592,-31.105669113524137,-24.32346794357513,-14.674035590861905,-5.005281082198939,1.0765310751937598,-3.0270544026543966,-7.142817089783456,-3.6284007266078184,-2.673040663341416,-4.378696793879387,-3.8001964119820215,-9.152609977660672,-16.237836102890753,-12.296268000980739,-4.6995701826099,-1.5373772328062554,-3.0675919938706997,-15.341360209726641,-26.830460677054255,-15.769713969672257,5.688449728606372,16.029892353924875,22.966169043890247,34.18526290990491,40.34856211567825,41.44845415073134,49.82299941673772,66.30140895371527,72.39763233875557,53.29537712091068,19.25038805960515,-11.46261780674807,-34.776879967787785,-51.89979085389156,-61.07923687653275,-63.576827793338396,-61.7336302131777,-54.40391735858478,-41.05133135172353,-27.812433134967215,-22.596748209807767,-21.03055890729494,-12.50737612862633,-0.7961172991682339,4.328744616879241,4.761751350645987,3.509125332889912,-0.6136157913300053,-1.851528660453324,3.555830357406464,7.0635451672801794,3.7322802003639266,-0.566294929883826,-2.8997567176265147,-4.529742645873427,-3.3917520537385304,0.681483345831607,2.890588747037004,0.745083045089654,-3.0499622130354442,-2.5850893088678433,3.709219187508957,5.793034149998478,-0.8162784884295249,-3.3735728695272176,-1.471956765970729,-10.544167880196355,-22.35709229677211,-19.009662276910923,-12.11628997255148,-14.589158680448168,-15.821292018312224,-11.329321647615906,-7.898587134161364,-5.980289822139808,-6.038717307215734,-8.837021645193278,-9.676043003742212,-7.947650944643652,-6.677628820236215,-6.048728313450539,-6.457009096517314,-5.356357733047117,1.898416498754802,13.267669412473094,23.796063841387223,28.24596827586295,20.417530327006393,4.45682454371191,-7.995311757220028,-15.25219948824423,-22.950179508966173,-32.878595339178716,-42.67035684674644,-51.6991510125863,-64.73424807723406,-79.85638984699332,-85.15333626768764,-82.04346919025932,-84.49201695670263,-87.22725251075568,-36.811542716235905,157.19576284203703,467.1197642178144,606.113613560684,321.82148098683683,-160.80358433900918,-374.18550561445005,-249.69449053242,-100.59138018548593,-78.73116177911788,-79.20491952330724,-49.04973033052524,-32.67480251459624,-28.276781606031037,-13.025111795218079,-2.346648863882713,-1.762921957523151,4.407562087415544,11.52146207112275,6.913134127216967,-2.3185594919856207,-5.185179541258261,-3.3611371928738105,-2.5219679313074774,-3.7624046912629323,-5.81158270589081,-9.724541350590794,-16.295412557796364,-18.99821687712098,-12.42381857620331,-6.7273594156984835,-12.281583603464012,-17.875122889641524,-8.87696941201809,8.83199895673329,22.605119843225538,32.231444690559925,43.31268883942223,54.357363322542355,61.117399461886066,66.08748868786492,68.13055101429092,55.713545046120906,27.849091817080957,-2.5082889652783824,-29.64758154349151,-50.96570029694962,-60.23399866955948,-60.79440238740541,-57.65973721569904,-48.23984437320957,-36.95576074702947,-28.74470884070364,-17.82134966151213,-6.03842242482472,-0.6398366616703033,4.100490879574249,10.030443761714917,8.01464438690033,3.8207587366034446,10.136227497018663,15.985102990297753,5.192537592112094,-9.77488900879807,-9.560938991719752,-1.3380474131200515,1.3891387711322718,-0.05781561437546223,-7.555707789070619,-21.396446132706423,-24.786858391794592,-15.326126428173488,-12.26860836467384,-15.084007387723016,-12.05056765063032,-9.504632812994757,-9.346989535019008,-4.679156659528397,-2.7522938744575747,-7.828926776733583,-9.923866757529622,-6.812653276722251,-2.9990459401333975,0.010605596089950708,-0.8340400548164535,-4.06988237444625,-5.181351446587701,-6.111316302113863,-4.684707116034296,1.66768443868353,1.2278092187836513,-8.359226560887766,-10.828599818261408,-5.241358978103127,-1.2975559692070657,4.641864712510435,6.864119274542487,-8.251464515346562,-24.71765356970696,-21.43088108003394,-11.377543785694655,-9.983619549328157,-11.034173643788982,-10.982176886287778,-11.162888510018899,-6.5200695445108625,3.1162005520006213,13.221758748012782,22.60402923897841,24.971794896646568,16.404195915800848,8.442076853022918,5.131076305018054,-7.148690308120273,-27.397640407554086,-38.92655040277613,-43.47596663125097,-54.189258710010485,-67.41477559682255,-73.3735916258351,-75.47037119158722,-80.85720386313938,-89.76591215046524,-92.90260398848002,-42.04837731827758,148.87159429539184,450.72483319103776,591.9032331598544,329.891781464925,-137.3904940796727,-361.55521693667134,-251.44276403661692,-105.19590323664393,-84.16137526710345,-83.84639328157911,-48.51965823382453,-29.145676252844197,-25.03206426241836,-11.722523061124178,-4.860917599711545,-5.703023228277912,0.04504117357765658,4.42549716286079,3.9932024740994567,5.613179841105051,3.2350607876608475,-4.132185382229002,-6.582922750718851,-5.828982928260988,-8.485546067985213,-13.227247848617946,-16.737154555129244,-15.724311865161585,-11.041669269320623,-8.951161035104025,-8.87050060790134,-5.471527312040157,1.167984226540037,10.883137198389095,23.979379921762884,38.02010692625815,51.429705145630756,58.381043231626016,54.847127977051784,53.30001990105324,59.538234144636675,54.9052653191259,30.06497460216915,-1.4392985997897858,-29.214235407651778,-49.20465316829665,-56.79522440222263,-55.599597942340445,-53.15156641660051,-49.333700230943755,-41.71139391395691,-32.127527999000776,-22.135787707923278,-10.657095039558588,-0.7566272875428552,0.42066759744274584,-4.553912690844285,-3.9146116610864325,3.259083132723667,7.146241551009501,6.1441437369745575,4.297268561876374,-0.8627085159245418,-8.280139876705139,-7.735719404658912,-0.6270495015305482,-1.7792517417087517,-9.654228529920815,-8.946689597537537,-2.712556119804205,-2.753389818103429,-4.364637834737447,-2.0767078601525863,-1.3674983978135558,-2.614999112697358,-0.5960666953045797,4.777895653916575,6.465637795214195,-4.344293408840601,-20.573195262925363,-23.146628092193477,-14.327241317273606,-10.578112035970783,-10.381991978663148,-8.033659446608189,-8.67623808671286,-10.208629040895232,-5.777308279306936,0.7664343069926343,2.3672714887651978,-1.7640492342698373,-5.571159439202583,-3.1864499127850365,-0.4709836547892188,-4.0307220810950675,-6.637777483964644,-5.185665769685476,-7.229535136662429,-8.913327312268375,-3.0543989305677597,0.9285376510245573,-1.9495315860854383,-2.0918378764265473,-2.2211788857239423,-11.173362204136387,-17.64608624727571,-12.270009461500354,-7.552460362909846,-7.852705617504636,-0.532419038810132,13.859871245681973,21.206772379756657,18.57775878332764,14.166441852247162,10.549521988094853,2.0167153746092126,-12.70293623847072,-27.27326891090784,-40.31932172586352,-54.27067687262174,-64.80389419954211,-69.85205779489749,-75.600950125455,-82.41401681172671,-84.60005066924242,-87.0557318052805,-85.81733210825709,-8.875683725280098,234.3900124067763,532.6854767909786,552.9925981882458,174.28389178658608,-247.4744371938109,-337.4911079444562,-185.04261262726342,-82.18056332943728,-77.7044347674603,-65.86814439253654,-38.4177327881401,-30.972934864559406,-24.46811014437437,-8.076988468050285,-1.2459142069917704,-0.8002613933937628,5.365517828559563,8.455601891200011,5.619299219859972,5.528974635789547,1.570794481338492,-12.776748299829759,-22.739885204221167,-20.472221276509888,-17.401892132335988,-16.468998705992973,-13.095798327037741,-11.97347675825809,-14.180193286172926,-13.875651606323718,-11.801914739484609,-7.929967416280743,2.245151685882964,15.697521673641711,26.805398648257253,36.17955537584403,45.25780051117445,54.082861799534605,62.4407437597707,69.15092095778753,70.25053298443106,54.86945825125641,17.671157456395882,-23.565732646112878,-47.92083227076608,-58.30031207439553,-66.08618961523261,-69.52672766743868,-62.938927260802444,-51.25796486332752,-42.78446710515961,-34.16985672615425,-20.087019505653615,-9.048243835333555,-6.689052859473847,-4.920086660226737,-1.496912094911945,0.6705954573233512,4.653505507214806,7.5697027191098805,4.388721042692326,0.9339184902062954,-0.21258660333567647,-2.683186226288404,-4.1469885546466205,-4.920519463493248,-8.372752839815899,-9.473786688055919,-6.833706236684863,-7.099913628459369,-8.33888950110437,-6.272731530268903,-6.597688766701996,-11.010739418346622,-11.832137893918281,-7.591271062397194,-4.420005189489192,-4.784749644359433,-7.317889406080337,-10.374020269622214,-10.543562199147193,-6.781699767568458,-4.441226710811396,-6.138506126505522,-7.387677911922388,-7.1439565259003786,-8.216990894625141,-8.208221559788953,-4.795130675417592,-2.1654396458334713,-3.0151068393821774,-3.887211237161507,-1.7593843873850616,1.5496835830910536,5.0221564265051395,11.525668543455048,16.02511141387359,8.23584355942408,-2.489827644990971,-0.48900070429886,1.424041153812496,-11.899591067522062,-26.39462189570605,-32.94536251864009,-41.721612560058475,-50.36319376853088,-52.31068035192112,-60.40486954989042,-82.59721264787221,-100.61834947339173,-99.36914347954435,-91.11711036713834,-51.24821259657059,131.94435353294125,462.407671966781,634.3957740511621,363.95935389851593,-122.22689631162523,-352.8815910613995,-259.90806768739697,-127.00910111970629,-88.30260421359078,-73.84859819233941,-48.50815952392243,-31.466207448123882,-23.05345162746911,-18.18490947203386,-14.325600209574382,-6.951308098269671,1.1754129220296878,5.635120358136287,3.6904555293036534,-3.4006208345018987,-5.769981149943504,-3.3044306461994246,-5.793741516679191,-9.23867946433647,-9.609257558493326,-13.399838214817922,-16.164786250124394,-13.532743958727835,-13.219337471431551,-12.393281794548216,-6.64166189539603,-4.019291905737132,-0.044065113517091525,14.911738822928456,30.726449024589076,39.94948666712703,47.97720667808809,53.906675441113734,58.60072727082325,68.2049538325224,73.7928782697286,59.28530354892755,27.130405742162672,-5.594352743647752,-30.723524737067393,-51.96187779888437,-65.66681754731873,-65.14147268445404,-59.89357485003633,-56.812292795492894,-45.783890379728184,-27.953700711214317,-16.751111162903833,-11.755399070231949,-6.74932911159514,-1.7975054076044863,2.641492726128746,5.850027264093937,9.318020839058558,12.420674048720933,6.376293074761282,-4.877236362748862,-4.912882113169663,4.003517561744939,8.558632782469244,4.4094018248058795,-8.081697294099099,-17.735587727951287,-12.490506336748753,-2.434408166363461,1.0290545480377933,-1.8922895347978823,-14.400662311158714,-26.833389272962613,-21.364123346883524,-9.157547937454185,-8.047400741074537,-11.444408318374485,-13.010898286467608,-13.785085049524872,-10.180655491279849,-5.181459976329705,-4.641478921475262,-5.657547002457903,-6.580268571982117,-8.150473781236833,-7.555948496258619,-4.9012237190915116,-3.9226372784990104,-6.241155131385037,-9.775669486471045,-10.572172840804578,-8.63852783439629,-7.043863814836051,-6.426788737602452,-7.832558013909637,-11.0846278323681,-10.929441292498094,-4.3293357303192135,7.457373502447998,20.010492790141218,23.483825939666033,16.733272285570223,12.334276356151278,11.41910120329704,2.698856561136732,-12.371204732625035,-25.271341179588816,-36.827128464408716,-50.14304911765664,-63.724387449978025,-73.49181629801491,-77.88585884682959,-82.19112281007938,-89.5947056785871,-94.84591496416768,-70.3772762990357,64.0995415072654,348.0957220261099,584.1437091212767,463.7909111739667,29.429969416659432,-293.31079149227816,-272.7274635158393,-123.95368610317787,-78.07579219327901,-92.56080133094892,-73.79037128857779,-43.123900665057576,-30.887735055303615,-26.232253728117605,-25.21123172758083,-25.218158382056547,-16.638435112578573,-6.001155070047087,-3.9728384303616266,-5.112474188263935,-4.4051746310675455,-6.097116764737663,-7.930928483608163,-5.119904281360148,-5.723533458260739,-14.900775859665071,-21.318824526822972,-20.126102098584006,-18.775605314680487,-15.997920188815872,-9.334423344950629,-5.548707956956019,-2.734440779703746,7.429243677239494,21.763539658936438,33.44447845714883,41.46650490638274,47.833883989354575,56.06691699877952,64.3617495173206,65.7670389873094,57.83260109593435,38.31705267274288,5.995745513544442,-27.008547742625847,-47.23254708573198,-56.403073566808224,-59.984872889231625,-57.504344821330335,-49.408539817180056,-39.29977170516361,-29.25952107784711,-18.849036124689764,-9.418537635391713,-3.342051956170497,0.6762465772010557,1.5752421097659663,-3.52751189417776,-6.780189128167919,-2.495791224956845,-1.1955570562276296,-5.011310594181216,-3.2194994394619787,-0.5896422965394024,-5.238987720958713,-6.7707137195060465,-1.574924088379369,-1.315063610701463,-4.40683519158816,-1.2604200854236485,1.9522607928755225,-1.7374048416645635,-2.5406413815796833,4.054070599779702,2.555234791652527,-12.432074524745456,-20.89994954554913,-14.13039664607583,-7.954739213169441,-7.777846582921356,-4.882221620579061,0.22817021735466803,3.595803224772128,2.5081368698488884,-7.876964209242173,-18.353934530966285,-14.444181428525145,-5.900412296569437,-8.359916648729385,-15.436136714672024,-16.254235039921472,-12.114587862764957,-8.907355092731486,-9.6633597942354,-10.748714105584746,-7.907035075880035,-4.896200168813017,-4.485841944130799,-3.3227982980979256,-1.6940673136947169,-2.4621093315667455,-5.085401178222805,-7.602531101501821,-6.787844889246415,-2.5860439003094804,-1.8428582012263632,-6.187082075226392,-8.678715261741454,-7.937073290131867,-8.176408429712527,-9.20559217113116,-8.974320752238688,-8.001072937454918,-5.333447335582743,3.6675569139052917,18.234961045501,26.167265202942595,21.873793533795848,17.029820277559757,14.363846576830511,1.1729368979978894,-18.860469747765418,-30.70959835275559,-39.30866728873271,-53.4264808151337,-63.700193828428496,-65.8363365168602,-70.3681701646376,-79.78075505908586,-89.5603888942908,-98.4278136150105,-73.59777037914236,67.90348578167144,343.1382542774079,552.8024939705454,423.93080975602015,7.754313789422319,-295.2752561001705,-262.44796294340927,-108.09972725802666,-68.09310643178276,-90.70468035293923,-73.39397749799782,-46.98538086327254,-39.884701946496804,-25.099369204886358,-5.653243078728458,-0.7845246150709855,-0.5512866761543496,4.271398359338987,7.356133420250792,8.875714493071715,10.774261379937347,3.71298915840611,-15.41438457412557,-29.898879396452315,-28.007038831908066,-21.148885589702296,-19.941781700189296,-20.24034891669855,-20.202776406840115,-20.482937176010193,-15.725840707817202,-5.991539844635957,2.7785648068347193,10.792357983219071,19.121569966115274,26.104556152893487,34.924840826215274,47.9142518574708,58.811700217396755,62.267471241702175,60.37575044697315,53.38649885175527,36.98829740912706,13.35998557738952,-10.719943128546024,-34.80697215811534,-55.648808625961244,-62.43124843286152,-55.66929731378849,-46.1724836624464,-36.4892344381554,-26.808371760330935,-21.847247181201563,-19.9876570700294,-14.938555639620873,-6.763335331129014,-1.352144414273269,-2.2386903101472004,-4.44837763328529,-2.0641457166699446,1.5177696733384494,2.206182288005852,1.511644875203137,-0.790054265862171,-4.227274781485704,-5.237896342536775,-4.177364794483898,-2.695280966977066,-1.3548887950783648,-3.07622478207038,-6.013347745126815,-3.6013163285035965,1.8887022392697244,1.4296948861141647,-7.598803718737647,-17.952136992278646,-19.993368307929266,-14.653597210131924,-10.530823894801182,-8.090171424688071,-5.659339678178494,-7.394522507490967,-9.365239027505229,-4.78190914807945,-1.1474122252161916,-4.9581959854696365,-10.200898856694794,-13.638396052140628,-15.216422165981449,-11.466061506877509,-4.379463245791108,-0.8211322367638303,-2.581990417306681,-5.64729099605136,-4.8422319944059495,-0.6522795190204072,2.8088318625048103,5.158479933837578,1.7176436738145782,-12.388007949164376,-23.009317951397204,-17.49062412729658,-8.815708422684184,-8.096727231000962,-10.15422440032821,-12.986156300233667,-14.7716219186348,-10.951416787301014,-7.0772333647722085,-8.292923215387082,-10.537272710421448,-12.24787840271251,-11.651462957925737,-4.726155426073692,5.58183491600305,16.856220526413104,28.177732270511886,29.292551029351223,16.91599029099674,4.706891576349651,-1.509376727453784,-10.209502608604978,-25.39044038120236,-41.820846108893576,-53.21882959862178,-60.59764466853876,-69.3802588797311,-79.68579341906157,-90.26292635113018,-98.98945183026558,-101.4844898537212,-89.95127227322966,-2.5957066370353914,247.99650361379997,546.1807734191655,553.7965707027606,169.1940984687759,-237.50489253748128,-316.8988187201865,-178.74699300089225,-96.85035365003846,-98.26462968575571,-79.31603986279283,-44.20985285618754,-34.24179718283088,-28.293741521147155,-12.530986455133274,-5.290155929871528,-5.738065083921978,-3.7895300636303038,-2.8183856760724098,-4.240560274983004,-6.728738236431681,-10.235093731918314,-10.28304591601545,-7.880014317150538,-10.14488745321564,-14.206813121189077,-14.833114464494312,-16.288210226667516,-18.026289843605763,-13.540756067002608,-7.756198291913636,-6.944932039539388,-3.6286217964611502,6.5801378762052405,17.3179018377087,27.036282005745914,37.81195997310527,47.88937344163976,56.46951563206797,62.80121570501336,66.52473259595942,67.63701016823636,54.373494738582906,17.690807778587125,-22.002967475363725,-43.476188704956456,-54.97204876632314,-63.43815470595276,-61.4487439263105,-54.55713803354399,-52.509563940299756,-47.69097768564612,-33.95076171081945,-20.34565990790798,-13.805992961786657,-10.81607017013021,-7.867453243103846,-5.278237236428863,-1.7811295972788255,2.5034225249063606,2.51915384941735,-0.7718293156815577,0.06690098568624059,3.36409093676457,3.452039227402384,2.8600849451113364,2.5006532037032105,-0.5238751480121273,-2.6188770220824704,-0.9217358587061693,-0.09054710227136198,-1.0736304573792186,0.400888053390668,0.5725843974959677,-7.952115602735876,-16.843124694838064,-13.265608889006385,-6.855683561596697,-9.710036596348688,-10.20787652497651,-3.1059257180149835,-3.1280430769208696,-9.934922152970541,-11.05762819494988,-9.395376551103311,-9.832162624695389,-8.785385363811463,-7.296449118292278,-6.975964561400865,-5.684998275834786,-5.389760943632869,-6.94019180099297,-6.931405462661042,-6.078747067942821,-6.596143626064439,-7.306194970990894,-7.471416946843464,-6.273004908136448,-1.7420214812498962,5.2286810754774695,11.43839994058477,15.752090908971995,19.535351542027044,21.825439582125384,17.584310327796175,5.876212200236618,-8.669095753466495,-25.095035797943087,-41.296510925660954,-49.62309189512568,-52.54465118015716,-59.33908647752917,-67.66528825843119,-74.95092192490276,-84.65682833739024,-92.06528390411376,-89.2738123223415,-41.255558446851715,135.33793870582878,424.37708857450343,569.6317067717591,334.06812522468107,-107.55827076401526,-337.00107559190326,-249.42265337213442,-109.40817464087804,-81.54828288380921,-80.56326179610731,-49.01264772788695,-32.37567859807717,-31.675320792577594,-18.392223495289887,-5.533220288318983,-1.05495117919323,7.100145186665165,13.062695390782087,9.084899363575978,4.687615775349444,6.218050814281203,7.059948852220451,-1.4597111359202177,-16.63827839383535,-24.65061019574859,-21.04685151978743,-16.978895502681688,-18.45895034210627,-19.706523473995084,-18.147402844946768,-16.16714138965094,-11.246096333904264,-0.5263911968407218,12.436103764994842,25.052990138680578,37.14081069589434,45.85505861826375,52.55036730483329,62.81579221364993,73.09736810653764,72.81980725053698,56.986185280047216,28.482595424412345,-4.270675159057229,-31.975745997173416,-49.919958000691096,-58.20266437670042,-60.9073501640341,-60.870376259588355,-54.45359799106399,-40.938247986319126,-27.481592191105428,-18.429923126645487,-13.175923316356503,-9.938275267670235,-5.67788618011115,-0.4296256569362473,4.601599895263096,9.581086160564965,8.993721370035077,2.1709777928521508,1.2722887831611764,7.328327556633681,9.73308083562562,7.880087383582884,-0.7323594662898341,-18.713270458490314,-26.97197580887658,-16.037670687330284,-8.215575604915653,-12.591137649226305,-14.274958758515147,-11.648804320211582,-11.652328447322308,-9.49648975662391,-2.9226587344145596,-0.6620936190973783,-6.0542069678355865,-10.366532384402678,-7.6423452103049225,-2.8934790308724203,-0.17645372615942634,1.6565919003332734,1.1128614617055188,-1.5897756926264517,-0.8683251488369432,4.529076777602244,7.4455497857560236,-0.333359945441849,-14.257959967211589,-17.94061717417724,-11.163887754306257,-9.993445885861538,-12.454918176285418,-8.696878916954773,-7.533274076722776,-11.643953365091193,-8.206839658900716,0.09614820341313823,1.21766812321642,-2.51682871445977,-5.298846936085502,-6.676269188982435,-6.133603903807167,-5.919686248394829,-8.647135695258786,-12.294708942086867,-15.475978228250119,-16.934224027366128,-12.0935969182964,-0.003061364365951391,12.40640188244177,16.82261852069169,12.6786552167827,6.6368021532992145,0.9026281824972457,-7.700146585422159,-18.661893414161703,-31.034155281182787,-44.83922834606216,-55.44685895244321,-61.019762234011225,-65.87606769148131,-72.38742855881411,-81.80333208458944,-93.35083533987444,-97.46667206210466,-58.49227750066338,100.34216408294768,387.73613097794146,579.7296516157065,399.1436977915106,-44.89050798405575,-316.6639822103019,-250.59351002495276,-105.55168197009955,-74.55359328116836,-77.87197725221276,-51.95788383161444,-37.43246255371757,-27.911270074126037,-6.788841388434662,-7.111838915405805,-21.13984627012034,-13.102953392956799,-0.29634625810542836,-2.433999983134264,-4.64572981948179,-4.0915183598682745,-5.222063491368843,-3.024630053680811,-2.0413077819117174,-5.025472073016088,-6.381685617863916,-11.238708406122859,-21.578519330204315,-26.48137079508566,-24.077422504021058,-19.655495130431163,-13.20208122647679,-5.444495394029182,4.277869741687938,18.823491894288992,33.40127813286513,42.94741423938774,50.960501181717746,59.18114435716443,64.42062916687364,64.98738295912844,57.6118650913781,37.59499491092327,8.076500917592842,-22.03517134037214,-47.15852275567698,-62.55260216913325,-65.19511893370905,-62.780718643833666,-61.5558818255448,-52.24083575432415,-32.0700940380295,-17.458931979990574,-14.98940715901777,-11.76390644763632,-3.0562258518930356,1.5559806219877714,0.911190863491596,4.078872245586755,7.622953023374961,-0.18023222967500274,-11.429217916454363,-10.879316556178459,-5.738936554345283,-7.15371671109342,-9.821250703984887,-10.279790539512607,-10.918752943078253,-10.227561551736791,-9.430360526304721,-9.745828212008082,-8.170435937809106,-7.46811727468967,-9.677494036907618,-9.578625461062586,-7.6922224960030565,-6.605968070889132,-4.168215908884319,-3.7795944452414325,-6.508066784453694,-5.492638357463715,-2.4916110064573544,-0.029339108314182738,4.253457753281975,-1.290042569161539,-17.81515945780074,-18.782645814721242,-5.178183127642935,-4.587451024464356,-7.393619911356804,1.7507155344621346,-2.173467272661078,-24.26299988167805,-31.499495937552332,-21.45191819241139,-18.041944629700843,-19.727293499534998,-16.051376070481414,-12.067789218960169,-9.389080920193798,-2.1981928611973327,9.046766255701513,20.082851502475535,26.932253529805884,26.252793228201373,20.230568470473788,12.358604347847546,-0.015808724307410316,-18.065646532274542,-35.10596442645165,-45.84074631945825,-53.33620150719205,-61.94769613965991,-70.3582663179007,-78.14682213666559,-90.00637826538494,-106.32285567594705,-116.30251386024568,-72.42715123482373,120.40534828288746,448.7955050830746,628.7859944914328,387.5168623400905,-83.74370623837859,-331.0205841822634,-255.49268549488983,-126.45796077582331,-93.40799596339174,-84.99014822555613,-59.33251728754452,-43.64839372652395,-34.41673543334877,-19.891600017187272,-10.534858152052646,-6.114730059894528,-0.7472707725144918,0.013600073079334862,-2.2974201379732833,-1.6827712922297664,-2.3142988768672197,-4.3760882999703465,-4.1546058250326965,-7.530333282831979,-14.181206594589861,-14.329814722589381,-10.996974672501807,-10.839675688530143,-9.208358879447353,-5.644985966067194,-3.2560332043727414,3.1955236380321015,15.207527229184548,28.13954364183307,40.0264991690556,45.532452869252836,43.28071356449569,45.674810376579856,57.60529716034906,67.30251082182554,65.29664540486662,49.042584199246704,20.324415862080848,-10.800815179009295,-34.812011620082544,-51.834371614468076,-63.891387902885185,-68.41531452851062,-63.43334781261019,-51.9027193998171,-37.7516487202516,-24.786029852413915,-19.093030988796073,-18.660653139576826,-11.28936681031755,1.9317148445146248,7.350048679153413,6.669359940245943,8.648907032222276,8.492013867128442,4.7523766918819845,5.9506807641861705,8.243669006000225,1.0452579959698394,-9.368627417471034,-11.662316188151678,-10.111786140766284,-9.862939837493577,-5.8865408151750245,-3.091539123133792,-10.712422547529876,-16.91205114529133,-12.886402942709411,-12.061380462865207,-13.604018706190162,-5.809948780180527,-2.1371619009627203,-10.674984774368632,-12.163278982553411,-3.328485193457672,0.08046503884183132,-2.7855908143121635,-5.776822091234983,-7.973500497426301,-7.2351648865104625,-3.558751262652688,-0.1412408132203673,-0.6495299456291548,-6.648329356301289,-10.11945843225024,-5.192221868265622,-0.5291451192834877,-0.6945444893398136,-1.6752548948647785,-5.359204845242562,-10.104493429002464,-9.077895371738432,-5.9813730596306875,-5.231785768206203,-3.373448562156536,-1.849945347282759,-2.4028373955688753,1.3689739638690224,11.476164021278404,20.3228444343275,19.964670816754165,10.474721614971205,0.4017299379714423,-8.007262166583928,-22.22950332796073,-38.17247560471358,-45.50919433130095,-52.13485602791073,-65.75828187801896,-74.74982151296577,-75.31429228009168,-79.54067615347037,-91.20576362323074,-94.91654692135788,-29.205358433296652,196.56571285836225,519.6157849724841,627.8874268849231,308.5147219827875,-169.68775458392682,-357.9799879598795,-229.46087885589694,-100.85732150428193,-96.0834291324343,-96.95134648217375,-62.944012975098275,-46.4990438236784,-41.82674804115081,-25.493467277630543,-13.193618260354185,-11.18852935387864,-8.837424036993442,-6.025261795670847,-4.5615397997923814,-2.7665375698541688,-1.8759998873596793,-3.6907843989284075,-8.20942860633441,-11.108858691415282,-8.812378499677425,-7.759303534877683,-11.947327555552974,-13.948393580027739,-12.294226270068112,-12.22999433385865,-9.870695931425256,-1.1739981135824822,8.083405439365958,14.960983639593815,23.553807054199574,35.57647776564481,48.621583806060876,60.13758556256848,68.86276253224419,72.82882513535276,68.34437072090599,53.710979631726374,29.794260602343464,-1.5928538721054393,-33.38364544359111,-55.616781228165365,-66.20822530911022,-68.53328547926372,-63.18588835463849,-52.858324832867844,-43.22267078783335,-34.16671921843928,-25.06910810070683,-19.90452561127251,-13.204485920286745,3.4070436293638906,15.272980263892709,4.9908316102324815,-10.650940168188967,-7.13069076678827,7.463605762689349,12.853545528642645,8.656521740509547,3.718348230004718,-1.3535292326735746,-5.555543716542603,-3.349776617967681,-1.1056377567634303,-11.0992135889698,-25.010708612667308,-25.698219108187693,-14.538748834805855,-2.8568416135046455,0.7120717771811016,-5.966435705791952,-10.826527518629884,-7.018159009643782,-8.104463802372244,-16.117699987663997,-15.381623538345526,-7.454235098938213,-5.943269875797661,-10.30845835448,-10.41634031062111,-1.6154632918099452,5.12242413816727,-1.9110520544307903,-8.522394457310027,-4.2125615705276225,-8.923489375444145,-20.716515508134524,-11.24095076140107,4.320501505756241,-5.839617202296624,-19.28766851875976,-7.905382403469282,6.984635934833925,4.237410297234755,-4.0340997701760895,-5.836078874641832,-3.9063787067371045,-2.0755562145544015,-1.936695896182889,-4.993892517973939,-9.712571414322865,-11.420965199859616,-9.699452587044952,-8.661620239503295,-6.864511604198031,-1.78487258053174,2.1016828242043566,8.266271731796001,25.226501651022765,37.54250402933917,26.230353076203095,10.088781478846178,10.122776895267627,7.203412928580643,-13.499276575900337,-33.314790579814336,-46.07724483169646,-64.7129876593587,-81.44445985825696,-85.54979943706135,-90.38178143710599,-100.48324105010066,-104.44754071660782,-96.34568719294975,-27.65709490821944,190.23027339613338,494.4594211995295,588.5638337540329,285.319745976018,-154.26373450591217,-319.6428015826069,-197.89401551486907,-80.0522107639859,-68.00765804597583,-59.91152487034547,-40.280548149161575,-47.44614750075675,-48.28977045336778,-28.840704323921052,-22.897594829588208,-26.24782590397559,-18.04548623996262,-6.758213804128154,-1.8587969818615164,-2.928618549379582,-7.348869998739534,-9.091922644726054,-10.106046432822666,-13.513968198995613,-11.9811001563336,-8.169554236301543,-12.92463338319167,-19.39355113849733,-17.072142347705686,-10.925855357627029,-5.3277662250374345,1.3597027461849582,6.862764478211814,11.378117825297064,19.891331061081868,32.28898355163731,45.757523550656416,58.99614687517034,67.95031633247201,69.89092006121192,65.75314053646026,52.57637385453303,28.965470580471035,2.4976164201792628,-22.05558032657793,-45.506729105504185,-61.13767358492642,-60.64206602457406,-50.652949895227806,-44.257667210876264,-41.25790406461682,-33.884641769467095,-24.736361681353223,-18.89457662920391,-11.203164565575328,-1.6080146355032703,0.2811189354672372,-3.2799609362894167,-1.9918966044062394,2.4045023165950123,3.5132408860333975,1.13006775229751,-3.1837328344350784,-6.709431935010064,-6.582354682404214,-4.226842537021717,-3.2543171947156537,-5.137002813249607,-6.52998020086668,-4.072052719291893,-1.3643136192143324,0.5022280174495837,5.402737501863834,8.06640198077466,5.112516209029133,4.24357950377167,1.776800135422537,-7.079593760531077,-8.901927064274515,-7.297645842693109,-20.953692003696503,-34.021175895457695,-25.379178439708117,-12.573112513670345,-10.385274542734864,-10.466733505253131,-11.556665084526882,-13.50444284898272,-10.116521136237902,-6.170112915346291,-6.431175770498516,-6.282938005588111,-6.335122933511538,-7.329332861351517,-4.077541715529415,0.9534752637607387,1.172743816076304,-2.3013961648019023,-6.015567455900754,-7.948465172478141,-6.329560744023935,-3.234506407526986,-3.3045543119615512,-7.665915857160606,-12.012557220767334,-11.070472848373974,-5.800491845241025,-1.9067219253919916,-1.6848515564680273,-3.0127980856701715,-1.9847181462190484,5.328279087194922,17.52667046337746,25.679843750371795,21.812762955564853,9.891459134718907,0.7767622057171799,-6.125521789972948,-18.870428918985272,-33.05745382592916,-41.986142923756134,-50.856069302198364,-61.14184832248113,-69.78090268255215,-79.69514538945508,-86.54175031670715,-87.79756315244472,-92.6578709243256,-57.34012130034506,121.15720249454594,416.5293036629302,557.5741980032442,316.92350655365664,-112.58977244041992,-312.61127745839246,-206.60742417722707,-78.80727552679615,-68.53655701758021,-70.00271102271526,-43.354269150486516,-30.79119102868527,-14.433117895113611,-2.395561263569771,-40.96790578369853,-76.6049121453298,-37.43934398431051,20.052275361003637,26.525175549463924,14.057543123017716,14.780688052903479,7.740883340709786,-6.653420147134037,-8.59719265601244,-5.124948615405356,-4.253294111626854,-4.670998556272236,-16.109580535111906,-32.708672674372195,-32.92086231123105,-23.38762228562478,-17.403063589365402,-4.812943374260856,12.704664098036345,22.876957782994975,35.379516193401074,51.719230563574214,50.98261111601818,40.26227175511298,51.48056286176245,76.77595671585787,73.6890233853276,35.97119170633039,-2.6882822520566734,-29.30161608937505,-54.75055969878409,-74.98106568109013,-78.30159147025896,-64.22568548443385,-42.64262616772535,-32.367894845916354,-31.150841187277045,-9.596065615060876,15.704564861607263,-10.474644219048205,-57.83804421443322,-36.729037091072335,31.160253177217918,44.89318507183777,11.742117385913922,7.732602528124338,15.548900365069734,-4.9215295514382404,-13.104968951617643,-1.0701030778528704,-17.866340892546596,-36.28854090696784,-10.281826487485667,12.439195421095071,0.44698962450997115,-0.655735327098034,15.56730881740923,7.79494882407135,-18.74981190741839,-20.0924994825326,10.723249934129345,23.70203319539051,-12.434996642174106,-47.14777326156663,-32.54272150478581,-5.784434433172919,-6.3897847524433615,-12.08254487885346,-2.646773909742871,3.5540766979029144,-12.614544513586504,-31.08565274159609,-14.510800903584586,13.329083601158635,1.0348250103624732,-19.055920272349844,-4.139340284855058,6.365381971533665,2.2083070578197166,15.48450929918231,13.7094292571086,-13.471526538325325,-7.207533029014279,15.57533108478576,-0.19284996063450066,-18.515785318972583,-9.664409951021334,-12.692028307691864,-31.267070387067193,-31.424584320522477,-9.950992984535041,15.177684208097503,22.695935268901042,6.122477964548072,-4.898466385037853,8.55531312734783,18.252527983533206,3.1429316188500707,-18.46799036726926,-30.532135805059575,-36.776974819705394,-42.318485778773336,-54.405939975655,-74.77033959253566,-87.86819068943751,-88.72274398750122,-87.64112061080074,-86.92611986689249,-89.24030394479102,-44.26446858360873,171.22363376961147,504.06252546788954,609.7078149825636,295.54907761543575,-143.9096531628763,-319.5921113033776,-228.89434499257993,-120.91582865141788,-97.03307895345559,-75.03314188759454,-30.9351549891407,-26.213293227332315,-45.995487807692356,-28.890444201837745,10.130814436648642,25.65027262124375,13.441134628592302,-4.326922334143481,-2.379850301115784,11.133213662346066,1.7893759444628277,-20.644815033870437,-24.565690516453177,-20.563673493103792,-20.25110426332043,-12.68984348605959,-7.331902236761136,-14.047411022436457,-14.529382220309394,-2.3395538058853034,4.798803661063217,0.6453408781585459,-1.1649682025403933,13.366658681770486,39.44180561199561,53.47917734353151,46.71928169835613,42.95629313552382,56.574025984697535,65.31319538249403,53.45760082089669,35.65570271718934,20.26195894565491,2.8005018363940217,-11.737590146914037,-23.630904714635633,-39.91823702190036,-51.63119501201558,-56.41960663809663,-66.00442685742522,-63.07006524158265,-30.011646018148404,-5.731908344003934,-19.751487471887394,-33.2217717959427,-20.280308782349522,-8.928306321027897,-7.823553648151822,0.5274652357112863,7.660697571848948,4.151353614795834,3.52505898023335,3.157799699117122,-4.724010735238696,-1.4014574937406046,9.503641900989692,-4.739218797119873,-26.635455013806798,-14.341792278038305,8.99119406541103,7.0077662858597645,-0.9670854692202955,-1.0829307327104498,-8.079747780511163,-10.253128802712672,4.74534486039493,9.890166382697448,-4.309783565241199,-7.3353753453175905,4.660669844735633,1.071590287025085,-18.854481538801508,-24.19611613450351,-7.067486843216219,8.630239821721501,1.4382145818302394,-21.64010929911641,-30.19791500269598,-15.727445118089726,-8.2443929704772,-15.877291211310572,-7.358629185203269,17.529260911688905,21.240752644639283,2.4039185979573423,-0.7528755501876612,18.77596170219662,24.422975660597018,2.173086018409121,-18.281323712648007,-24.84347144538712,-38.01070314607581,-57.532642787132744,-65.73308319627508,-68.67584986064873,-80.91382547346896,-95.59107387376164,-98.39502687523888,-88.41921404091539,-30.91865251991625,174.11615797502958,490.82837758365923,589.0581070627361,252.37973883896473,-195.26135204693497,-326.50571284846274,-203.86748272081874,-109.8808092294448,-85.36656148052373,-59.650967785452224,-43.196693255780644,-37.19614269580889,-19.256994194045177,-2.690084230061867,1.7718992046300848,-1.3593576089349284,-11.781215875729782,-16.956607591700163,-9.411834549063887,-3.2487695480179184,-2.7624265453030272,-4.392957177167521,-12.679509192798612,-19.58617395928943,-13.216657183626998,-5.298062408169599,-8.77326935897089,-15.637982072924416,-17.048690745950594,-12.806956255733281,-2.7919755968618767,7.52365490205513,12.391451303503356,19.86409409504664,30.19726878031196,29.30800070221339,29.129755024092454,50.53891261834899,71.32112020732754,68.28435519938259,57.63455059342201,42.459763819256835,10.023892071015556,-22.001937384932848,-38.91944932400428,-52.99396020577265,-62.40558700535176,-60.03217791427196,-56.22000985201993,-48.48425069588985,-31.42450081148969,-24.92087489603471,-30.11731674198977,-18.823678228002944,2.5786841878585776,3.482050940168989,-7.424371497120124,-5.535244722598783,3.391950538475033,5.942808848801034,2.96694552924383,-1.3885551123131705,-2.9949926752140783,-1.410909192299858,-1.664047432897945,-2.9808726589119736,-4.128971128273136,-10.723302813626116,-18.938418383385258,-18.282850406908807,-12.024132029250731,-7.608973342445324,-4.621139968249436,-4.867859593541912,-9.230336484389603,-10.807437000089902,-8.00367591893679,-5.850170667360414,-3.5365011662175068,0.17942029415825722,0.9767908994667795,-0.9727635974224089,0.0673437128837513,4.576682504947923,4.962672854702761,-5.193615934735359,-19.284387207741737,-23.55848470784077,-17.364505238786307,-11.896342710133649,-11.988519766587416,-13.759256454791855,-12.631913106524166,-9.171121182734353,-8.06511441183725,-6.728677722882791,1.5126918334173052,11.444765951829096,14.813823732292018,13.638650282291845,12.039751779939778,11.772203751730197,9.61573760264146,-2.052392177089615,-16.107581755602745,-19.655094141663607,-25.480104547086142,-47.74211440183235,-68.98181162252654,-73.87088348543622,-75.11905988317457,-81.79046686764335,-84.82592938626257,-83.63898038598973,-69.26440780085048,33.487815807666024,281.38330311807647,512.2293579893831,444.42355650036427,86.65979653257193,-215.5451228611922,-243.72493256678672,-133.19387511684167,-74.9568632148613,-74.46964010077191,-66.54380171388496,-48.299631787318305,-37.16918428255258,-26.142571899835623,-11.9614457866277,-4.656030105419287,-7.843903820214891,-12.783388214934789,-7.78506951515698,2.416282052990848,-0.9039237594599463,-15.084255992159864,-18.458478529268362,-10.817862750225554,-7.981665416352065,-12.372425649637911,-17.980449359298824,-20.137180504076344,-15.98569110401688,-9.553265711865862,-6.0784097305737435,-2.49283853057218,8.105286338850577,25.212129714749118,36.33730936292037,34.96001661915456,33.7022192207272,39.680717796543334,47.93531764089937,61.12150076891903,69.87178067337271,53.220948581485686,24.53535736209156,3.571614105133917,-23.552754376191984,-49.40621262251872,-49.9547021443739,-52.34252558949426,-72.13020719074686,-63.77888552072843,-26.46114825112765,-13.218218865905989,-21.31816193113751,-19.483963539373104,-15.47835969158136,-12.608126499327405,-1.7279611986653407,4.376115039783119,1.1682809217714016,-0.34123023307340183,-3.0044268550541062,-4.566073695946448,2.1370733792978136,0.6283139672225584,-14.404375133477352,-16.720255664486842,-2.5658875331236484,4.413651031565735,1.8456831570419254,-1.8081936090077235,-10.759661957881125,-17.714316588317672,-9.566853840176469,1.4075415388832067,1.5569033410261888,-1.1441549193901785,-3.336392440290533,-6.80117449410246,-3.315120847171727,2.9246447831241458,-2.465652034837351,-12.873024422294115,-15.634076180555113,-13.484334293437314,-9.627533621462625,-5.31463739405922,-4.698007360408079,-5.737997239905219,-5.986131837927953,-6.825514952438837,-4.968073772677599,-1.411934155279429,-1.8661275659938568,-3.150274966354866,-6.856188986482117,-17.62138194483318,-18.599225130781782,-3.3939440193828165,1.1838020046036686,-7.8872951372687385,-7.304292465917282,-5.176613326232271,-10.850054540270838,-5.021553377865007,5.75341517975586,3.561686027249868,7.72200435136669,21.164957602876022,18.656652853668618,10.646926374480667,10.624561285533835,-1.1918790903884489,-21.281693113262936,-30.110323289159417,-36.98222373909404,-48.68916635223782,-61.66893764478777,-82.22066483191817,-102.2416540732493,-107.24465814889196,-105.56033582653103,-97.73040488673229,-30.495707774506982,181.94382042462567,488.24466280974576,585.1400206321974,267.60579877392513,-172.13947581913123,-311.83558537060594,-189.20262735407684,-98.24811675954871,-94.00979115458021,-71.62982817487294,-35.05173443444025,-31.885899391350634,-35.945309606005,-18.347073776231625,-3.2819565492256224,-6.208640972325403,-6.658503737460476,1.4545052252109532,4.477060817552854,1.0786217012201895,-7.761385588752878,-17.05409139282358,-10.272239461648248,-0.07466756743243153,-11.722830275060574,-24.379793008755613,-18.983834941708075,-17.90790245754274,-22.291071460130894,-14.43505273240707,-6.984305872833508,-7.963285501171112,-0.41713385202217124,19.07222067546432,35.47109923556639,35.897454655797716,28.05764257806203,37.576176979544414,62.16492448636468,69.20508282436316,52.94623821659725,33.31547254882571,14.950374022983683,-9.059392462010713,-36.268456758248774,-51.68327077173998,-52.32951190555751,-62.40044082449242,-80.95791010893691,-68.0709966470858,-31.646863412362485,-22.54052669521448,-30.155144581384484,-12.378987765136593,10.695834023415244,6.455675953204327,-3.2806539081044725,2.4520320704646963,4.828363861723103,-5.974683571189427,-13.415769391204858,-8.634817847987126,8.044746110174557,31.982159476477406,32.907916955155905,-8.708085831251513,-45.78298490894741,-32.59099475281886,-4.92536691558432,-6.337200304769109,-17.57643578126529,-15.585387628013061,-9.287553334085764,-5.507128980166753,-5.8232934005554515,-12.669486414435411,-16.385204295481994,-10.748602086862856,-7.83914341934538,-13.015305540317467,-13.505962153522404,-3.823019856163537,5.355850764828122,7.059353242521549,1.4528286116943754,-12.601795048002018,-24.161509463264167,-14.868395673434584,5.17227656001681,11.47767674872967,10.034239708801664,15.749358792733076,18.42123455446168,9.329821806992705,-2.762023609271793,-13.934435717301449,-26.623526267109234,-37.99815620832254,-45.93200923750442,-54.11774650859576,-65.16485206453163,-76.50218299056624,-85.39471171921235,-90.1891832341277,-90.78172073536012,-84.09102211209968,-13.565995690880541,218.4537807103169,528.9480517183355,577.1824854257488,207.30349851195217,-225.52528241634855,-326.56445067722166,-184.15345022685398,-88.69494939447578,-80.22342580433383,-61.79060580650306,-35.70121957669786,-32.68273221894879,-30.643872043796556,-16.71669876141283,-5.567562042326989,-0.3022619171123395,5.353976676301474,5.457624438261067,-4.198760403135944,-5.310104309271592,10.47202179080694,16.550175394472504,4.817286089691837,-0.15862220334940957,-2.3008667190261,-16.990952155569676,-24.16010877649251,-15.81557389833981,-11.730540208067445,-9.062073236872363,0.6902964371974569,7.812683196113802,14.177436596932651,21.72716267639696,18.657176800477373,15.27609371032523,29.815896745370832,48.93059786105512,57.425348479692786,61.411528487631735,58.42591992311764,36.16368921020492,1.006120283042426,-28.47595435986219,-47.844879066682005,-62.783980013580575,-70.07279833890803,-65.30699860727943,-55.46569468356622,-46.34661472521472,-36.73702834717611,-27.099036994557537,-17.204925137494847,-7.6883017054324085,-3.624978927458301,-2.6378647872050287,1.1200482980167727,2.888407582834258,0.4960282645602607,0.011999467421086152,-0.04357339183838782,-2.9370071743320754,-4.503287444788523,-4.0849954924261525,-4.412422378824939,-4.480384099296272,-4.103686687674122,-4.720620157432403,-6.6750936796223375,-8.504316671930066,-6.279093786204557,-1.2535636014079952,-0.48180096526470706,-3.650958485180002,-6.328798198285856,-9.344855763823865,-11.213966118864564,-8.87012059011337,-6.246865590904898,-7.218863394933223,-9.327700603055188,-8.792188936707037,-6.201568549020768,-6.497860839730258,-8.78668367096955,-7.014161280689594,-4.361472191285808,-3.5544124687660776,0.57229997385895,-0.8956966238826745,-16.740790330070922,-25.36276689206096,-11.582373067080711,5.388161396027803,13.112896605512361,18.12435021252355,18.833617103712648,12.048926304504551,3.1693382496339657,-5.712849629166827,-15.237095770178996,-22.93208164741248,-29.069835123755656,-40.44201355721451,-60.26034982066328,-77.19036752904077,-82.76856460159918,-87.74772704255062,-98.03320998008743,-100.27950967282095,-52.692110102370115,127.78948288550166,426.7638476250859,575.9633872065272,328.46245895382447,-113.89667393406424,-320.99199497963855,-225.08046906835807,-98.91570302170986,-74.85602177968173,-70.78347287391037,-48.16012553427264,-36.78610019844898,-28.355504835560758,-11.969040582854998,-4.402507268315393,-4.03399737519624,-1.2803600236644286,-2.7255587811942306,-3.9088257170083196,4.661690445973003,9.852685683735722,2.234280433388916,-4.305845575440375,-3.226537088482612,-3.6711970298950467,-6.42564687061731,-6.603637721799808,-7.846475920765091,-11.845422588836184,-12.639851209113253,-8.772940295204812,-3.2269678740228436,3.202381222420114,8.936528882473553,13.843926591240036,21.940124486257815,34.34260306303337,48.949053861430784,62.49812217180962,67.38383793234914,59.37276425617569,42.954619605578124,22.038904557968976,-1.7843521914770175,-28.2566765773874,-57.66176489134233,-77.71379155962792,-74.68666583841147,-60.464916797771494,-50.75563606098318,-41.195968829560364,-30.901413461220603,-23.877153855741625,-13.476507143630123,-1.4190538400521504,3.080227300199951,4.39359742941094,6.327221648537215,5.565948275374918,4.388059113808925,3.6731471846979016,4.100400552805041,7.019671769558592,-0.1620551202547169,-19.291271063550973,-25.16632254107192,-13.78540114877812,-8.277840196592106,-11.585895815641233,-14.373203927063033,-16.851547820696815,-14.316360243553163,-4.922663105808514,-0.15030078700413796,-3.6716140900700793,-8.457414061481977,-10.535664468122377,-8.224042799422325,-3.419826061003114,-1.2204138890238347,-2.438259033551759,-6.115200654849028,-10.162801127877742,-8.973299608924453,-3.2066895546040826,-0.11474461683792825,-0.8684460241902041,-2.1825773049865376,-3.1017008955477223,-2.407151531182734,0.5290822131383823,0.9557823220149579,-6.524944914962056,-15.999543204689017,-14.947688487445571,-6.271957471182903,-3.69655117709223,-6.12124861913917,-6.143239972576387,-7.097114054341047,-8.483691806248784,-4.555430704230053,0.07497402105212636,0.24924978808129694,-2.0678395215242436,-7.1837942744295855,-11.687059549180717,-6.996573727093487,2.878576748319121,5.51997626350874,2.5149246770598834,4.8042610725522845,10.73745414371426,11.161848787191111,8.550097734620412,6.022072465146177,-4.7972280680112345,-21.97082849656974,-31.66622897813819,-35.49468374674619,-42.1824647175634,-49.155385493134695,-57.74699377961148,-73.87619293443744,-88.98813869143484,-93.32239998957462,-92.83953052997097,-67.07681825944844,67.65424678181157,340.07590963173425,552.232290838251,429.02827355351593,25.566764862276962,-270.6367700784421,-253.84499661504032,-118.64840277994746,-72.10046428985679,-71.51593920810248,-40.74529223231468,-20.46555561964186,-31.547209498772602,-32.18896555273995,-15.829400823614248,-3.460354577909424,3.7742168286035405,1.4980246190847204,-13.204489953051176,-21.267138556136235,-16.596829589982864,-14.501546700182153,-15.559963277809972,-12.64167824516005,-11.875540467218222,-14.68575108986148,-12.868732882094246,-9.882702243854501,-14.919744891480239,-21.275397550398534,-17.77057212023618,-9.51620421190763,-3.2918938775550597,6.896611484265392,20.510565113336092,27.93330547770752,32.72913478167383,42.268637798095284,51.06521559718788,56.39272268167043,60.48743868784883,55.54799372170489,36.051918794342335,10.04138670506092,-15.04416578691513,-35.57494541775144,-46.843280083627405,-52.16747700186849,-59.27792381331747,-62.148500665440515,-50.58134831126926,-33.16221512804509,-23.668958878152917,-18.17224594417265,-9.81322733629765,-3.120070699852386,0.7055155582001458,5.371975696701897,8.132250577074249,6.282348699320925,0.8992063005440514,-6.46071614900317,-9.081467657632015,-4.355084509998907,-2.299250902731549,-5.595721807035499,-5.680142415814103,-3.1370276558389225,-3.4456169260845186,-5.443248350032949,-7.143928177828762,-6.803089711747409,-4.776527683532565,-5.207200768337042,-5.166702826096149,-0.8792382322348562,0.8471449197111109,-0.6087964716942782,1.6959815290109983,4.10799956358855,3.058710668560604,0.7285784529426156,-7.568937547877553,-18.444479819001792,-17.584468816470356,-9.135301356062309,-6.715993483314911,-7.615279791276217,-6.953241540331037,-6.21503349089101,-3.6855606046201554,-1.9974683908546726,-6.511795053493039,-11.909539712828607,-11.946318373592858,-9.090418405232375,-6.614095984179114,-6.0860099025028,-6.861790640757716,-5.788838180802507,-4.404078384134397,-5.1303693391048615,-3.956421195885339,-0.5770674837641927,-0.9180934565618664,-4.6465814493177895,-5.975992161628714,-2.7979616462031505,1.1822364452631273,1.163467553040915,0.37146612805028134,3.066138147094861,0.5065950673932118,-11.564862389885302,-19.61313775363206,-17.92696830254939,-13.805150653693833,-5.776359849483637,7.725759350074902,16.667672652563134,17.118318901101432,15.515943607255227,12.671310952211215,2.3098547461378107,-16.487314003721544,-33.89805032468008,-41.629226888444265,-46.037967108392834,-55.95097006932244,-66.61953689664145,-71.66051748961459,-74.99994220824415,-79.82554457781421,-85.06838761369738,-76.3753999651332,13.253750841785049,251.22818538102769,517.362404730176,514.6131296757603,156.2564310830469,-226.7331545946686,-302.89049601311484,-164.52424315133374,-81.49590690560713,-86.28971024682939,-73.27048024503372,-45.15624643184162,-37.62017948795446,-25.996476428955518,-5.7563258522291285,2.9000000943058666,6.065584254583722,4.579226306998676,-6.420369316431543,-8.0947159061581,3.5084016948890575,4.754922674416829,-9.485398293973322,-22.889011085956756,-26.1640617591641,-22.006514347571446,-16.77698743547682,-13.181649487379964,-14.316677832531564,-24.331058608402955,-33.04354430408634,-25.44111615264655,-7.922793125204329,3.8973008114530003,9.60106147266409,17.68088612661478,30.148702733298506,42.1003502681348,52.13031090596187,62.34395042160342,67.77357523596588,63.09439243990859,48.82803952718667,21.035757045384884,-16.57632661121187,-43.732318066944586,-55.62588870022365,-65.63223492305255,-70.61621938551602,-61.593030627638,-48.324922021038816,-39.06734465340813,-28.764754728340783,-18.206824340315205,-13.902980969579275,-11.727294622235249,-4.104070681791885,2.915293786512713,0.34014695494826697,-5.224377169451785,-4.651745668869314,-1.5748580243269572,0.2816472894299764,1.8889288205803076,0.4903833041054657,-3.87681217263202,-6.566331382193884,-7.171825465869794,-5.898508981523303,-3.665758160304902,-6.052638300032342,-11.032525814204853,-10.27429154408754,-5.822333007892533,-3.815736931259572,-5.290083899026818,-9.574029617487199,-10.834821188941376,-5.98389272087573,-3.179350648228464,-2.968734491425657,0.33801230308746,-0.7530183160040487,-7.528077176188212,-7.246534069988275,-2.8803735109617534,-5.465143938144099,-10.969701301161559,-14.999397032095148,-17.077854485858623,-11.832183890253042,-2.7574932582950833,-0.586541026253224,-3.3633152909275363,-3.281802116638243,-1.493489553654058,-0.7951825370801107,3.032063171064525,9.00467281917172,2.1980499892585676,-17.97216186706796,-24.895520863103933,-12.428672302427625,-5.856148012505125,-8.032414841676875,-3.594568036888246,0.6820831817322794,0.6407644789261155,8.996870313064441,19.081724529903454,15.418394690819037,7.20847491267278,5.139148282981655,-1.1504634454797777,-18.16051150472041,-33.252978528958195,-37.941314510241746,-44.446490355040446,-61.42280792021663,-74.13445036625126,-74.89526338054343,-79.94032229681234,-91.48241024112812,-95.50822646222598,-93.23257814000702,-46.71637525391696,147.03362573664097,458.1816082562589,592.2323367128813,323.279119803693,-121.43829674282745,-323.9413490507536,-229.34233539870644,-105.36020816208932,-81.45870110802232,-75.54751679015286,-48.15828854497833,-34.26290637449351,-28.975013459063263,-14.11882405635727,-2.862309593764728,-1.1329343677280637,-0.3797074719733189,1.017585933035427,3.8441751638226975,6.409791234958449,2.72733089316238,-2.115064007060333,-1.475013090314567,-3.369880193234046,-11.900681664263535,-17.192978895333546,-16.159131536247926,-16.32212978400376,-18.209001470939402,-15.373765941504626,-8.471279733835686,-2.991420357707248,2.7883473711191122,12.741300655655051,23.824317838359622,34.608905026368504,47.2478480228318,58.16614114300303,65.60817262817537,72.07981746419458,71.10903443715381,58.18449226119943,39.20737250959754,10.354301250231465,-30.22478638797456,-59.84675917343158,-63.96240567683601,-57.3137919017376,-54.22802081608393,-55.59779972546841,-54.66206228418312,-42.9619237009818,-27.45369125493519,-19.64140169085595,-12.106254291374057,-1.476706412055119,0.4478420479898624,-3.156592587573382,-1.1685725471010642,1.4599107552778072,0.4441386284776918,0.05341348720133965,-1.1538096586162911,-3.9082413367419075,-3.455170905950414,-1.4368273476677071,-2.8142879380057355,-5.534252034364297,-5.504262568418264,-4.0491637565862035,-4.161848121227221,-4.464595146506186,-3.8856505279061597,-5.680567014235185,-8.44587255148041,-6.987545791227497,-4.150083436642104,-4.1495752056537025,-4.590592091805739,-4.8703445807345656,-5.585773482842649,-4.8792256406332175,-3.7658521325466534,-2.5598690341028814,-0.37939142119057045,-0.6335279170822066,-1.8024278281305115,0.23712680442695877,-1.1636382644862788,-7.625767427383003,-7.976099984030852,-2.9748846056410887,-3.347578372921454,-6.463654175981404,-3.9367725459586715,1.0013868526168999,-0.5668680757614268,-7.214849793338084,-9.000340963451105,-7.25659392770476,-11.16247850512612,-16.45739768443832,-16.305414179137504,-14.978028045552918,-13.008288373179171,-8.94318554097853,-8.371471535824734,-10.228910520165545,-8.614190263624016,-2.9621236433490967,8.78786119877396,21.9499925774246,24.056309004494146,19.119031767072627,14.634870742952382,0.3964934409840932,-21.847471096419895,-33.49513587064754,-36.43415347850458,-44.75825334199838,-55.96528792377364,-63.96085580143041,-71.76730674631848,-78.10339630513825,-79.33035020871901,-86.03740309650082,-91.94468947891389,-16.13063349638631,221.60700826304236,500.0501723829593,519.5915155777706,180.73666287150226,-206.89845330577504,-303.9728117120315,-171.9658730745314,-79.05063601708898,-80.31647301183867,-71.5979803686142,-43.373985459744404,-35.57977806732655,-28.876581954902,-11.167066591155201,-3.971376995882089,-4.869612900820064,-0.23529980869861333,3.279932821524021,1.9049680475375794,2.621896379011819,2.7959876661019116,-2.6367487806357026,-6.1422008248725515,-4.915398733817396,-9.400428535464542,-18.264510825607857,-19.71296926141361,-17.845976259030422,-19.155324267031553,-15.32717575610291,-5.988139101523318,-0.1835861273422572,5.785562522334179,16.06912309165559,24.367232754262258,32.03946536490544,44.52035841416581,55.82843496143532,60.7754381551822,62.45119648023974,58.973153466579866,44.7938795140499,22.501436595373583,-2.59454967973298,-29.39877987603983,-52.12759509172284,-60.88312343395451,-56.43837526674603,-46.79647401417874,-36.16498088684024,-28.006511939115658,-20.71270044079647,-9.721099784121911,-5.118436661213636,-12.560283044724887,-14.205325349088003,-6.7047093026882365,-6.2703643565792735,-7.899430640994627,-1.3298234914417542,5.436566689473633,8.037439688751078,3.1247538549340845,-12.749116170859917,-21.69458370250816,-13.728026209596115,-7.781784195813531,-10.35058506845162,-11.612243355914854,-12.568024949380636,-12.651554455816289,-7.650074439921173,-3.7165955033433065,-4.533261105714857,-6.059319277733454,-6.3054030967812675,-4.96200008416359,-4.021701356926357,-4.310632607700576,-2.8760763677227494,-3.3913408274058074,-8.559076956179013,-9.370968382517292,-3.9595562220925036,-0.6657810720917929,-0.1917416170757864,-0.9978202574348103,-3.813105535932918,-4.9344782430654135,-4.125651597181413,-4.0677112178597525,-2.752961039237105,-3.3119152043973763,-9.248820822813745,-10.799302250909959,-3.3496286081732833,1.6221138701639823,-1.1267819582984444,-5.23725290395625,-8.031475538938846,-10.811703733948491,-12.538344853142343,-11.864117279692458,-10.67547781642617,-12.481132503867236,-15.606013231055448,-13.95239134826916,-8.522368670418915,-7.000151858676944,-10.462019690410123,-13.050601552055257,-11.878748409361508,-7.197613438306114,1.7228947892551698,13.245995729137121,21.23971730709428,23.263842191393326,24.224124827331266,23.25871570615689,9.743850623455234,-15.940108620605798,-37.009515046450275,-45.915802922051085,-51.80642410688142,-58.84096799111229,-62.45407459476491,-65.23560478113451,-73.35347007708668,-82.80185230107315,-88.33478632648564,-88.41050235002362,-48.322694646668864,107.8036965855364,375.26524878655067,546.0252979607222,380.51007027993376,-29.913907609548744,-299.06267559584603,-253.3377221026899,-114.28542952338873,-80.07596562072945,-86.74883144108249,-57.09093290793571,-32.13388263074107,-28.99446553013077,-19.34562319402605,-7.823801686515424,-4.528909077039957,1.0812687964664693,6.3095313596143825,4.0059361989650295,2.2172989474056735,0.901468507681118,-7.277642748762675,-13.694108886019796,-11.43286697150931,-10.415957730471984,-13.923666514861264,-15.304354567756981,-14.687816490427215,-13.322032434055028,-10.303594898326608,-8.414708695167512,-6.71020607242667,-0.9803348975301232,7.959103143817389,19.1377961222116,31.403518645528834,40.16125563777683,46.10464806266679,53.81072385139297,61.673013006235905,64.87709791313989,58.749939214202364,38.9777231685886,9.01961764804022,-19.384265582130322,-37.73829286142784,-47.539472646198334,-53.416516879012704,-53.33428682627154,-44.929462594854954,-33.943340699244814,-23.367177959112276,-13.904959700816985,-15.1547356498302,-25.04082192938695,-23.985519849666645,-13.057406007319907,-8.826388368107793,-6.970029802700397,-1.7531374472118948,-2.290667530666365,-5.396853798843361,-2.414620303409473,0.44609373499126015,0.0878353552977238,1.2189734078831922,2.3645705347615884,1.5870416393888291,0.9477633400420782,2.1852260007257236,2.841316013114046,-5.994668050226288,-21.15983651120467,-22.934028180009204,-12.464812218645033,-10.221954803992432,-13.45782686397225,-9.646157633373058,-6.007094423746157,-6.99961261895503,-5.475597922106697,-3.5823436587247617,-4.507579765157626,-2.52630514988307,-0.57150214262216,-7.0611108911088944,-14.6022471640999,-12.138356215608308,-6.369157173690471,-6.480278927852783,-7.5176222696680846,-5.439624050981035,-4.397949852889223,-3.8607606905194487,-1.431413963884399,-1.1009370211423004,-3.662568231732717,-3.578731869702734,0.24691736771257133,2.5411328224644425,-1.287581405061852,-8.461951034016021,-10.885565138453048,-8.880742713406514,-10.47992963746456,-14.404808105845436,-14.708755041117024,-13.995195439140307,-13.730187882932691,-10.81987973222467,-8.286457269748725,-8.573381609406473,-6.715020650655401,0.3552543054688151,11.984170406681699,23.897899647165698,26.669678543432035,19.105359742052805,8.413984894251373,-7.192660280118911,-28.440323842067997,-43.59605830995103,-49.7299103892465,-56.32221344362306,-65.02865987041965,-71.63722501657729,-76.06679015798667,-79.89018706066557,-84.78030015085358,-92.66542798768603,-88.44151699378835,-1.257306445920051,243.83424042811924,527.1233088051164,533.475078565526,167.86826162144962,-224.44392736328504,-307.8985720973883,-175.24917430656126,-84.33442540389234,-76.37910325225947,-64.70476005816448,-38.26119891890097,-23.72058934963018,-14.196368356622457,-0.7995399731768345,7.524366391251714,2.146146470624986,-11.748444528999677,-18.722296430646903,-14.810793647427063,-10.698555948348673,-10.219257539108714,-10.997465421406014,-13.917110138361625,-15.419990863097198,-12.117641512933584,-10.589173633704956,-14.586134195636088,-17.544359621299183,-15.775643724567997,-12.303480103988157,-7.607987553208023,-0.6180529976421781,6.049103069391433,12.130391363822877,21.031689993394753,31.89965864092106,42.60663497714235,53.09583972590489,59.69363314707857,59.80149831723673,54.97418776542302,42.86130635673246,22.683036365309054,-0.6514757301457594,-26.03353778559258,-48.696658280059836,-56.94640495263518,-52.77578509268747,-47.72225527202839,-43.543631152529215,-38.95623518121149,-31.971938409946734,-19.690398468369153,-13.521478506013818,-20.931321585926874,-23.74530573089037,-15.296767816790272,-12.027482119893218,-11.828481322170017,-4.0915473041822,1.0812865486944148,-1.2898206461462216,-3.3505202632079545,-6.215504597244227,-8.247350892110967,-2.654349115369829,2.063599290465424,-2.760544389987082,-8.937191656399524,-10.302413805781715,-10.147827374057862,-8.689905507709533,-4.211058459323855,-1.5969276566205828,-6.372116382018287,-11.958742632775825,-8.512606711332964,-1.2404279017907207,0.858089829797434,-0.2570377867130862,-3.693547446816103,-10.58073831016435,-13.513274028655832,-8.097317477856478,-1.3048323288324681,0.34794328412824527,-1.7789728434701342,-2.0556511761592944,0.4907053173096827,1.8976658702259765,2.920307871611559,1.8161815900828238,-9.098330297658306,-21.990659242849723,-22.16935031362958,-17.22136881573622,-18.97525365595496,-21.86756060919417,-19.865653669079908,-11.60982750125298,3.0023392010933936,14.131885818424308,14.94899466780019,12.375521663065172,7.488205337017501,-3.7096684199307646,-14.889917032893397,-23.01061740272918,-33.15974866942065,-43.87011694595135,-52.712999037499735,-60.60915897582437,-66.83857001382924,-76.35504310237852,-89.04297654513883,-93.76834214491686,-83.75969288897284,-3.1293685648412577,243.63417598296218,547.1977287429278,556.2009929378413,164.0477812871428,-246.83241907496648,-327.38947918436185,-189.62654170525173,-95.06495829846156,-80.35279108163664,-66.3209289973087,-44.70194966443872,-33.63767041176124,-22.09107493808255,-6.967582349307998,0.5850539108318067,0.5055396326114927,-1.0187292184206251,-0.6318278019501804,3.071474941965082,5.632073783463371,2.4146876596738345,-2.8074030612391017,-5.701563322981743,-6.997962169567805,-7.649896990057293,-7.631267014647353,-7.39858573921193,-9.7766279266744,-16.569933347751906,-19.537290962700922,-10.908551360190618,0.8285354001193648,8.263828718191034,17.524620039250433,28.939454586182258,38.36806044149482,50.73142502795355,64.30032200486582,70.62730453305652,72.78359372017756,69.11560223649172,49.404499547755535,22.27909269062681,-2.7515085133195507,-36.19302174761431,-70.04158967745312,-78.31487254408135,-67.51715580183463,-59.99157165987906,-52.80738987741342,-39.68754661861982,-28.432348903151798,-20.282158172517864,-10.270974031619293,-1.3873856206317932,1.851196590663717,1.9979229944106276,3.876158143309681,7.2715543914566005,7.400089433269291,2.3000173052832675,-2.8942784137424358,-2.3006640020042184,1.3742161096171994,2.4326459382424916,2.9933239233172646,2.330404542454252,-7.413239427702752,-18.827728160289404,-17.586314708427896,-12.45787596875488,-13.947590255696925,-12.038510794492034,-5.644243231522498,-6.038789661840886,-9.473954270626429,-8.562666904759567,-6.688023009451285,-5.026369593618199,-3.20244184041003,-3.7449720814732643,-4.973507605211699,-4.772301466708953,-4.395749019142546,-4.643503946937196,-6.140309701755511,-6.362023888592471,-2.9691839606600556,-1.9394374492950757,-4.513605626517112,-2.6808623498994653,0.5067467090709208,-3.5569949794662907,-9.090969018444532,-7.400990320950143,-1.6645672423539537,0.17005922226183756,-2.8582383602164203,-3.736955203956448,-2.2750785882430993,-6.041751322399403,-10.237253108156084,-7.213223371543318,-5.351164408929289,-8.603249494189965,-9.066850654657387,-7.694534327261167,-6.841185143346658,0.10710888274055907,12.632790410388102,21.02845131314032,21.108698915313624,17.69040332567922,12.391520078690686,-4.675603587096003,-32.05346532240209,-47.264077146518304,-47.020599195700825,-50.48837457205498,-59.38688010721783,-70.86059127356114,-89.52840505600167,-100.70641323392692,-99.20093798684744,-98.41413820744674,-42.42303027493929,163.79237544715602,450.4957356734921,547.105820169876,284.8045448609925,-124.5884793083842,-302.09281365965546,-194.72882149935057,-80.05546053519228,-87.85460273705743,-95.98664512162512,-57.66981847674558,-42.32549654402549,-43.4950423176618,-23.381530121731203,-6.44504231108289,-5.301124930477563,-0.22242359678514667,3.868839957135581,-1.3741615345293603,-3.5653308601014295,-1.2028834857506752,-2.764663167449175,-5.498482033179357,-7.038954626212929,-10.457644509413539,-13.053196387483435,-12.143083333677996,-10.376759994540773,-8.748236581525319,-8.146420200940321,-9.922014520070274,-8.728977464555324,0.9114694104818728,13.78321575677927,22.208268522962115,28.24333170871452,37.98371134013285,49.887620896426135,59.499920000828745,67.15884476707771,67.90148001195601,51.5750774685022,22.614207163295234,-4.788747076196309,-26.4401661936014,-43.31553250875352,-55.27028254548008,-62.719945708375775,-60.94207021455843,-48.35484688163151,-34.75001339259393,-24.388942564282196,-14.232991974251108,-6.983138719223696,-3.067853285858156,1.7379049233744528,8.20755863016794,14.860492669545973,12.477934370342997,-4.39313503191045,-15.441479555253625,-8.452031815375914,-4.55615597732378,-10.934705291037309,-12.032898278746146,-10.218714917991983,-12.026000831437695,-9.302234759249176,-2.3650958720081903,0.5953484920204435,-1.8523632127834269,-6.271089564340022,-5.109048151751129,-0.49464648470960704,-6.003063205435961,-16.087418080649257,-15.799376801933676,-12.86949723836055,-14.630791522049293,-11.71784866233649,-4.9840665264991095,-3.928632808066716,-6.995633503490186,-8.364178875984308,-6.7132483985479325,-4.23291661165668,-3.709675026643346,-4.7006883811877955,-6.4761183459488105,-8.415364786266622,-7.238931590986855,-3.729768166180502,-1.941744378132503,-2.2639187445064177,-6.2055077352093395,-12.89333601660617,-13.429039085217862,-6.808630023616157,-3.3119401331342377,-5.552111951941871,-8.150764538709506,-9.441264053323,-9.426311082391344,-6.4257979125004,-1.7274259160767542,-1.0611428668012017,-5.395138567405699,-5.887560847738648,2.5786138687643465,13.533623928428636,20.036660381369565,19.188261813140084,10.340100421077542,-2.3692306332623243,-14.150138626972073,-23.170170709806207,-30.16137354927408,-40.49766138272792,-55.051853372657504,-64.84581674607838,-67.24525834303506,-70.54436250510895,-79.85168087557503,-90.19039844945507,-94.2611815035684,-82.1949483516526,6.438988843880239,255.1367237631876,546.0769042243292,539.4820391817099,144.97017363954862,-250.9004719145678,-312.9076234767922,-170.6032084463621,-85.2889785899929,-82.57480691789176,-75.7801981603072,-51.28900771849955,-31.27390273385837,-20.281609372594183,-18.939429450339535,-22.10546438555761,-17.992730847354316,-8.781352836308498,-4.945023803259584,-4.153013821447438,-1.5845252452751701,-3.1006066899982905,-9.680143988282765,-12.264615081247698,-9.954374244289282,-9.850951777417947,-11.659647785052336,-12.451678308041455,-14.774778955232764,-16.243671817693986,-10.66176015573215,-3.4640109547534577,-1.7219222720084504,1.7835574561261494,12.354361381188099,23.29863158084359,32.65126159837742,43.37838262073612,52.337634954880755,57.54772841553364,60.255157985695504,57.04494563740816,43.92530335604617,20.08403036432366,-11.38611422154462,-38.97034442547276,-53.748709674920214,-60.30304384033904,-62.16063833550376,-56.66494221707031,-47.781506063289555,-40.33275374835827,-31.369835851670018,-20.018913120088325,-10.51171698885286,-5.293457606390245,-3.710070280401105,-3.112647980219581,-1.3678105473403086,1.5938606112293439,4.829035609582462,5.755059666201905,4.229429976369881,2.948021073247526,-1.2435220241779064,-8.57329887571656,-8.829077033974336,-3.48034748180363,-4.9808057300239525,-9.699678338851657,-8.871066465630564,-6.69328289323934,-5.719800076503027,-3.6495310828188376,-1.9598565631245322,-1.3218236165628579,-0.40141833592930354,2.8996864923758965,6.564810113243637,0.16363547074765705,-12.65803693160363,-12.515443610623864,-2.882779303763451,0.1113966074980155,-0.06956506446136324,-3.7564429534937904,-16.809753503058467,-23.48623962274964,-16.577183655679537,-12.865321488975113,-13.32800097760526,-9.266424866199433,-8.345283914073072,-11.562613943279572,-7.547008091780015,1.4363136262019527,5.539792610215291,6.490590004726063,10.007494918224806,14.183577250278873,15.048131148485716,11.410685396179264,0.3854512581290681,-16.27681673885653,-27.943025405293405,-34.04409511587136,-44.221429298400366,-54.676709825600966,-58.074684650105326,-62.601637757975325,-73.80736846667813,-84.11861588369871,-90.94672184775678,-84.18088407837594,2.896932033359107,244.94086893275687,527.6354544790061,537.8922705959944,169.49922157415259,-234.04279210623275,-319.3196262118495,-177.90755469103527,-86.54408154166404,-84.1880218655819,-70.18593381078443,-42.612449184360116,-34.88986941308314,-26.122305153169854,-9.691768154547468,-6.064705252684096,-7.620121304596585,-1.859272590034454,-0.661045142996942,-6.06331406899141,-5.589138868468305,-2.1441143032104044,-4.291038814902517,-8.322882231443504,-10.475910711528668,-11.519390745725937,-10.44595828575632,-9.344167825241817,-10.052487574281159,-7.215853193607635,-2.3980103810064604,-5.883022071029339,-11.565426391005818,-2.3599584638335385,16.725779760019286,28.326110817968413,35.4362232625901,49.24855570246576,65.12042726536846,76.01098491697786,80.95228209362043,70.38040391438884,37.60975436751845,-0.5358243687056463,-26.11938456786531,-43.80855524106261,-61.29737911643087,-73.22324882347006,-73.89055469378593,-64.19891434005527,-48.427566333005245,-34.48903402886143,-27.770483940249505,-23.490513643130637,-15.216488366643794,-5.906805969298759,-0.7536519696524344,1.8222796456105037,3.1129448773824873,1.252428962851571,-0.6163814574209816,0.9946639077619075,2.4848771863609773,1.8755733975266242,0.9210817137638294,-1.8695417085284465,-5.796729173692695,-5.979425858366975,-2.8978758365176596,-1.3997920091849494,-3.5546838988026543,-7.60425431367457,-8.75780816143437,-4.972236188122762,-1.00702674139022,-0.45285980235958334,-1.6470505818364725,-3.5201572053127244,-6.5599466669272335,-9.38115283470237,-9.435795744536403,-7.651907910144214,-8.408011501776983,-11.145885935001743,-10.852011633877929,-7.684554767108892,-4.020666763507361,-1.1806969140430343,-3.3409809585861687,-8.660044638705138,-8.720271360444235,-4.617769731012341,-1.6472574217649871,0.20378526949860998,-1.0748157220264645,-3.6905016111717366,-2.965404245422846,-5.310317395381926,-9.294566352843363,-0.8078811180779182,11.112272661874393,9.38753660487559,5.35773709307627,6.872804670293771,-0.0936779692536227,-15.124766473253748,-25.806236366628056,-33.895585199350904,-43.21678794940826,-49.29833755822942,-52.535410400811486,-62.12487822443103,-79.11504764810871,-87.70751505586824,-84.330574490854,-68.59879709257294,31.656467428186545,285.4165468522881,535.8250789148055,480.5442240031,96.32581143711835,-258.037970642971,-301.62543906333934,-160.5514296267993,-86.08050152853153,-93.49484291418734,-76.41394328611173,-40.27476454829473,-30.39214509413039,-26.64763241960486,-14.377091388647731,-9.217605344436926,-6.965320231233633,0.5903347650584578,4.859759966969927,2.1246475610560758,-3.1983973917822546,-6.319497654759118,-4.434603434863822,-2.4770379434914673,-4.67633282082209,-7.620393649943285,-12.098284706967345,-20.56533734025087,-24.817789804202352,-18.375675600204065,-10.186084672568555,-9.27905418423712,-8.413820777925988,2.5427423769486692,18.663062989311808,30.94781791913187,41.017701653758444,51.12130660744459,58.931193839018675,66.20007938968182,71.54013333850111,64.73315613967397,42.68301506409708,13.979689796041056,-13.403490739036183,-36.35372175078159,-55.24204423346799,-68.75007492224829,-70.26826071992357,-60.15309301698001,-48.97420530895788,-39.699142179974665,-27.28649018157212,-13.954024613505041,-5.948582430881405,-3.318138264256799,-1.4881141303295884,2.4808126731595497,5.446845005506734,2.461995532884366,-3.636227173811129,-6.137602508690788,-5.500222410741566,-5.002291813571098,-3.0592876478835507,-0.543977737817146,-1.9356521134579943,-4.359500908902017,-3.872347506502461,-3.173801161840707,-0.11789019378807097,4.493439401072266,-2.3899453143918734,-16.413034237141133,-17.685818538449453,-10.204642151518499,-5.633317143783303,-1.2885721805951817,-4.192355841309649,-17.09998813566757,-20.06645930368527,-10.09707145274626,-3.217530370349383,-2.018701647442235,-8.5799367880606,-22.34637172205397,-24.90629485441424,-14.989035424361177,-10.964559270590382,-9.356038816638833,-3.16678777396638,-5.4034016758016,-14.269959276742673,-12.626816728000252,-5.464880943800235,-5.944288269076136,-8.037092041385733,-5.940298304379832,-6.4271535708798595,-9.345854506264061,-8.582194759076085,-7.495669110920348,-9.707418736454311,-11.30506913795076,-10.645050850150035,-7.792807677779567,-0.9739662000203069,8.297626963014855,16.456258545453853,20.06935086769488,18.515037109755355,16.47406659315169,9.320210193639397,-12.715597188728031,-35.14723744439232,-40.38662787186042,-42.671258388025215,-54.12355290507834,-62.64320568482427,-65.82900991665412,-72.34877416220861,-78.73519206521703,-81.82794020176489,-86.73935365259537,-60.01949150088699,98.20937453270871,402.6337600887548,596.3946398485366,390.82723931700195,-64.87954428784454,-324.63697306039376,-261.63594384779924,-131.4780282021833,-94.19962014058989,-82.66371104540734,-51.51550640149008,-35.19711657123084,-32.40213407918628,-17.444851398847618,-1.0013601832118333,3.4673753358466968,7.069299718596753,8.273360489269779,-5.298993539788533,-19.163971529473933,-16.825944899682508,-12.046173662154239,-14.639570675634,-15.351521263236378,-14.375001715374621,-15.865214954391856,-15.456457811192127,-14.482117390531347,-14.5687973206682,-11.100409562112121,-7.777004901378727,-8.030938540477726,-3.4216445553331076,8.605983613666783,20.339290313435086,28.049444721952803,34.16086940563772,43.037649993618224,54.06274931569876,59.78549059304852,57.4124983029556,48.453631770719966,30.502396710540584,4.956876862131398,-20.924101438423122,-42.34699326791025,-55.851383655686725,-60.49175362669828,-59.047043538199986,-51.34046008584261,-39.60235803514502,-30.33558319859768,-21.473947316114607,-11.784512047630187,-10.46436583751656,-14.116405610897727,-8.849134972986972,-0.11880239021994043,0.027784525873560284,-2.5408658963198096,-0.01725999626818364,3.689364866256126,2.995200810193655,-2.419902991860397,-7.429302871742472,-8.23605691773837,-7.637554014531059,-6.312580739461614,-3.0673873490603647,-3.0915011372366035,-7.522223081942689,-9.782652289328473,-9.122631213586768,-6.73180498823508,-1.6607529989179817,-0.967533323137971,-7.342031921947315,-9.059011289099814,-4.300993594248109,-2.805353542147113,-2.489986738225488,-0.528590983566918,-3.0850796265403826,-5.364102653329792,0.18775636533565532,5.514340546363435,5.258691286109558,1.645628109403912,-9.635599984434956,-23.947050573030403,-25.0606445839953,-14.590406161873199,-6.624710130867717,-1.6196037783502018,5.012737512379726,10.25014317607134,12.863510968432351,16.569293464968943,19.35368456170646,11.670607024011733,-7.168965055438818,-23.60986647767086,-31.24118153656635,-37.095224256867596,-45.27046612266046,-55.87467607870026,-67.5079221122097,-75.28915108287907,-80.14246610428376,-85.87584424033449,-89.540337228209,-64.54243734466053,74.5110088148217,367.38802332829766,595.1455669332923,443.7188524326733,-4.010806351744648,-303.78545366262443,-263.8137152175093,-120.12558360034554,-77.75688087815502,-83.39752218855267,-60.15030067492671,-35.81806029097857,-28.56883201943711,-15.362584962572495,-0.27996547412012873,-0.285916471765443,-3.974307609502901,-0.4791321507002575,0.8087017688326306,-2.1128981779865637,-1.0145766436343067,0.8218760320462302,-5.120734970016585,-14.838716104867743,-18.878107545117892,-17.588868876656367,-16.24007884977597,-14.636025967752566,-13.33169156096452,-15.717723724216569,-16.566342114044946,-8.184030274393132,4.567780764755971,14.064159049724847,22.288505170249444,32.46050216114567,42.93230541336281,52.774456278210224,63.86493670738048,73.80919064132246,71.79333359183923,51.966534666574795,23.551117700383973,-4.259771209084644,-29.81736480434469,-48.65420229687366,-58.65187698657006,-63.953899111349074,-62.69912891342618,-52.71274217364186,-40.33150163042433,-28.72735154835972,-18.142712473549842,-12.059172920117597,-8.400515620491225,-2.342187049663366,5.2788259507163335,10.325504088901642,4.778966379937028,-10.487264830943477,-16.27787825656755,-7.405368453489274,-2.086775328189427,-3.7612391756159624,-3.3605117609803514,-4.876789474179148,-8.633150529377279,-5.696280691774415,0.14801812269909576,0.657558235558799,-1.2391525522577336,-1.8327171899687222,-1.0997551944561472,1.0154065265304375,-0.25029893944773995,-8.342922813189425,-14.277020216659231,-11.316212390264626,-9.334559981535751,-14.520758191055602,-16.24719895677814,-10.605447184062704,-8.436727727324172,-11.625941518448032,-11.111901291940672,-6.506600826821309,-3.7223427644503673,-3.1738743833404293,-4.177622963710871,-7.081285638404996,-8.01715229004175,-4.967211519939633,-2.6533344303117783,-3.2254386266651505,-4.296001220261429,-5.4014122891750365,-5.641236989881698,-4.227045014364759,-4.413751193020023,-6.1402467031642605,-5.757182708040975,-5.266911315728709,-6.465090543889225,-6.258156296901003,-5.360672383262045,-6.050315365823909,-7.302634228559501,-8.821217297459096,-6.214715221980957,6.117231451571525,18.344788347195845,17.800803096663234,12.055064388104597,10.958698116079116,7.622211871362621,-3.3558643670912875,-16.178059272452735,-27.323626051151376,-38.268015817482166,-49.533011643582256,-58.96888692589519,-64.12038969654347,-68.92279086667648,-77.28893003079622,-83.91955240760245,-87.79873246461425,-72.06947548365424,42.027382423966685,302.3955117061023,546.0871805271835,490.35293590072365,113.43041651634105,-238.53417718316348,-284.9287145857258,-150.45211100339776,-83.17381054953727,-91.99107053403046,-76.8087214665391,-45.95237862781182,-35.39956774686484,-29.66397030730362,-20.872944937562636,-15.728623392038433,-12.06270069415217,-10.711347125901789,-10.473199776693363,-7.413609142612774,-5.745788469552174,-6.28153553982143,-6.098836113044877,-8.18318994771911,-11.790744223419713,-12.89607076852953,-13.135363947969996,-13.92531734846711,-14.256431128632688,-13.4653116834262,-10.878198272132934,-7.485957448938712,-1.97350946824701,8.303367139971884,18.462288349103954,25.54872676629789,34.87493844594601,45.320321732523176,53.21485024575732,62.065285072115294,67.85008192848963,60.38356354040913,41.05557635195855,16.080726785564657,-11.201146349309813,-34.55950091669842,-49.948971881499695,-58.88354964101603,-61.651103885093676,-57.640036199173586,-47.971574846344446,-35.32320308762935,-23.98527194426645,-16.514019935983683,-12.57966904327661,-10.060554841405411,-5.314405144968763,0.7029662547219981,3.006967536609075,2.330817807706925,1.0984737960348774,-1.322921672082515,-1.6670270719674072,1.410377994677436,1.6847352479459783,-1.5698415494175464,-2.856526944149662,-1.956288727167676,-0.21495727948582832,3.464654118714731,6.5320170000245525,3.024002644596969,-8.056191105141869,-16.880190070161568,-13.399843928146389,-4.7495386248404685,-2.9851682524356686,-3.1785504106211278,-0.3827588600674474,-5.481905158742194,-18.98327381543498,-23.65873756645027,-17.259619931786816,-14.114353939736045,-15.479620155022271,-12.913490204292835,-8.005523711173538,-5.422649274126101,-4.499837450733928,-5.559509680100039,-8.165764987313208,-7.729253894246881,-3.34315813200773,-0.33794650530475856,-2.5375239887357335,-7.202493207591594,-8.9433563531721,-7.268582049801102,-4.619903398467283,-1.3594606370938678,-0.8937889108998949,-6.025915164762141,-8.956871973554136,-4.803093816522868,-1.3842548998591049,-1.6055259272182685,-1.2264487292905066,-2.1697445565482845,-5.263251367876354,-4.937014439920704,-0.5234410400275271,1.5375141865421043,-4.258992932606608,-13.923791738579292,-15.707424089621751,-8.133569025031026,-0.4308405480465183,6.528899721309499,13.975351645086185,15.967037813725105,15.154226421445589,17.918506855172524,16.20821341126631,2.859859436693526,-15.450531864211609,-32.6125625977821,-47.170907527603234,-56.78536294629785,-61.276049058780856,-65.05236161505587,-74.61726730127387,-88.3033311644865,-95.3130802931733,-96.04400155781624,-82.90184205631495,11.198016707428195,247.6598637336035,510.9805323152433,526.4948540201829,195.73131487391916,-186.40044918487064,-280.2975815750711,-152.3732752897217,-79.15825478409428,-97.71309218350021,-90.27650598098538,-61.46994742905504,-55.49264183156514,-46.62132890920822,-28.20237797749877,-19.57998718307969,-11.046653463006233,0.9283519509996072,3.0074992045042315,-1.0412149240250592,-2.504644228710756,-3.4948026648875086,-4.864078021603765,-4.222566693516352,-4.116644269144928,-9.721004316456808,-16.69415030150906,-15.933958638993175,-11.689271171614465,-10.903366355576589,-8.9005901181286,-5.574059388060899,-4.8176057787480016,0.892719240030674,15.354782367127955,29.60566911886164,39.155637547615164,46.05846224852637,51.86554504956777,59.85822599387226,69.1504040113457,68.01225746525618,47.17733536431096,15.406152371235637,-11.77501260372263,-32.22824930859203,-48.53267607516028,-55.70144196235027,-55.806283698751656,-57.15421363120116,-54.507681580976744,-41.25982726864704,-26.00706003626707,-16.69960954448402,-12.02951222355792,-9.414159877631366,-5.464336505203036,0.7219725949495484,4.586759891957552,4.366447437978314,2.4557862170074287,0.19055776120028511,-1.1527641645761992,-0.656920326896854,0.8157539917189212,1.5172500977132035,-1.1559459020875362,-5.824755478051239,-6.120641387736498,-2.069357105822121,0.48112111507571953,1.9357517364705963,3.1885156509836152,-0.1647124991969715,-5.313706506253027,-5.62208335998862,-6.67659638348729,-13.698516271417436,-17.071341774310753,-12.3140209074615,-8.490649675612655,-5.686343122689642,0.8648765753200376,-0.18631476466045882,-14.446140680100818,-23.057584824326185,-16.88987871349196,-10.50038902247934,-10.00280252774332,-9.44690906221026,-9.73108302428492,-11.16180555300485,-9.22434827606512,-5.8953445764866075,-4.593391613906229,-3.3926227593354277,-3.030972460085085,-5.878105095185052,-7.389269981318256,-2.903228831365322,2.221109124027178,1.5730720898870238,-0.7529160788784086,0.5399640360206721,2.1632831692802625,0.9117878574129357,-1.8485226199584979,-6.055410790212765,-10.491543048098132,-10.532636751804521,-6.56145986446853,-5.702977007643767,-10.408707139872721,-14.056976245360602,-12.970601062229466,-10.451418649720175,-4.176096998223439,8.441264887946689,15.576252510333086,10.59475833992289,5.786696001927698,3.674906933435391,-7.165715257048218,-23.130363550319935,-33.84199943960332,-43.05600295749318,-54.148964384658385,-62.04239729618247,-67.63917237964236,-76.16976872839433,-85.34614214438444,-91.71992673234104,-92.95895480166183,-49.900223935741245,121.4606651518433,410.1817011122265,577.613592368832,375.6992347735695,-59.02139092106136,-307.9591788296851,-234.3693313663668,-102.72027265637786,-91.08207308246949,-99.6632503387803,-63.046673460752594,-42.72443138096745,-40.081744846521886,-18.134379420179638,-1.5184288215773343,-3.2811625996142695,1.4452535749257045,10.085576394083128,11.519318899142489,9.030014956724463,-3.56420939830074,-19.23068754809979,-18.169198537523695,-12.643833672607961,-18.49863116095178,-21.551274581161657,-18.05248711554156,-18.335974087749346,-16.47860954767132,-10.3713886815797,-7.942609469937383,-3.79327830604773,5.760187247700571,13.356671788219405,21.33552365980095,32.46863135266686,38.21171477513088,39.94595825952214,48.221730154457624,59.56302047191406,62.438052020777576,53.676604789038294,34.49212993270506,6.307416992940363,-23.691187956387058,-45.360748675027494,-55.86502125276886,-59.19140329468635,-58.416911311443066,-54.573006969700266,-47.40374910780437,-36.28832648093058,-24.84124213851962,-17.575476217868648,-12.90684630397675,-8.2392012047703,-3.8617987002767578,0.09711493552800476,1.865485793413587,0.8821573223698032,0.9998510581847331,1.0115380856790281,-2.698745742301483,-4.476507526659642,-1.4451565983051697,-0.9038738073239756,-2.9397960347253154,-2.145461529908726,-2.878970176641255,-7.446161882890481,-7.1702318042869795,-2.3634640772546565,-5.98823426701011,-17.771413771637757,-21.675516283655725,-14.153571689213415,-7.989661816892443,-8.187141447373804,-9.057619012429,-8.64323366012326,-7.547059309224114,-4.294603563110863,-0.22023581342492982,0.738402619739805,-2.515657442755545,-7.629199128347114,-10.620989066805231,-7.772719649556247,-0.8577739501517456,1.4630033989208897,-3.4612079832266147,-6.667912158622322,-5.7619991816372025,-6.758123188190394,-6.062686043215933,-3.6686313721928947,-13.199658137747623,-28.983145188895115,-28.595325901553608,-17.541410584523188,-16.554746051280205,-20.120414346496162,-12.662556236015819,1.3409154987223104,9.68446479688551,11.610607515898497,10.339657010919538,2.253547135963043,-13.298088819478497,-27.872330207600925,-36.987749100835686,-43.152702143566046,-50.06386978394864,-61.66838237007799,-73.66837111825086,-79.60444422974798,-84.56257656301493,-89.33643834298846,-88.18503770131304,-50.78153617054905,123.77818343195342,444.6453999985303,612.5727869154368,344.1328588827621,-127.44466310460778,-341.0215355213187,-249.30086357628704,-126.33803943955324,-85.36325951356045,-61.690618535426054,-34.59326323376699,-24.20635183273548,-21.212354395559487,-13.187802118256764,-2.8733083854242043,6.371910174978674,12.308253411074276,12.854389383370194,5.944655954299961,-8.25383865631914,-18.104281790540384,-13.810735620724456,-8.307378150988967,-13.708794427756033,-18.763958626734624,-16.415114998833573,-14.193281911438053,-11.561500260433828,-7.717206107547776,-10.211042645888549,-13.597344349160679,-6.191199210875309,7.4693972735445495,19.334652955009304,28.771492154450215,35.400237130864596,42.02353309417735,52.16283553840368,62.993137345885096,71.38203011738067,72.060000084454,56.84957880159821,29.61109368015267,1.406908899955121,