ECG,13.780713613724025,21.322953577850438,-29.506737836818544,-93.99899628997693,-125.6490284759139,-138.92091661143974,-137.85697974208261,-115.22194458489811,-96.1994854018075,-92.86912344156903,-77.01885078428688,-43.78735907874613,-23.909579737034417,-18.64192032192731,-6.3319416678569596,3.2661893078351127,-0.10921164747441736,5.623124598471218,22.28887162662224,23.4976033686289,11.346497639105637,5.9024329933553386,7.588235174248537,11.428077670177347,12.369467035438372,2.8522772194321586,-6.926096465780915,-5.048946642821955,-2.549679999101725,-6.90177483485593,-10.29042929973075,-11.751326910373505,-17.059879949140814,-21.857057634406807,-12.764346800394481,-0.8865254229604353,-13.40854814229498,-30.484921336319616,-31.056875060792947,-41.83590587771032,-44.41505274737086,-21.934458549130724,-28.246531681898468,-37.76317643523108,6.4345847707807735,154.16975010609954,541.0817928673548,800.6685475588253,147.1444455817193,-912.2494960422887,-925.0261249553729,-124.11483370835049,140.78526920964413,-46.830462300860106,20.71127695955522,111.80017007243208,20.957120736924274,19.339653950926078,66.78229248159766,23.469274058165517,-1.6477071633808862,8.237330815059899,-8.257192656359145,-24.282359728766515,-34.040438912476944,-38.323197007937694,-25.129593167037992,-20.966533065200878,-18.068099458504967,11.938810077758848,46.88832354379842,79.17740867809158,118.69328616939572,143.77949582002543,156.2951847184892,176.0774564877342,179.5263202291191,141.74011603210823,69.63333132179602,-20.22371374536044,-92.80596334603514,-121.0658448468199,-125.5263477884319,-125.81695677334467,-113.44139542560396,-95.03760707967797,-81.91505535406566,-61.14520541587574,-32.36700443250234,-18.974803507535846,-19.949697914423176,-9.092559049910474,13.148320954066602,21.179161752457144,15.237693457672098,15.618416292007538,17.26752063403562,6.660815199536073,-2.5617055752818283,2.7752381368442887,9.710807001844964,6.448846917592842,-0.9393952001281569,-6.0693852228175675,-9.236499647699782,-9.449630997849752,-8.438810865289351,-11.2074769179292,-13.957735949531827,-12.324668190402187,-9.972032298414053,-7.036511454078023,-6.267698220696569,-5.443870882714183,9.434057957763933,14.002281668025955,-18.845164206883403,-43.64876437914059,-41.31192251387347,-45.57766212852346,-39.75037058068945,-32.55770890941435,-52.63030084326988,-41.37842256399159,47.11787039482215,316.5011151445776,751.1359391537057,652.5741296147919,-364.11921760412935,-1076.9610168097734,-553.6953548027418,112.96257356050937,47.658266042581545,-61.56280821169982,95.49501162677764,81.66980322647657,-6.416298125061935,49.12900635347584,54.20143491566908,-1.2661737424640345,16.150834691850186,24.560618886176076,-10.446348549051896,-17.449220526121145,-15.651740340444883,-25.36024437843018,-20.232894580931905,-9.650523167222866,-3.8800969557336416,9.83653952574619,33.39626006536568,65.1727079053461,99.63584234556839,122.84897858339048,136.06041083956882,146.60818283491434,140.41086198865423,99.67989021455521,32.094854057294306,-34.853506428417774,-78.41657824945524,-97.50511358734047,-104.28375150303631,-102.25908595686698,-89.08154342341587,-71.91515898049798,-59.39233067685214,-50.61419429758505,-39.97166342983351,-23.3551383546873,-5.894328371012694,1.6763622079449796,2.8436793482575204,7.643856945503568,10.910484638804968,9.224780332138398,11.752540512781222,15.238668926029778,9.095865695495863,-1.0445567946389431,-8.344712666588475,-14.691333533208061,-16.764843747947598,-14.462825500662442,-15.800444421566285,-17.572191776457974,-11.861838042645985,-5.328595321570102,-5.632475084758926,-7.547819323211716,-5.050786628705795,-0.06263648506204689,3.0179678310950653,3.5439978046112284,4.316359542469968,5.322157350176722,3.368858774721451,0.017056779088134633,-0.29388359322320845,0.6014551829824484,-1.7411568295045043,-8.26409820851491,-16.36898747464868,-17.417281775522852,-11.763208645645097,-13.940595832175182,-13.220526641570826,4.747603769086107,2.3837120959309885,-30.568988701395476,-42.5765556762736,-36.2412220051753,-39.29013922362631,-37.6251349891177,-47.94509158259946,-65.80905900715143,-42.90456024199277,65.0766141431395,397.0387875617245,769.0202856582499,416.8508935875339,-594.9629090867844,-917.0199920517184,-249.64571477027204,156.8864129915973,-17.70563826055051,-31.671782408759444,95.3893163850892,25.822369229624535,-12.039955793280988,55.43360376296414,31.514410321073793,-5.931625892948414,22.099837029211578,16.367467507481976,-6.0153726174787785,1.7327745121319396,-13.637374505389353,-42.3239937195213,-35.24391033064137,-20.342352576408736,-17.81476842177644,1.073206979185798,33.295761857605626,52.727812726474674,66.59786925900377,88.73346473516794,108.72543521991182,118.27692466323947,117.35778876110544,93.92252806524849,42.13501042763511,-14.377529227532136,-51.884798317481504,-75.04306828776161,-92.09520833321862,-96.31691909610097,-86.94483586759,-70.99191895829532,-50.028609919607774,-32.54001026977459,-27.329931997327527,-21.302302167419107,-5.833712952256317,4.221734614681981,5.490886991435765,8.623059229969062,8.980426580229581,3.5145157249078522,4.747591003483114,11.541230759993368,9.632488087391767,0.47609180338723434,-5.921893439125336,-8.220028929079795,-8.044435971542832,-8.292063219809238,-12.65587766870419,-16.064733020525928,-12.794655737948784,-9.296564339304282,-9.905380032857227,-7.917548790790034,-3.252330372802964,-4.15202988028129,-8.418893960382674,-7.395902690327105,-2.993215950047915,-0.8695872436992804,0.8971358972048851,2.8554536500008663,1.0611627415222227,-2.5889738080173483,-4.376932774813337,-6.042869499938009,-7.476254583035491,-7.101139329975815,-6.703627107553528,-5.782290617494056,-3.354611868337088,-0.7647977997030075,-2.6515745649002387,-18.70775453499662,-32.095917547960866,-11.32041768498108,7.504667578372992,-20.19064032216835,-45.30070944124546,-41.70692830243659,-46.763164728422915,-45.12390523308901,-38.200877269754585,-58.33805763092609,-64.14477125457785,-1.3939633265751468,262.0519036569666,713.1906821178839,656.3407799068345,-283.3505267377265,-942.6791945286054,-459.91382986508984,126.46593509379443,30.67781300747263,-77.27850736357357,71.89645262481852,58.98165230960188,-16.083684352718887,42.088594797013464,46.869779169769096,-2.7110846995645947,12.121527682873683,13.55469709903383,-14.747060919650341,-11.752024930853292,-12.084417278459473,-25.720740148493793,-21.12213870017004,-16.045844668733565,-12.934254594845655,7.173451002837194,28.706413882862126,44.198887660005845,66.05894114432505,88.62053107163959,106.55745377102843,123.02299880430519,127.22846902371482,106.71003200313538,60.51618140922869,-1.339785407154928,-52.70754924244744,-77.17802640804827,-89.17014518821618,-97.74722599756626,-92.05872066035265,-73.73390718298265,-55.57970608023728,-39.93774652886025,-26.523267715509,-20.121545542149143,-20.246828520572958,-17.3917339379462,-7.123526499725791,0.11163850937777298,-2.127769848124167,-3.5143672387651606,0.4991601364500724,1.7279309470672217,-0.08709462838253046,0.5026087733395652,1.4078802392437986,0.14041655281432242,-0.41267228103876263,0.4877909024781637,-0.07183527872268414,0.24992925984349057,4.2418095650282925,0.8014863415002296,-15.360026990720304,-23.958225251424917,-16.099954004642576,-10.43178707844765,-11.760434439272721,-10.116219052232903,-8.011132640032647,-7.087813905607922,-4.016091707734743,-3.409322145128286,-5.380231265452476,-4.736304681517396,-3.7625906378577483,-3.6537430323054583,-2.496416319167267,-1.7790994868334629,-0.3198432084878755,2.1288956328887974,0.6538919099141189,-2.003078884906069,-0.5935981894888283,-1.609736589717178,-4.986322025193751,-1.6245538753286537,-2.3736858403266843,-9.85985358009777,0.2851572498531789,7.8140430900571305,-23.553012208239785,-53.921223469625076,-54.1890212512729,-50.507121594040434,-38.62790404334365,-34.4588387879823,-59.19883218759111,-58.84182500170118,12.428754456124125,276.4321766285658,721.8188369249951,658.9891669418964,-283.1139651812544,-943.8014510395445,-464.87202359791195,120.82373473757255,30.566532763288215,-75.27744595534962,68.74237773989373,49.32073717435355,-32.1909383215543,23.68448747668456,35.33503437757588,-7.9406826096679755,6.3670950353181155,8.81982864355761,-17.157830702294326,-14.175834220206138,-11.225269893899593,-22.16739588078742,-20.791525048480715,-15.856842381738577,-11.14638521433189,5.748046301512428,31.338791472414155,57.064649086187345,74.39906095352342,82.96314840710589,97.33591296316276,118.49680825945273,127.877763673311,111.30348754736559,65.36452186184283,3.241248814857621,-47.64185095065424,-75.10505031203543,-89.41786988391748,-98.2512739732557,-97.59118308490027,-83.85133447137397,-62.91483795762066,-44.60548123079799,-31.671130112241546,-22.04869011076819,-14.419429908406617,-6.063047071313935,3.0978319833498063,8.487685187152357,8.44192088243505,4.672802652185778,1.34647977179009,3.560432445165837,6.306738812311066,1.27495668058625,-5.547603022605472,-7.039938728553956,-7.81513759095872,-8.33304321811425,-3.9674370427231764,0.39748529046052283,-1.775639475896261,-6.484524455182795,-7.294770373167129,-6.025490286219879,-7.399106399097175,-8.23732408075529,-4.762615773048427,-3.529771724882636,-6.833975911700019,-5.281630429458156,0.6577437896711693,1.8929340024575243,1.9250189899854728,3.81956747508017,-0.7903767421136774,-8.646119994772297,-8.068644540691498,-2.9348329280925736,-2.5897475716010874,-8.128842978977783,-13.114694414390469,-9.070619255351723,-5.705675306387156,-10.40189981773943,-2.5183714880054193,4.811686325765679,-23.34281648546638,-52.686802180361816,-52.85052669325337,-49.11790407306246,-38.77543828182242,-35.64370775733778,-58.30912265772876,-48.92112251485041,22.558126332135572,253.7109495450606,686.820305036538,694.2165941914747,-202.99469803392566,-952.2962819408139,-556.2971919803906,79.59800754733985,49.70441139120788,-75.29218803834162,56.051686835537495,58.84168246945984,-17.44191376058253,31.930764861265104,42.34712930922572,-7.625825945795946,2.42670768597263,9.52361049476964,-13.56083928735199,-10.283146129241022,-9.392554140439568,-25.575794718654905,-23.887760653075972,-15.880347173285095,-15.058226844362741,-1.5916646095722413,25.21946612121851,51.50686831116028,77.84060169983303,106.13172121065449,129.96727978254867,145.0125371988206,148.5789011634722,129.87884698961483,80.73365049790294,14.442723437895369,-44.17970911844743,-81.64980852715297,-99.3927660846292,-104.33179743720947,-99.98798699796143,-87.09699771210347,-70.50216343467528,-53.04580474646778,-32.706797036122424,-17.454605203820485,-15.219278915883223,-12.393284830600344,-0.6136120285964743,3.84794748830962,-2.532959662295445,-2.9264698958646225,4.222916833184794,8.9349350676331,9.175683335711845,3.503953975216552,-6.163473799808928,-9.639479743277755,-5.1020032079221895,-1.1802173054708955,-1.9317347284613842,-4.615544821372298,-4.550704880289015,-0.5610793950901449,2.469425663541042,2.188106292157584,1.3636052854133105,-0.29307966370001104,-4.914317647179509,-10.459410969498144,-11.820616647713202,-7.628167905353205,-5.263862876429959,-9.212426697988116,-13.445672317733552,-16.19748859631081,-16.543594292103073,-9.891463680645307,-6.642716556901989,-6.001493749040861,10.044699670230917,13.05518184035986,-21.38057439430646,-46.0339409950067,-46.60827556051598,-45.98928603067212,-29.852395131378668,-27.29461099939005,-52.99431713754005,-36.55740497690735,56.59589814183283,340.1005691776799,765.2793989563418,604.7872914843201,-406.13645734527574,-1013.1888831313247,-484.78694060803747,75.94035974011999,8.570617112581132,-35.97533975915631,96.60077086165413,51.53564309392361,-6.253519009901513,55.08391436611946,44.64939354675734,-1.467496993303354,12.950192806152764,7.127727961131399,-17.926858489187797,-13.120539478632391,-13.323448004524298,-26.292046854778334,-31.01329938975217,-31.66518034185942,-21.012762504570652,7.257295457964062,41.49424400701972,76.33271789451351,108.03925596608134,131.05824668141491,149.7615762701648,167.50840576466038,170.02301999279177,135.90849609445303,67.24787600728487,-7.497415571138533,-65.06257535475274,-100.23966509830422,-116.91008192944773,-120.71609381630853,-111.29272537354188,-91.03361921140481,-73.95612128684056,-63.134548976381794,-46.43634527218422,-24.36365707275232,-8.093250765711417,-0.4834060365178239,2.375714197271323,7.348229455295662,15.955793188974411,17.895322503495496,11.835082252491784,10.207281308785015,10.480778481486569,2.135843755539322,-3.9136836637285803,2.219312552019865,4.936654274846743,-2.4500942991349977,-3.945083522175098,1.3119330404462017,1.4395951433469927,0.3419793910642923,-1.6549356563765087,-12.522548270508777,-18.76048168847059,-8.851245416064293,-1.1337332070092732,-8.78713961430708,-22.156716041033647,-26.115474682970913,-15.121162348007992,-5.277556585915016,-2.995089496710884,4.911931533573064,-2.0510110196318507,-35.10347718316592,-51.29457991551428,-47.036001494161724,-44.61807312303302,-32.09046961677859,-31.42712850432087,-43.83090774923347,-16.669304945816194,97.04805244894584,430.2413679679467,805.2236542726314,449.5293433156487,-611.9543055035567,-1012.8684031965867,-365.36201543445213,101.83928647533443,-10.826504142736066,-12.114350259177591,108.40871812528876,42.268585413700706,3.918462050166326,60.422791281709905,33.259470348531515,-3.391649865072024,13.055937076382136,-3.7048384687196028,-25.35620897533006,-15.062226808441466,-23.01628530978581,-38.69864331606442,-28.869631680680047,-15.184107655254541,-4.151416761586191,20.721578601832125,52.95317265931773,80.91728837284735,108.58132993936178,138.968142840086,164.30910211842274,176.29796733338898,166.06588345512262,119.81600518271898,42.574004899119174,-30.926788735906243,-76.68870764679644,-103.15162073112174,-118.25737388647148,-116.95426979482562,-105.5187935290157,-95.50439778490741,-82.13468231709459,-61.83949011739112,-44.38519549924735,-30.397071053086407,-13.540764250409218,1.506439115595363,10.979299193884268,16.005462563970568,13.878126944426766,9.451355446094098,10.501882685330088,12.971019066082388,15.130886635713374,15.1759286084008,1.540805649187032,-16.730790534466344,-16.24464715401073,-5.589230980021346,-3.611282313365324,-3.6882320641966064,-0.8557273938557213,-1.7235930399099288,-4.320374141065582,-4.960851192021062,-6.65123022754454,-12.671632988946119,-19.284557615877468,-18.430449170650178,-13.919875003610858,-5.775194733708702,13.019723198484025,9.32457428212603,-33.91641116116834,-56.525702514533315,-45.42203103658578,-44.115891917598624,-37.89303209919325,-35.98528385442177,-61.74133229411961,-56.13956294846031,24.060016960864004,293.17177487229344,735.5373500578119,652.9297221171981,-315.5601748782756,-986.678796521689,-510.06994915506823,77.83477987966512,15.230472632819499,-60.24624264473113,77.99613337675692,44.697808177263596,-25.59680270429115,41.89103595933519,48.42790970487185,-1.2967875268490223,9.065602253958437,7.182396056772214,-18.576288259609388,-15.162397323137602,-17.640830214265833,-30.842417936453188,-25.60456588279639,-23.081271818969643,-22.327971102939813,4.487554330084617,40.69805396053689,66.91271248559414,95.91715092261205,124.15799322637602,137.47550667590735,147.73869853077585,154.43509568460706,125.08978428064445,55.45519648345375,-17.36349369610153,-68.58604910326014,-98.79362603832388,-111.26453029113371,-108.04638359277006,-95.77813954171486,-82.4789079850714,-67.39196722340412,-47.45800417016352,-32.923437428355385,-29.347754890010187,-22.643807697436625,-8.154759552705933,2.567528283233429,8.393397869452926,13.197175529199857,12.21548567796284,5.477705965227244,0.8189634511780799,0.27994792833602844,-1.3851108487333406,-6.453011686178888,-10.199956582525042,-9.632558311892844,-7.3593697737871295,-5.394667685040787,-5.784458157676566,-9.197138059188935,-10.345054677463207,-10.080396008557482,-17.195967435496044,-23.99377207463656,-13.925961515209398,-1.4330156706464727,-7.062440140893732,-5.216601221873992,13.914302334842159,0.0702655129117371,-41.266011679515856,-48.44000053305926,-38.507678504945815,-40.59121047436156,-33.94414519181529,-40.26598636783553,-58.010541935496924,-38.81801024740594,76.54001051622436,440.25250496039763,817.1435031863207,415.3691800920105,-610.1448840075556,-894.7352072063975,-253.7329548267085,93.95074075114968,-50.003950596317765,-13.0448715990997,95.06819941417136,12.145404823572274,-6.657268680974735,53.96935657745822,19.84091602113119,-6.751157598714267,18.387316658654548,2.6471444568280784,-21.194766153765244,-20.225791245319304,-29.484963553429047,-36.36757498002547,-29.003102431169758,-20.459988900819496,-3.459950454187453,21.42942097517565,48.985114463979244,84.02505295209603,115.9370874370763,139.45267102116088,164.0027877759324,178.7930844571146,164.39312853125074,113.92376011182876,34.4569128688582,-39.381503895468455,-79.7721764801325,-105.10011551732343,-128.89372974222184,-134.61153626653552,-123.31650707625077,-107.27584594084138,-84.27729821041146,-59.93475113058169,-42.827301649347625,-27.83579730963183,-15.339500824617566,-8.072039649697793,1.043496796036166,9.548208945278098,8.558188014618192,3.7801159810744025,3.574335508447035,5.858227211648922,6.995488009955137,6.01988025922136,2.8743029309886676,-0.8067338598131979,-2.750031199778224,-2.7080950028233044,-2.8514407902917167,-4.116915215846372,-6.249149996804189,-12.577691619606567,-21.053560863395653,-17.468022443295673,-4.7420438985770605,-5.848356041413422,-6.401437144873521,16.301020728118242,13.325896480442005,-35.39789634773647,-54.129304536970515,-38.662192213548636,-45.514776011214636,-45.75457308509269,-39.278125090663075,-61.7082787082045,-58.648157374769994,22.316497738858914,298.68065163046805,748.8999231037105,671.7963979072726,-290.4661278570254,-960.4258580311357,-501.48518504308976,62.52427071135934,1.1100394945507652,-55.22412000633629,89.20444673910625,53.337868170812804,-14.897986854151084,46.80252482740905,40.51119993043302,-8.489662135840188,14.587642375765665,19.046381647898286,-12.296862715396527,-17.016429215989636,-20.060366167819897,-29.556284278742616,-21.891462498634855,-13.846570235540915,-12.032962989746908,2.6961760539198494,35.25702286670061,75.60376434677414,111.73940897220724,140.6516413277401,162.00298594749714,166.2387516749979,149.93689404472485,115.00956295081998,55.497583186343206,-18.881290079982833,-79.09871980541385,-113.96135636264904,-129.9409496119698,-127.59545279802694,-110.34757039605444,-91.0215902647142,-76.04886500533948,-61.25762745314583,-42.45109232068648,-22.604146766081726,-8.11336242647489,0.18745449233082212,4.770602703339918,5.521371769968008,5.059654616988132,7.990364494778547,12.358638797762364,13.578717278576523,9.902089248892606,1.0912702944994752,-7.2496273109040175,-6.739459402104147,-0.8236380709268474,-1.3338528094825026,-9.872754213119178,-16.40380702087221,-16.422346088685444,-16.100639364388673,-14.560722885269966,-7.975154622487889,-8.740910275926087,-10.230164580694037,11.541465745768416,17.809756894404348,-26.440532831877118,-54.10159105780651,-42.164926426064994,-48.103857566479526,-49.90120749150766,-35.11468883444095,-52.71726895586096,-64.99910219776433,-13.087898062482878,223.71398349868852,701.9144242495909,782.1592054491268,-100.98110873430687,-934.0354128821639,-607.397892852387,48.70828181871748,52.44870513541947,-75.50078994471826,54.798607400282215,64.99821561348465,-18.223584076224483,19.464721833602475,28.76126481460679,-13.854588925177298,3.050052505955346,7.820558943786549,-23.97781775984636,-25.032686615365957,-19.86115680615483,-27.722093003650496,-23.471006978049765,-18.54310365885697,-12.04751631938096,15.777138274127637,50.188061438867706,78.31235447927106,108.73623949816141,138.31888707441914,159.77546991707874,173.6282017253128,172.8193612310038,143.46846306528627,76.56149141848059,-19.326039169975637,-104.78347891250046,-139.63205071078002,-132.58891422738253,-120.25610026518467,-111.98748552147474,-97.06610725318835,-76.31923553179658,-54.969668011454054,-32.96033546142957,-14.683746012441048,-5.380143367690572,-1.0633566620724864,1.5952027331802086,0.1924510388238616,-0.3207777216211376,5.3180768915945045,7.346127964839354,0.6035844219961035,-3.2912821124177736,-0.44352038018208617,0.9096333361299465,-2.7415072301455528,-8.681935132078566,-9.135292643128555,-2.814000333494917,-4.124122956484003,-14.569816910787377,-18.21125019337894,-14.22373344442581,-9.595576900546472,-6.2498277512212415,-2.1693084241947065,13.920094643110515,20.00892709393672,-18.491826650010733,-51.93988833107658,-39.4669487397868,-34.82025188792937,-41.38815301860287,-34.02744257266754,-49.15878196016422,-64.52491645781456,-31.384375603846493,150.60426986327488,609.8589680467991,835.6901847777262,85.40617361792371,-899.4676575411269,-772.4498510540544,-42.19257048993472,89.22517660083166,-71.44299188057349,38.23400824880318,87.68259902728539,-7.216780089761354,23.652250289000158,62.3130598503767,7.583542644304783,-0.3358061814390787,17.254484101170988,-6.061056497834118,-15.421174855623175,-13.634519433494074,-30.63866427525184,-37.76780465413805,-28.944461212919812,-16.252326229451285,6.611382860317601,34.78925287265389,63.288741801733806,97.45873536272985,130.48629684559455,155.56571335603786,173.50177765935422,170.8638861244302,133.1320731684516,71.22437457020936,3.7503232534774114,-61.11124305156511,-110.18491962797242,-127.01125104713998,-117.63666534305702,-104.78335161933273,-95.45066080753752,-79.33407909784749,-56.38341138758338,-38.5989587194337,-26.099773985462537,-11.036942217340687,1.8894315470573275,6.826140332926165,8.955555190003544,10.681189659873418,13.051797296473005,19.13306269798805,19.31838481476526,9.058654658759945,4.569971070674605,5.9712675924557965,-0.9573035476989507,-6.050894562635024,-2.8191535558581293,-7.090124997945519,-14.464197182508384,-11.102587119585131,-7.787079954211954,-11.64303317763833,-13.40971902470568,-14.132562512177072,-20.571865167653016,-19.263044233731293,3.007978169098404,10.329125996804045,-26.782214757716098,-55.72777986919927,-49.544104316577005,-50.586057959909496,-46.68788543520462,-33.172000505772445,-53.524101176969516,-66.0119674964245,-17.236873659999148,193.4042966187847,660.5323689438527,815.9090366670523,-5.242318392480314,-930.5267407134338,-709.0228769919739,-1.384024076860527,76.93148050716809,-69.26662315222563,49.89047984752899,82.75855416058664,-5.910095209967656,24.999897763560362,45.65851645903489,-0.29447055416592915,11.736237390327261,25.09487274892492,-9.419427782708066,-24.808132438829944,-27.91224074598012,-37.69144291893126,-27.31310087413294,-11.790414144325037,-9.981017008881054,-0.8470595199011122,27.24052814673182,65.28531941902874,101.84792849169168,128.54919963528403,144.9312724328475,153.38404788454307,150.45106620511052,123.8919448235599,64.19284077361223,-13.248177326099153,-77.58348391493854,-113.5282742313018,-122.63697317888341,-113.39818099034628,-100.88103596032249,-91.01712365346354,-72.77059735776865,-46.14821799445704,-29.29710669863113,-22.05188368986941,-7.52233248709398,4.932123857697789,-2.016102258927024,-8.655954640957265,2.78964367421392,9.05724215458866,-2.1280969813014465,-8.812674180693634,-4.40915121543685,-2.33284544149981,-3.650686043791204,-3.8869503422333125,-4.699632464359535,-7.558994725650507,-12.441677905439212,-14.919257154928296,-10.257891573211731,-4.4124591689014,-3.6329471737850305,-5.713129648741003,-10.154956433493947,-16.52875592394862,-18.939426126989154,-12.187974963663724,-1.9525778550302526,-5.397054284314162,-14.404332094367648,0.7439115676483583,12.422979796182732,-18.695205175779066,-47.82038528867483,-50.75462786160318,-59.475519485676124,-53.95265899400725,-41.60073040099668,-60.422946726741976,-57.84261197102411,10.42053245880092,253.8779637273165,724.0212118572454,771.128388111,-142.18042729740813,-960.3560221252204,-602.3887249002055,51.162504406980275,37.62816142689355,-86.97976218655421,53.423854834549644,61.730398042581264,-23.23090636679141,24.16545184414499,42.292736598632175,-3.915027710219377,8.029906068031671,15.64098873093247,-15.353409780428589,-20.27833554065761,-16.786484937867456,-27.459701639923423,-25.006881298452104,-12.70651637119311,-3.4086984502603777,10.019411702047911,31.498365155050518,61.449531959275866,94.3588862009139,119.87559721139681,139.46738765072507,157.48889766113757,162.56709713750104,133.02142793350242,62.77888216287692,-18.155577638818215,-72.33538877281616,-99.74694770130947,-116.52288888277178,-117.62751755650172,-101.82378717161455,-86.45875761426535,-74.14011444986075,-55.03923640211422,-34.71194099213703,-20.26144596961987,-7.712385518327636,1.3401230302011342,3.6114095883408837,6.153109498728988,11.755334177850234,13.927082367847117,12.326415254313554,10.57109765494878,7.531913712119239,4.801643947526291,4.301489234730125,-0.7559793614784258,-11.233158629994712,-15.984754544286943,-14.111903718621404,-13.730699805750849,-12.510275595298053,-8.334199527514025,-7.381233161281482,-8.78322309336723,-7.674144275773012,-5.332159889261593,-3.2075738969081034,-2.3600672783917442,-4.258470621100974,-7.0307714328156585,-6.745276094204597,-1.4388818649924495,0.5007788697799898,-3.5607378420338063,2.543508701379963,2.436111308141487,-33.259202564767,-62.59235810134764,-56.686515684232255,-54.48830017078795,-49.89093927583485,-41.10941151600466,-62.07424467940565,-63.39374715250101,1.6004258451686155,224.5065408325081,689.6769543557057,817.1042284711857,-31.063393816307098,-935.4379425476427,-674.4172202359214,22.938950444228553,63.53238425696509,-86.5138356139874,46.260170545412066,76.19393803029419,-15.366741562100767,21.442380911161823,40.23964581470874,-12.666436939569955,-1.776169022749464,13.356474622042853,-17.025545430127032,-23.261076423214234,-18.568878184129087,-29.611208035218194,-28.601695480294133,-20.583526368339854,-13.774669337938736,7.909365394740675,39.10424602136271,67.36202017803194,94.53302377034859,121.14589260354015,143.73169228112096,157.89138406150556,157.12404986979064,131.99631177333762,75.90520906121375,2.4466352814483763,-60.55541102889813,-99.64988382227006,-116.87445826066559,-116.3269076183963,-105.11186997200254,-89.29743295330928,-69.86275682086855,-50.17585982557925,-33.866924149972185,-19.555200296082347,-7.258879278447683,0.6557945210835889,3.8392937869425623,3.187226847877092,1.98831398928532,3.3384852171949717,4.393763182763323,2.6941517519018205,1.0136171863986174,0.7552286781115587,1.4937218463430213,3.779815474984537,5.887951780569436,3.7758188511675623,-4.470825638739235,-13.656197991234382,-14.438250499151781,-7.911754945821141,-3.681752886478728,-2.6610321327803774,-3.5341179994547325,-10.723636384706406,-19.24216859117707,-18.96248338635311,-12.635291746241903,-8.28506545778955,-8.872218355966549,-11.492155895493934,-10.06231907245023,-6.972384222370229,-5.516062030171806,-2.5159852395742632,-4.977372822659271,-8.134251128014741,3.755151647727625,-0.6249244528271767,-39.51970284264147,-60.370307415267256,-54.66252865802684,-53.628357415813795,-43.817491499614015,-42.759002376920634,-61.217660432738995,-46.34916348582012,55.48101311837854,389.3080028500302,822.3107967848133,566.4768959723087,-477.0536060563378,-958.4967205665454,-355.5566073855015,119.39251215314633,-18.89969548654185,-47.84430570795842,87.35070445216961,25.683645745480685,-25.13518751944685,42.062149258351866,29.99486780814158,-5.041622505550411,17.521256201942123,6.887073953996209,-19.087441718138717,-13.858221235758872,-22.348727116229796,-36.31414376461108,-27.104139460100274,-19.696911965435895,-13.202781562206015,12.070599721119738,43.94392212405048,72.52135293417359,99.94623273666154,121.88308372173076,139.0583864231382,153.98558848876846,154.36238378291426,122.93974689773376,58.9875594019052,-14.145860530604423,-67.26623047234041,-92.75366026202603,-102.17184505515776,-104.1057331913499,-98.67692047953733,-85.39621017438444,-69.14108825099576,-54.36613099563552,-35.26675674002429,-12.38568736166707,-4.900001530067826,-15.764575164629054,-19.964804488209325,-7.862334178098916,5.870561440169022,11.057416741840571,6.877557642260065,0.8712972337318519,2.1165057729883436,1.7220356741730019,-8.045153125859521,-12.711386919965701,-8.90686112424554,-11.040760290636873,-14.819500691574301,-8.760282893024211,-1.515999331872754,-2.5809336240608083,-7.776871049176467,-10.866840117762344,-8.35846450345143,-1.1777336760780592,4.0300763486376034,1.7233538022776838,-5.741848432786776,-7.884091537084311,-0.1578666518141194,3.029300590671598,-7.319807946634294,-13.438103783974032,-10.548514855756437,-18.42952525240303,-20.438552659421894,5.330472947052091,9.515988742617012,-29.88393658844705,-51.49732426438101,-48.54889843207356,-50.98450229442881,-39.51552973773397,-35.60383769278421,-55.90615221038621,-45.77777709114946,56.46041584729733,399.0908886176496,833.8227460722517,560.4637970103117,-500.09837297458006,-978.3436607053216,-363.45397492221923,119.24143877886307,-14.121944092566743,-42.48750002774329,91.19295348523514,33.72834202315141,-13.482581845297968,47.67209361851225,27.613524231471295,-8.177776405990613,17.740625542446534,6.597426324369822,-24.996416683266748,-20.650870475339964,-21.339939880640305,-30.744382021565535,-22.91540643401619,-11.731102361786489,0.18170717144869997,22.011834630574317,49.19982697304029,80.81613035962965,111.91340728257569,132.93846600175274,149.2303231160804,162.76238329278124,156.02329475692216,115.45645909874688,48.35215946905437,-23.093263328722156,-76.47541183258939,-104.14865906535135,-111.76406367874979,-110.08405821832415,-109.88873864491725,-106.73708519610025,-86.74978613604374,-58.24655809561048,-39.70030729483391,-27.304438226916645,-13.676456905281036,-4.253174773597795,1.4053415453125453,6.079719876425784,6.768199693053214,7.072297648653159,8.429582325032936,3.847903040196318,-1.6496041767141438,0.6038533056372177,2.7408279051516686,-1.0851105008918918,-5.414639336131755,-8.81944893607583,-9.091144280342803,-3.2927380324910427,-1.0502149892851342,-6.151047281926507,-6.279556827970195,-2.420844418504654,-4.504829725170408,-4.479045674568804,0.6814547545372278,-1.8165907474019463,-8.833298880301669,-11.572316965911922,-13.050496229498838,-10.12352006470978,-7.363102276231037,-9.725486553031324,3.3834213339390073,13.162379405789967,-20.74660385160676,-51.40193524232498,-43.2884834932165,-42.57769644793044,-44.143047195284865,-38.02336015682074,-55.238044572597865,-52.626908812415095,16.747796311607402,252.81007372010998,704.6805330943388,756.5670449383044,-137.34707554699074,-970.844345091328,-637.3310451128809,35.881214664609644,55.520543394789314,-63.703952804190685,71.77060877603482,77.08114026175805,-15.47683625822189,29.67501333180313,51.67473548677023,1.937359015672925,10.831137682312107,23.85605371483324,-11.00711239708884,-31.016240303415366,-31.935776799442344,-39.10412833250019,-40.50881741812928,-30.47591949835938,-15.179203401630597,4.30060367519766,30.988263925345414,62.142815977355596,88.675438586492,112.90840733070861,138.20943158374837,154.95770950094794,156.73076001167243,133.5536429517598,72.61931197353124,-6.020987170618664,-66.19648805761427,-100.40083158769802,-116.33456739864147,-115.91063403961904,-104.65042074877084,-90.84127189737782,-76.9778444838813,-60.49224421241033,-40.43461501497697,-23.698699355132327,-14.167675536124591,-4.7281756140620175,4.728546450187107,7.016562285220685,7.58855910869746,11.861137857857567,11.407417395242469,5.449193837666071,3.673234396874874,4.970459639458236,3.5399870477337707,2.1702230122940307,2.2818601167861416,-0.24880644398818852,-5.264021436291573,-8.487233637346625,-8.576113664820532,-7.085450005755396,-5.972881008361739,-7.036241427889841,-8.658132973862386,-5.783724664666897,-0.48896145904457455,-1.9976256840563025,-9.043985460335083,-12.94683946934837,-13.234439101578513,-8.875368417377128,-2.4429860405278836,-4.603264110371736,0.03276461246137652,18.77015940953326,3.0350438164325197,-45.19352001433016,-56.24724375375526,-43.33895168195312,-46.81746348185686,-41.36231469290411,-41.937398887282136,-59.283658898972035,-37.826589057177934,90.76840681513974,455.23550130085744,829.6857373055698,443.080566095601,-599.4691486168404,-932.6373243465669,-278.9365932508521,115.164980832489,-50.530647761690894,-49.04988919945181,84.08698390641075,22.319964313940112,-8.85233685252549,52.47495246525345,21.930930779282498,-14.92340059388344,10.940181566468711,0.34907606314647754,-27.383071295917965,-22.96710198336352,-25.17377406837641,-33.86104129743134,-26.63259606976161,-16.518355763978622,-5.4009725218282,13.181443919444462,37.90370671931852,70.4147411470149,102.81045519605783,125.99620253305673,145.02486737206576,157.63629189167187,147.9204903989615,106.8290805823142,42.12302122386701,-25.18776403590092,-76.5700347564286,-107.69833181968309,-119.32683376815045,-112.32262035041661,-94.6323151315261,-77.7958254886584,-65.92955521443379,-53.47328926436359,-35.95043883331442,-18.710620473303194,-7.029715859306023,0.9203641173434391,4.98377031006482,5.259497894238583,7.9249549391170175,13.162044966725203,14.18672821817804,11.854994113390724,10.602425173235904,6.931487263506243,-2.784947636276023,-11.204006101977203,-9.68082071634036,-4.811247863215703,-7.236147423570921,-10.773273935340633,-7.650264771514639,-4.4817088913127705,-2.6832012039667097,1.8584435544167288,1.2470692609992753,-6.267450254073189,-10.783262226790086,-13.269253397511026,-12.962090419999125,-6.935525722243873,-8.599514591105207,-7.619356394235402,14.431740354749495,14.698192573078579,-23.404140169138287,-42.527385207141336,-46.23186754093579,-60.726495601739494,-50.92854728111046,-40.45389825948455,-59.08689247731555,-51.552522949031506,44.002946648230875,371.3335806931385,799.7155751612238,549.6974534093307,-482.6851045130084,-967.27737040853,-376.1869500798691,106.9249980172826,-11.198841847198928,-37.82877749901913,93.95930358398186,42.61731110849952,-3.5223465521164705,53.66592812838484,35.728060381589046,0.25554371804873277,18.856887913152033,5.028283170117058,-24.00054274124916,-23.494797791760778,-28.96689425624101,-35.33854378420862,-27.213872943077018,-23.493902661190695,-13.824099441096148,12.974935918929866,40.61910847692315,68.51736531546709,101.14648155848128,127.88735267622626,146.22581550922962,158.95557205372188,155.2059825082992,119.33786649519895,52.418885367551766,-20.10641962461734,-72.97126237446062,-105.60669681872594,-122.5288259383199,-118.88584680935199,-102.36857337695501,-88.44446653638195,-74.8256040060942,-54.24386080522165,-32.54371706001128,-16.811088910024544,-6.555149074703966,0.9885114892109748,5.813288414718487,5.864544558526209,4.019638663106456,5.335251517573445,7.307331986760396,6.269666429457018,4.289823221236269,3.0273728118225254,2.7208772436125823,2.911973744356712,1.7250810111323283,0.33579918850008106,-0.043093759045374824,-0.23773132336522984,2.0389939403966792,2.5535544546891664,-9.81581139998983,-26.54253813218574,-24.176342425410816,-7.6016424551650115,-4.570431011445733,-7.718570037057505,4.79932339742036,-0.2731676148891822,-41.03296809871961,-60.17172665613978,-49.381614140744816,-49.58811758947944,-41.86156683654647,-35.141072687055185,-59.28380628742389,-60.04655161773925,21.677437804899313,305.4034502071288,744.5033050427711,642.3148293507109,-314.36988555957106,-947.9417213251671,-461.3579302177256,105.99494780813241,22.89467722875931,-66.48142900012208,67.21887810186784,43.070838333516804,-20.9916058694129,37.173309030097755,34.034733324257715,-10.484051332847397,11.003100122665881,11.223668630247651,-18.792133016831915,-14.271004620323321,-10.25770153217962,-20.506549842238723,-15.582683624931615,-9.766234081605342,-8.496990634328961,7.812386847722163,36.63466315944388,67.03739697192874,94.42447114777167,115.87915653835175,135.44576966353964,152.12202254828463,148.00522886121198,106.69244720966094,37.234182927707536,-30.369396089081008,-76.67405375036206,-104.09450022660147,-114.92838206506032,-108.45594492777843,-94.63345601525714,-82.1018265532672,-68.3170379397119,-52.044586443818346,-35.37600317671429,-19.482686483547866,-8.087447620814416,-2.3645072174600656,2.244090587422235,6.610682030504556,8.123667986401077,8.178148702347194,8.897416993506681,8.996534255249511,7.554171143842208,6.2227649080754945,6.2620950168257785,7.350897719315751,8.809383930800722,7.696839589921236,0.22437986752532346,-10.023063447343358,-13.838724334206406,-10.850247125871284,-10.717896787567511,-15.667680175022689,-20.9785279248914,-27.84903557616754,-24.897728175473464,-1.134988283989589,4.026840463981504,-31.817945561065844,-54.077631999093526,-49.04715855656595,-49.78030957208741,-38.42473084135973,-31.86176935315315,-61.79721742811681,-71.21437763223882,-2.597904652280846,275.4659204824155,742.5975981132295,685.4818630876782,-268.6319504405391,-947.0127443943502,-490.71520922781474,87.63946208380321,25.841318993284546,-55.59520588579279,74.7262858444982,43.87992587770851,-22.83719155717791,38.55078196336989,38.924184678560046,-6.796186677490694,11.486115838871054,11.83889957523812,-18.714923183459682,-21.476931345142745,-24.98664644133479,-36.04174152875132,-29.016717762018814,-19.716087846735434,-10.360128330996915,14.19820168091261,42.89683464068235,67.39426547808642,93.6918048473602,118.21929889051701,137.63197875413232,156.56066633428165,161.93051322983047,126.15028372340069,53.61011046462259,-17.723942926183355,-67.0957924229215,-98.49437487714296,-113.54313423037166,-114.74841311279746,-108.2352343278642,-92.19929808894001,-67.66059657895732,-45.53006603484709,-30.90958202112121,-19.813476108173127,-7.854680719296777,5.198148443494109,14.06644946015031,16.821299875297953,16.504480692423897,9.28760903281959,-4.639870533168622,-10.631175983577183,-5.463180232869275,-2.7686235822167617,-5.231785163630594,-7.279915447976435,-9.593635238865525,-9.538410972533356,-5.275197693427867,-5.359036530125351,-11.817106756133382,-18.375519780381946,-24.05627486949412,-20.613079096507963,-4.340454005144908,0.2422055547588977,-5.953269655689498,8.109440726649591,11.495003258411124,-28.059527046979547,-50.44696163342573,-34.11647865318904,-29.23682850308939,-34.040126079482654,-43.73002433072307,-61.736145302401745,-48.95894317134388,31.518304740474434,322.4409021881042,763.9417721106965,606.1418662879405,-403.24859628775465,-994.4462495957729,-449.8385867501148,102.43271185155723,7.887927329971227,-45.94384652022031,99.58193809046054,57.49390902370735,-8.431886211678393,51.65019128103052,40.23510724713977,-6.546828078771592,15.562103300474071,10.99777544940004,-21.75510986287958,-16.26722142607225,-14.191709786346115,-31.406696892282298,-29.499466056078756,-11.641089240636298,6.044249453626904,23.075856292245142,43.693062857448986,75.12727433406162,108.74907882601788,130.4618160547215,147.59044114275724,165.17219194460245,163.8363751041877,123.85395698906575,52.01635069134448,-22.287642431611513,-76.9148432304888,-110.10653177281522,-121.82859856834375,-114.29052047710303,-102.33206494760773,-89.78039160976654,-66.62538321847978,-41.88812488641635,-30.8836040858056,-24.572372408222158,-12.195046102014093,-0.38285771481776365,5.979767988392743,8.909476441580555,10.26428206217831,13.469544788793698,17.90485271448619,16.747025958665745,7.852062250408023,-2.8955627151465446,-8.159063465482465,-7.288938184260235,-5.889335394226155,-4.0862098289512545,-0.8899373064985436,-5.095203046467674,-17.541089753960108,-21.567665002660114,-8.31538670781838,5.684316127332769,-2.3270509580289787,-17.533909693089207,-6.329944817977326,4.066241186177658,-21.80452638037919,-41.30347719053084,-40.844033207358045,-55.007625846439964,-53.21529702673396,-35.9132494282117,-48.34052320037158,-47.30081680321919,7.663110824267591,224.00009393581558,668.5608108883305,718.5834119910763,-177.83140482565213,-1001.8744070082238,-650.0903984538174,36.627566438131424,64.72306838215111,-50.68520585132071,84.34813781803983,91.89411948461952,2.381484377802643,43.55839694213837,58.2933475348783,4.2439664426064745,8.009093959866522,15.234193086968823,-14.89229628109155,-20.736413523700538,-15.518046841125237,-26.36435163667934,-28.57392580114844,-18.91422110021867,-9.216834718968396,8.517123996762766,40.98519915052968,76.83922748679342,103.79759735511306,128.69080533733504,156.46580492481212,172.03765142672256,165.85107598250528,133.70257974132775,65.66920788069822,-17.30941231361362,-71.55529211114889,-95.06494085859416,-110.32100540886827,-112.11072510309668,-100.78493095711508,-97.22328747285036,-89.31795167534509,-56.691875172579415,-28.67367245760277,-23.945404801064953,-10.311211170878206,13.211241333626523,12.312250584418667,0.5816822682248866,7.441892579633176,16.735235974247985,13.971190902192038,9.28072471652579,1.2407388860283,-9.383000226756984,-9.788744676441958,-5.686881759867164,-7.748002867265294,-9.615408079492394,-10.016546852620024,-12.095649253501023,-11.220692795240932,-13.72675687513935,-22.62608901052007,-19.19319408746877,-5.17766412652043,2.1568027617864405,9.409971926645214,5.437445421915797,-24.88863422875016,-44.03477642130065,-42.05415854037116,-45.82372100167834,-38.08101442919791,-30.065990934536888,-42.779643084688395,-30.412272922631526,42.54572300501977,306.08437470576075,737.0089201501738,613.5849883059216,-389.04464732814387,-1030.868444582489,-492.1804898258157,118.23014839139714,39.55095938796555,-46.50920426697051,94.27659564523104,65.1026399744694,-5.6285412439511155,48.23416304133528,39.3522166524813,-4.698930272854955,17.934610365048748,11.276781154942466,-21.716149648148566,-15.232787660320001,-17.023703725046357,-33.03029571471341,-24.901431144994397,-15.400856473408567,-7.484146065925344,24.15728053840391,61.38477484580864,86.00050069501994,110.45662907488766,138.11308930909473,162.81453911492775,182.46890509908175,179.29767288961997,125.23827490188921,31.008133975653212,-51.15024839959131,-95.7236788349823,-118.77248171355362,-123.6422749930115,-109.28724940491588,-100.48459838335458,-101.03641792240829,-81.66546158636098,-45.240133261765806,-25.780320959426913,-24.80371158656237,-15.000513268231714,4.768898827871869,11.78024929708958,8.215260640473936,10.763544613510266,9.607796100788601,-1.0476283722271464,0.11912738788231891,13.255099355584104,15.765981999539314,4.837592642728811,-10.582888931843208,-22.254066665090285,-21.65542338359608,-15.360841056601448,-16.121647432738136,-23.947488323496025,-28.30531467716195,-19.5220362051448,-9.61292724122547,-6.342223376417419,10.41381313392793,17.489340170961697,-20.839261707368145,-50.39255643245493,-40.725406216963705,-38.501301155451245,-35.11218076811723,-28.958668087870763,-50.624675358736695,-49.983864140881124,17.567071733438695,255.3381105991013,687.2266781020226,663.9847546520369,-274.9551762943893,-1022.8254530270115,-575.1271514353365,103.93978077694189,78.02950550562826,-54.86887355691011,75.31814590993696,76.81074327915191,-2.1158959901295837,44.859802776965665,50.508945835086934,-2.1037723102652235,9.36290417620038,11.830470621519336,-20.212608492496805,-13.874696947644255,-2.2212797353474656,-18.961870691459495,-22.897380403547757,-9.16830267353973,2.1554157496907855,21.770583754573845,52.02688050227467,74.51474834459367,92.4140458227878,123.41500674051676,157.72147247586696,171.04743439440193,152.39308497785728,96.8323071873298,19.659331559837522,-41.37271966601027,-76.88453306352194,-103.02019134188095,-114.1223674727103,-103.81139764656517,-88.94732320719618,-74.87945074662085,-51.91186092946659,-29.401154401181664,-26.191105716041342,-34.0290541866343,-27.084535010497184,-6.116102183420562,4.472369229323785,0.6758818809348526,-2.8757518131305986,-2.036861511118362,3.216745899618447,12.327380849071744,15.002697841912006,10.376654291227076,9.644266646570127,8.488763235665974,-0.8685048409891891,-8.570806263453607,-9.696029300630313,-11.397103683258775,-13.982222199319764,-15.042665804858563,-15.558417107525006,-11.788279742298672,-0.1976913913388776,6.196393557432746,-10.124894852472243,-34.31312823607651,-43.78587132758658,-47.271249084366346,-39.282347011659965,-19.0742660654337,-27.772861530671204,-43.73511552579213,-21.300593393403425,79.91784118762735,425.1171299968427,784.5319434468654,340.5540317526923,-728.6346624548713,-975.1083936875746,-222.02780589151712,180.34061271102647,-7.139227169265897,-3.898121084305906,119.2772470432221,35.92990794610471,2.475731197782082,69.66006818869133,34.34505582407344,-13.181247853670282,5.149717024931778,-4.409600009432792,-25.45535785253424,-19.765749234750597,-27.78364511292005,-37.31674174040853,-21.964847092042998,-6.251693030765249,6.957933933718323,35.32546171949429,70.81567153553809,101.24663124945708,124.62465832048584,144.36278280547373,168.95153614370264,183.9003733571454,151.56302934421882,71.24561279656862,-11.945775341641827,-67.9052567036054,-101.130874113882,-119.79923988843439,-121.02395332758454,-106.01889738599277,-89.82653280101131,-78.330221830731,-59.49606100003105,-35.099308770751335,-20.712030559976,-15.68837489010891,-10.080765866977625,-2.6309877487006297,-0.04005664373026008,-5.043229250467409,-2.9321757261935932,11.254301101641818,12.639341336483195,-0.17214305478234238,1.3206581351875597,9.873999386825552,3.4632117745433906,-2.332426866785293,4.11424251840133,5.8676702497923925,-0.2256150885511925,-3.6469717926776735,-6.378699187497697,-7.2657554230038155,-2.557801086077882,-5.196410125879364,-8.504517842844326,7.604894398192375,6.344086883056352,-32.772899520984275,-48.490402132344805,-37.70105172689089,-42.407522599391925,-30.200573837286576,-13.427288795205143,-30.792695663905203,-22.218772530258683,65.88275730484963,341.5439629724023,729.5547906432566,504.6780307220724,-535.8446193150407,-1068.7078085540181,-424.0836126232829,153.56959045794952,23.741587469165026,-33.784971739700474,122.72115483004438,66.07442487278804,-5.204306385941344,62.55045936173035,42.32668632599706,-9.350764767484765,25.472226914892275,22.72507796528405,-23.042082437642676,-25.18730439680327,-21.223488268948607,-30.66750067213072,-21.229664838789645,-1.7797661423263733,16.662221547443583,32.37306352461933,43.5421127488905,71.10739529282188,114.6511346398957,142.5989623525927,156.62834730472494,169.90344367722682,154.45398685039865,89.5196137065179,5.990441034163927,-57.24711538368058,-94.1783744109673,-114.82835391154039,-120.06622953244585,-110.23336329641104,-97.51866756623542,-85.75576442740743,-63.758682593655536,-37.49778667353717,-25.403755515628355,-17.873440986169918,1.6905090526762976,13.915774459781026,1.579663335959566,-8.996117198619551,3.7198160162483127,19.350266104936217,18.43934288259073,8.679849611514046,0.8896824131988019,-1.1022287457109767,2.5776977989606555,4.795904909967419,2.2150660238737414,1.3890226529352017,2.383062356499977,-0.35302347555267755,-1.993350182190719,1.678757030681652,4.569799881341974,1.7064560629209549,-9.41372054902902,-16.045142445800394,1.571680718547925,10.211739379632627,-27.306654485287268,-60.03683750486515,-53.972390725628024,-47.30505686574963,-39.82810967967727,-31.70151170040964,-40.01512416736018,-24.222040945317975,40.48551541041017,261.04496446542265,673.4106900724529,635.5695901164092,-311.714594966043,-1064.4859274203834,-610.6860272724548,89.12721501205618,83.60391477811828,-35.42154802904567,102.99685603814666,97.67289829238112,5.548172150273928,54.23700821468047,68.37702828380318,13.867241187410869,19.033907605061493,17.534498644571492,-23.16650073883239,-33.04054993664805,-34.155683613994945,-48.13668603734438,-39.47613160593415,-18.505667459067798,-6.14158360846611,14.89807481729062,49.63918947037373,85.93827347331037,119.70043750696784,143.09811107612805,152.6675538761326,162.07996441290285,163.2998731523692,122.25237245632275,43.27572453693169,-32.61587686272457,-87.86750530971389,-118.96393635641176,-117.42976740058666,-100.91107205378214,-95.51936493174564,-91.39568764320289,-72.38748710106921,-49.851900454276034,-33.143464430539886,-16.04386293993484,-1.3748250785017007,3.3106325737613638,4.034277738055488,7.4393686228451426,10.759923985810467,11.294753963640476,7.933439583649467,4.204729816466166,7.041820997271554,9.56163321050728,2.9864784417345476,-3.542599578551327,-8.361120697162287,-18.55696232528895,-20.060032412000098,-7.533610689158575,-2.978078322021748,-5.97072001969287,-2.4671436122114123,-6.239554937337287,-15.764806060452091,-8.18955063343408,-3.1605877616892553,-15.228096326835997,-6.411097531274281,9.383843638952758,-19.078055976825713,-51.54554423637614,-48.482351608734206,-45.094989293318974,-36.63289057695232,-27.431392173961257,-47.832710918855575,-31.559670721282288,48.96243838449752,227.81795964752715,615.64424224828,743.2796079540739,-55.60269359787313,-1000.3085530332949,-806.784662360631,-47.33630099655791,100.58853341852081,-36.35115663158072,77.70485767126723,116.99744800848592,20.835677445638,45.853078106826466,62.86765961197916,-5.786873058638298,-6.5385418527495816,17.776650404054543,-15.393014864734631,-34.222125436029486,-25.875147050121065,-32.237835658648535,-33.94416522930683,-19.029059369321708,-3.62385734153208,13.645507543991382,38.745688922760905,69.69898176174522,103.63976949543094,134.12290172364078,155.0532426409627,169.77940757724926,174.98459598991363,144.586676373371,70.59072153000187,-8.988811017477493,-66.70164247857826,-107.99160598546828,-126.25955731222867,-117.7975382272779,-105.79575681458121,-95.03561130257354,-72.18826477498385,-48.44614973140788,-36.552558404873274,-29.078603651291253,-21.419285048310392,-11.298889675934067,2.550816306647139,9.793511080035334,8.557854414861325,9.840059908011419,13.637541283930828,14.532922552213954,11.655077068898748,5.8936307542670665,5.494722453060969,9.552476738748176,2.7659088358515707,-6.844127955684717,-2.5462496769409277,-0.10681943824118889,-8.347857359063642,-8.424647543371375,-3.503567155997011,-8.237672104182728,-11.596796240006315,-11.317348669227425,-22.367835466844614,-31.198047324618805,-20.76891438231976,-13.673447627104908,-13.379678489286885,6.174680457695315,11.967391236807293,-25.06747269262858,-45.660500929355536,-39.996708070454474,-51.00921245037833,-44.14959323347163,-27.846833561974265,-47.06660390759638,-36.2718793495031,44.48637955185339,283.5218831746644,716.9210057795046,687.2301661163685,-280.6176250527609,-1045.6601380909403,-596.242871787404,68.77867802428818,39.66504856024684,-58.39176578545896,90.74699585703908,76.68280134628235,-6.980910722726003,47.91310891275422,55.20110904035484,6.008943268618343,18.66286598484559,14.655879241812743,-22.813369999593274,-24.79131541019708,-19.121383085745258,-25.68732522611289,-22.211124637320797,-16.259938211624096,-7.338121083602557,11.369270788462003,29.6875944287167,54.24677094011727,90.59452359437628,119.41097709012772,135.2469097622596,149.5001715055804,152.13323196496955,119.52924500592009,53.103271274908096,-17.084000487989453,-66.69348368724009,-96.06836255391872,-110.51378675853984,-108.37828231614216,-95.98796631685812,-84.91994180476583,-72.81945310880027,-52.24943420263989,-29.824807590620573,-15.252091842134174,-5.513199930716958,3.800033859898406,8.085528643046002,5.842909811571765,4.217251206381633,6.450338684701601,7.533349715762327,4.583663661283325,2.3609588715364342,4.111244846297467,4.128356885082464,-1.1625356671007552,-6.467931288230615,-10.330745759993246,-14.857439006505041,-15.451748526442412,-11.31702392027061,-9.436270744399323,-9.692572557961357,-8.141936562127903,-6.228286103966811,-3.9984265768807976,-1.9434151104654962,-2.6824114148936076,-2.8755687542172197,-7.748277802366012,-24.647910665092134,-22.99240481788393,9.897924481281482,9.60425460614356,-37.801604983086364,-56.87161063994375,-47.7390859404162,-49.94437775234483,-40.817900597387435,-42.476781999717794,-70.43336864826775,-58.14792095062483,46.49864524621535,374.01372091105435,803.3992317614035,555.7276282164468,-488.1414573489395,-971.6603966640583,-346.96759075401377,144.00929952786277,-14.552980645596463,-60.62400535960025,86.32730556267634,33.332944370356685,-22.065667441330767,45.25865033407217,34.73446138394879,-3.3600920089733366,17.649862241255235,5.3862712555175944,-23.07054018678474,-13.778100389501308,-14.610453232656681,-27.850052206321827,-23.473105190818814,-18.848004197963046,-14.16666986180418,7.8186468202881585,39.77657814488951,72.58787835696765,100.59203646013101,118.10540216063562,134.6745393195094,154.3190411535617,152.5614942965054,106.97753043550314,31.389900371728103,-38.60963521131271,-82.27975040491202,-102.63721641232344,-107.2504060207403,-100.91660912680624,-90.47690510395958,-77.58022675540592,-59.08218923403519,-38.78786865521268,-22.41351504856361,-11.871428831332164,-7.184345300842242,-0.7878438077136565,10.500623795668815,13.826692837346013,7.384671137626388,4.140599086318581,1.4549027653951612,-5.862618740288292,-7.524097918561525,-2.4592428531553754,-0.8510870897318377,-4.127914446194987,-8.734495904911153,-10.335359262100319,-7.316449833209614,-6.757260680519581,-9.438049431117246,-8.65282282192149,-8.136756924793072,-10.045647559609627,-6.9102669247171065,-1.002641222669876,1.124706488368556,1.8698419648984803,2.199215620641789,1.116780333948121,2.410622939275175,7.188995174374126,3.310103718687156,-19.03472176116523,-30.786792300996048,-9.333983389005224,-6.2353564475733965,-43.98004091482289,-59.99047246741972,-51.78846036691631,-55.5070972333537,-47.55801240313461,-45.20812055010963,-67.55306545968187,-58.26155432590208,42.7169933968496,378.62154060958585,810.7495725910098,551.6515460508488,-481.1062649756987,-934.2632822311273,-321.0825927526086,128.0203146769855,-33.87889240731575,-57.94042094629546,88.69153129127928,29.285745029267055,-21.35391057270383,45.171504981771406,30.432790835517842,-4.462422207020392,21.25711971776792,12.349561757616264,-15.072038701120903,-11.1918607855177,-16.550111690434026,-26.88119739702092,-21.379691896996466,-21.813798952506442,-19.31504266379773,3.3194752554896,28.563219925812373,52.25249549382341,84.07167680397657,113.61729790384462,132.18859492015997,144.938118700766,144.3358831853934,112.21566347933671,50.380130673236785,-15.257061849637045,-60.51501680548006,-82.9081924063179,-94.43842905002097,-99.98789169479761,-94.50738132855003,-79.15602346043245,-62.93369995813954,-49.207993414307055,-34.47627633545081,-19.39866036130958,-8.935694541218538,-1.543209574028431,6.229991439781088,10.61879628602051,13.081791897323775,16.43380605248193,6.313164367244401,-18.037876427285163,-27.052174299530794,-17.031938258860364,-13.834007969033365,-15.292659038167415,-9.47238689132865,-7.918938525170763,-11.785074391479082,-9.643596080468273,-6.115582103305261,-5.6473089130044976,-4.118234640716203,-3.7597354729924106,-5.114172449125096,-4.389989905611021,-3.0579379900357466,-2.2399527508378014,-1.84329029090871,-4.708802989971982,-9.174564071382655,-10.149177088533008,-10.001753346843305,-12.151085157569767,-10.868084411810173,-9.108865917443818,-16.344875475987713,-12.94317995431367,7.486148379135314,-2.2345101388180666,-42.105476615782926,-56.32435501010968,-50.72057703601813,-46.48041271145457,-39.44094193523176,-54.645102324419256,-72.48612114164358,-47.3387598014215,87.90637674048438,488.0068178693807,833.8039200963342,329.76053673412173,-684.0750587527398,-822.419727304264,-132.52659567202144,128.95884242298018,-61.91735085029862,-15.51109373711224,86.5362629950599,2.7257500689258656,-7.77832712914001,45.65598452480516,10.043651366540713,-9.356582261948711,11.69581417307398,-5.193653052087253,-17.968119402643833,-9.905507941489226,-19.654588099046155,-27.805461839302538,-21.68946807734671,-15.547338847826179,-1.720875273818912,20.865842416310038,44.72350311133576,71.27850183836077,93.40376931848186,107.59235270033956,123.86960317967868,139.24402716551947,132.12260667551894,85.42710343393881,12.992969673317512,-46.174444931972474,-77.28934699927751,-96.82625651043465,-106.82806682527317,-100.13945907964694,-87.40237866237905,-73.852339671077,-53.592648305017576,-35.343599932608484,-27.974224683993874,-21.959203049316603,-11.730382378860245,-3.529773247344714,1.414843852135359,3.97257030692802,1.2072764930072104,-2.788720906664061,-0.5089373551243526,4.50143439577705,4.852968039018663,0.8947831238103028,-4.154514454902586,-7.514162103341146,-6.703605914113531,-3.802216931676922,-2.4697248281562736,-2.6859436845158484,-4.191137770519404,-6.933347627039968,-7.7916866271051415,-4.904496508983,-1.885549943229659,-2.319209801403691,-4.429802904740388,-5.051300032668664,-3.7609685748163475,-1.3831408170231114,0.5533645145980675,-0.2151642243777605,-4.423600322579157,-7.202266361953379,-3.770661571219337,-4.984023688948568,-14.234991608324801,-6.116574339201969,8.189530299440126,-15.78629392087612,-48.55243437998412,-48.23176315021753,-47.00966132477373,-46.72513359158155,-37.472121687838936,-53.79733152174386,-62.749402027512254,-18.238437268533517,158.69092276452645,587.8263023896972,808.3952310024106,111.19214733768722,-835.7248271948437,-737.3320250350457,-36.958761149116235,92.98789815869578,-82.11315065926547,16.497660619559113,84.06005113143613,-0.2996120895934524,21.97821487513714,56.103941006750354,-1.6937321188125392,-10.028239993368963,18.364418812197307,1.1940660692996947,-13.318397769463388,-14.035095148591589,-29.899477126961383,-37.7675225851354,-30.641860949621964,-22.66238421439146,-8.776844404012198,10.04997995138816,31.035681479737182,59.65866801349883,89.27265892285438,111.6089106423919,127.8882818310414,133.7014703507624,120.5462939852253,83.87222965136655,26.809239596345883,-31.165145369633457,-70.8301364018666,-93.97005391988188,-104.03359701834741,-97.23944578897962,-81.7587097881992,-67.6775456185832,-52.27385761658893,-36.39874551411768,-25.798934049483627,-16.960233327603184,-5.348389095526642,5.24957056357718,9.728592303278358,7.8161749979487,3.512347520439601,0.5256347784594375,0.05456784039069795,1.2840939970578624,-0.11915919559576693,-5.08463410746597,-6.523024571400978,-4.116342182044566,-4.904721755861745,-6.228902371543224,-5.022702984146072,-6.999769832446567,-8.536590278044013,-2.5360114389451853,2.6616649755802344,1.2636512514659106,-0.13730505488464217,-0.0018481212423893112,0.3795490020348051,0.06506131325027908,-6.535966375944792,-15.43858849359555,-17.72796391330211,-16.139664661098394,-12.973626851346802,-11.193358527222411,-9.557922558616776,7.093235251397565,15.9615034202186,-16.849096369522364,-45.313127941577505,-36.77432822990556,-32.32915732568705,-34.03960991237209,-38.999298215285755,-61.52908361728005,-55.70290168085488,11.279593040693896,249.01767287316494,696.4093957532588,710.9573568876948,-194.67572943196592,-960.4059568577999,-574.7263825481285,60.93979616572113,39.84126678109634,-70.30939839040857,68.27230897833145,66.85576561522515,-9.595380130994617,43.290820728664876,48.5739777910984,-6.605400431200144,5.296970074217711,10.486184945110526,-18.03529247498137,-15.36970857711934,-13.60070113988365,-30.653055467352853,-28.688197909695063,-16.874930401888932,-9.425441322068483,5.828758547303824,26.723245295310807,48.42083084881597,71.56338160923772,92.497719322411,112.77160991897821,131.4877577971326,137.56317250268347,120.07497620472029,72.26089692137367,5.380635520797821,-48.99163883222436,-77.78650358762728,-94.71735486184699,-103.45603260231209,-98.205210596835,-85.05129635515472,-69.50638265613375,-49.70141436043777,-30.3313390360227,-17.36201738369705,-7.064343011832381,2.6817661264618557,4.96130882987665,-0.8893632251948844,-3.403217716258414,1.3550528198150449,4.025268049486558,1.8852638076696948,1.0556462901049493,1.3768766825724779,-0.16658508094047697,-1.3855355408968233,-0.9150229214721186,-1.5425813414871836,-5.600532249570662,-10.137047927948913,-9.270458270908051,-5.431842509794674,-6.503738783984884,-9.083619893420456,-5.96241295012895,-3.1360978059135967,-5.912545883263542,-8.549304534718981,-10.424676924566775,-10.974869839684189,-3.837717484284215,-0.8878577754487802,-6.165985677245331,8.610217871723794,26.463590539918872,-0.2654418127379372,-38.0342419977339,-47.755089337334525,-54.71131338686763,-52.171977060025924,-43.11573195827148,-58.4084380810139,-55.77712132173102,-3.904361525824612,193.4390046553472,633.6129905404142,755.8806729974241,-52.09817003635399,-906.282918557786,-652.0735162229792,13.362060256288927,63.628413702831445,-66.87796651595868,56.54913562459487,79.11053161699598,-7.733720080950845,28.651073124624304,49.97015461908902,0.10327550888521397,1.0031370019469321,8.732035780656613,-14.884695796481072,-15.648422226113293,-13.075901443386194,-25.588281620357073,-24.529181711444267,-18.6025386027903,-15.370847394983254,1.7173100228930984,26.632388158476537,50.93126157430602,76.76358370831062,95.59642733174977,107.90802815787978,126.04617361152026,140.2953784416472,127.16291534452222,80.53899241466738,14.434980503450346,-44.774551884108895,-77.66352392796854,-92.72429035939258,-103.92779218093949,-105.51133262197027,-93.86187852881511,-77.31001311477888,-57.28239124115275,-36.040025535809335,-24.039232146627484,-18.519034822218075,-7.98677461941168,3.5030121614578693,7.965978849824074,9.491782212133613,10.427253756582415,8.041645765694883,5.339447601669125,4.775734065469956,4.36057076134498,3.95131781895606,1.4905973651126452,-3.2692854017145123,-2.9677860255932167,1.4559693318555107,3.1748981408873878,6.420647754706048,7.231160681503036,-7.343402337779343,-23.0840864999993,-19.147831306800235,-9.48824042609049,-12.58128524056642,-17.128575040184842,-11.20543256313855,-10.383171065394503,-19.46652184728657,-6.99707132023047,17.25987184349787,-3.5466082009108133,-45.92710446141303,-49.69085316010066,-39.629925969085306,-35.56597142575485,-27.94299597475115,-41.98666194038857,-57.252438992151546,-30.13240142468132,130.67978799877582,551.4069519372816,793.3999871360814,141.63611441507828,-806.097476242518,-762.0911135359336,-78.13546787130012,93.88281223850402,-53.05040962946232,37.51945672563575,91.00025602747598,-5.112440661430373,10.459819825454773,54.83245474986927,13.811211901176655,4.53909600163438,17.605703412107253,-5.706945869354917,-14.724245170967794,-12.343280169190555,-28.43756455926566,-35.36111560868066,-28.589175652496923,-21.944565952306835,-5.861803725009352,19.09432106920238,42.74655892586315,63.62980725841898,82.46352138546999,102.81590449081101,125.63118770652575,140.83454739238502,132.25450018393053,88.92388478866326,23.0905607336389,-34.93752111092042,-70.87701633531412,-91.13618565699105,-100.72303170753958,-100.79888733410677,-92.69132366031127,-75.99823741994334,-54.014188815951414,-34.820961360171125,-22.77913359149421,-15.00572786230373,-6.248377052662718,3.5047634536377643,9.989714160764583,13.308641379149998,15.334588126116914,13.001185427335418,6.156155169615466,3.2529362705942475,8.389012909154912,9.928123188615883,-3.641913205101556,-19.824202311794348,-19.29186575031534,-10.136872226384185,-8.764506420745251,-8.869868736274167,-5.805766427436383,-9.952735050937008,-16.854945072648107,-15.531688500310574,-12.40271154739046,-9.14160716598633,-4.1319214192287745,-7.044044806380105,-3.129446703972989,17.764040851380926,10.733242229701258,-27.613132942630088,-41.06722741973932,-41.05706461524291,-51.108906708408455,-43.52233878243874,-40.14513329929555,-55.037688549087164,-44.11281272772842,63.887645619881226,418.9394785848473,788.2742352335524,402.65743751479613,-596.4752354235532,-881.1563374245286,-248.16382585565475,109.65762051555595,-34.77618353759823,-14.88108018190076,93.53716271919494,18.760202330076375,-8.040229055234956,47.574501999059535,20.635877665132814,-5.17384449800041,15.578320853300674,1.6937903286661928,-16.223020264648152,-8.199316416778547,-12.569638356959754,-19.747943498118726,-13.302333512269927,-7.678318145258217,0.019869964331693524,16.361018958084124,36.76092774687152,58.63349049097076,78.66620751374447,97.70964690077548,118.40236987787861,133.83200688054663,132.97667322204995,103.70998339379662,43.18885208531065,-24.21457200886192,-69.84740385036562,-92.57765749199447,-103.03729788843718,-102.71159566781272,-92.11525290182274,-76.87193113160392,-61.121974864729154,-44.34981913040582,-26.752964737966902,-12.659324642613946,-3.3430106333156147,4.104050175557319,9.55279780451092,14.473136997626744,19.42188905443964,13.78300140687197,-2.521508270777119,-8.972147948340762,-3.018887230280953,-2.3323947718914972,-5.463528544031551,-1.5755398116347603,2.658486257162748,-1.7891226017496962,-10.85381574490033,-15.137215593889916,-12.196007769861108,-10.42380984712661,-15.31568210808398,-18.703398231737467,-13.182029579287303,-9.412917596966707,-15.04530688170429,-7.4414685164201595,13.582999912850145,-0.06079196187021996,-38.7030760119115,-44.63154700002049,-37.22720912322115,-41.63273762343268,-34.92857387169346,-39.01178365030135,-56.654249326019965,-45.46796547550537,65.60262500422903,431.0736023534347,782.6452246474595,349.2750449460069,-636.8193573473081,-845.4032811487509,-197.37047847174716,112.24297097406436,-40.27243632283174,-2.1044571922296953,97.7647928350408,19.39149604889218,3.799284828818685,54.02707895555792,19.302699156054345,0.7479439165901063,23.830399948292552,3.0325274193964873,-18.13974123476361,-13.73945390511775,-24.03594998936896,-28.821183787307202,-16.213518740296017,-13.483370127308165,-9.182628444899855,13.990631724164423,40.657094980716145,63.245467534251986,87.91583571723136,110.94756866945939,127.51319835194522,141.2171207282173,143.443765870223,111.57697939193908,48.29126371190214,-16.83465268472848,-69.10029508756186,-104.9496111011802,-113.46657757679247,-99.31929357234816,-83.0033079297346,-72.08499460915063,-61.86753942634512,-46.36680044355712,-25.12944242204255,-10.25846075597157,-8.791492525806845,-11.057228895790871,-10.784562764541157,-8.820630592059555,-4.261220297782689,-1.9753943509800322,-6.032529814829083,-8.821041940899821,-6.71715428225723,-5.049078405822776,-3.501468242297559,-0.7814858143410177,-1.750853393946926,-6.0998834701187725,-8.925629203982439,-10.332739169576698,-11.27053023444481,-12.655227309230785,-14.347156321543032,-12.284324610598809,-11.128564452208245,-8.810532672076352,11.55546389398855,21.63879308458813,-15.223549603321988,-48.24202465731824,-42.16159175587249,-38.41421443320068,-34.29739857918992,-26.97781379473301,-49.552800351992886,-66.35227417151536,-27.414072714628304,189.3085124594299,640.944281586198,718.5189614203948,-111.90129165924543,-892.2958341074398,-578.0443156876518,46.7151151613407,57.85821564906469,-55.47165236381972,66.13182302363334,65.73557465675191,-15.920078542221365,29.663061219744066,45.74071002497199,-0.24626359362985362,6.624418910016864,8.760137449800903,-17.61075688660923,-13.58213356994531,-7.094877883616297,-18.000302290122626,-17.143565937388093,-10.985671416429952,-4.923299450997824,14.023770739121666,37.46858029502832,56.84223270372014,77.2803357271289,98.91854692612566,120.1455284418372,141.14905418093488,149.82411693490042,121.1970028755559,52.30872936770203,-19.04665648205706,-63.85373445015,-92.09305464669433,-108.96223889720216,-106.17425232645087,-94.65532732689574,-84.02857925797333,-65.24519757894069,-41.80915631075062,-26.96635837946547,-18.97215259500602,-13.18810289284184,-9.539156442869885,-4.184004956796485,3.5912346987853283,9.30386609341345,10.007950102674098,5.007447213894954,-0.5965452554310993,-0.38978063634941407,2.103772200011729,1.0265458523477253,-2.2819902661353577,-5.08946789308064,-6.876500804935402,-7.87102186461091,-8.383323577847328,-10.67780431200293,-16.37093751630643,-17.800545297558788,-12.50909845778298,-8.33918482652667,5.472776471823298,23.516659332212704,1.6455973087001405,-41.76877293066634,-47.106472961245885,-37.080739553637834,-35.66712872007795,-25.442115287239627,-34.98348676080467,-60.299335891734856,-55.75947457769428,57.61673180054527,441.3726817739851,782.9032590218505,295.5724906050874,-694.2269856643687,-831.7720136674534,-154.83321677516898,120.09483517033881,-39.90158108640304,12.338686621117677,99.11390789574332,9.210978210916437,1.876609087766063,55.52116502105068,18.159843562927854,-1.754483736830263,19.21201574610093,3.4763678149436714,-5.154443087629458,3.7110809173776866,-15.048232830486604,-29.534452767481284,-17.976116363453976,-9.614284925195824,0.8300163571236006,26.61230849776915,48.79521319392002,63.005408797467226,84.4893048161064,110.34956298459481,129.1335911112643,138.74016866238333,129.0911272697623,84.81976901527234,17.11062101622494,-42.114497232798676,-77.8903497163641,-96.71053415326881,-104.04001682807156,-100.37323119221666,-88.76761528911902,-71.81564526651825,-50.65978812434108,-30.737247074192247,-17.5824008146132,-9.493235701522813,-1.9791216124197195,6.730649942082986,15.457310952839844,20.01351368607536,18.160532764328657,13.843575898474487,10.66296092087839,7.880687251730989,3.73643191729777,-3.7300902588544744,-12.80519220292263,-16.928089089615828,-15.18390999469743,-13.326646870187403,-15.70225172651744,-21.519854758737125,-19.830423562970214,-8.884296275666225,-7.790930242425048,-6.581655059522849,15.095865940121259,13.49775271875051,-28.12467726678205,-44.154943318438,-32.81568923518174,-33.5595054899024,-25.327567864654124,-24.091556984629207,-45.289988397191856,-35.86963551756961,52.30105026330338,354.8909920956533,747.1112702490893,474.72065975187377,-538.9076526958538,-980.2708688962805,-368.0395603531316,116.52616539379363,15.083536358407809,3.9187135130833184,119.11306520355247,43.22161427915595,-8.11313757475839,51.08567883756043,31.871530879466043,-5.176313368235885,11.52235430476454,-0.938341975534934,-21.56497868041018,-11.820330669922402,-15.041859387288213,-24.88002290037306,-16.92329802203679,-8.066977964165165,4.951866849641416,33.87680358336701,61.99299342068961,77.94358798219648,92.64092975064993,116.13411200517311,143.51090751112926,158.785905376144,145.0989167804747,97.93723086356187,32.414699941576245,-29.41321886155857,-74.22064876842353,-98.9499089270331,-107.58383079919506,-103.15254347105062,-87.82068546036984,-72.60430795748569,-62.35763248011693,-48.01220636516627,-33.592802300075114,-27.315904445672274,-16.553348915828302,0.8782070904555432,6.685943255776172,2.977715107638552,5.174963276229768,10.662909066114151,12.813067875488773,12.929626903712965,9.680369892380309,2.1480188271104534,-3.3809866823161325,-0.8775453397441577,4.896607523588866,0.8513194552581709,-15.641796747706678,-27.534279160863207,-23.536475165191398,-16.542273881134406,-9.052260122028448,10.390205874166817,13.438715232315603,-21.213332067341597,-44.86980811760112,-38.74306537305676,-33.08179685874245,-18.32946230770602,-9.290414538001734,-28.173491197883784,-26.47509911008864,23.727238410862697,240.68303810056705,656.0193047029009,609.9987943576743,-325.7808528558728,-1035.4499655001528,-580.5277744561831,74.71458441734435,70.6251543080486,-17.7138980940018,104.38438338584596,77.1038110055696,2.7036281343023703,62.98711535551914,66.86443851752412,5.176080855808425,6.369423941511769,10.36344811861523,-11.777483533887949,-9.553538911977405,-5.347288443483075,-21.002038960526136,-34.91760691296033,-31.216147180589548,-6.866489978240363,21.868071037941693,45.157768257646765,75.50511590773587,107.21138413584501,127.1670584754931,146.0865307347981,164.90637234666212,156.46039899610452,104.56426650932175,30.809218481240457,-31.369616878261525,-73.0152685770221,-99.68726249095822,-110.95701760840026,-110.32287108897155,-103.3361861599302,-88.24734121788282,-68.38383136979328,-49.068950590693134,-27.85670526259935,-9.19621759073463,-2.0794194082624813,-1.3209102732296962,2.084887922903768,5.216697952836618,3.68046990612247,4.119899340845178,10.673248645272684,10.077697257536201,-1.0536855103481617,-1.232073381692251,8.53109015969856,2.5146334719130223,-12.462590046692116,-14.07909198437021,-5.231842471472744,3.5963230031601574,1.4564114491564064,-2.2658970207882385,20.161361338190186,28.458261168969848,-23.642438565397608,-64.86831514533789,-53.1028660205028,-42.70575372523649,-31.610056732676235,-20.110219358410735,-37.006997913001044,-31.070553186444634,32.88696609393443,250.40647866451997,639.3499671981017,558.9903625211014,-382.5631979813322,-1041.4314485885893,-525.6922387622365,120.68297541793083,67.64604071157466,-27.020628890943442,117.18586567045219,91.21153218277583,4.340022254165188,53.05799710106401,51.5010933609073,0.6205775972863732,15.074970021690227,18.55425233176819,-7.855058767471241,-14.302301161980163,-24.08812698920405,-29.419580989280618,-10.98632047659517,-4.740675105706233,-11.766441089452032,3.56980523262893,40.36406235500143,75.95575530466908,101.58802364951632,123.75197692425863,145.66840886477428,155.98204075094498,141.65944568649545,95.38444203393607,25.46060398312536,-37.13750041556094,-75.96533895047234,-103.20886668705336,-117.10331391810081,-106.54416047746204,-87.99123560069992,-78.74611137950026,-68.37012118760613,-48.97906286852937,-29.540670543480466,-14.205651719826665,-1.9329356082254066,4.697189812260021,7.307548119517383,10.115154411963625,13.46733811563021,17.915156013195496,20.80384380349078,17.973194335301727,12.064292545670554,2.24128660151934,-10.090327743138847,-13.179671925235738,-16.33609242443152,-29.654524701832617,-26.26725241462011,-9.584763041647939,-10.642163165406258,-3.9288936605012026,12.218190490330029,-9.973647819683343,-36.19066199740323,-28.206087819039936,-23.92304735438184,-16.62786996339694,-7.265537332682049,-26.62042585035962,-23.765344265848753,29.88259345536933,223.97329867277833,617.9843594712934,595.9655748675325,-328.72216369214664,-1063.1445534657682,-584.2054669707736,122.40914862660189,97.85680329336083,-31.821826989574475,107.53173738077226,97.07251427580948,2.404615140869847,54.55061796469765,63.586887266703336,-1.3717893919827686,3.161162984324765,8.743348114579936,-26.02090794470491,-26.869099443719705,-15.080655982445982,-27.981589015525994,-34.04925638411531,-24.59114591444458,-10.158238121932015,17.882614486572155,53.5552999484222,79.53968922440343,103.83403748460195,137.30496251048237,161.6875193065119,162.1368331549914,143.3838813343304,97.45859626371333,23.0717017600387,-46.70825330786099,-89.21086800004143,-110.5252501375628,-114.98482358962912,-107.70802549815835,-96.40923122961104,-79.68176498712643,-60.50902785777665,-43.9489004435619,-26.721103143419892,-13.211267025658266,-7.302849914342758,0.7160711585431923,10.20053851514082,13.448832791897495,15.625273209256221,15.335959639849312,6.483959774457508,2.7168123030939126,10.706654209996172,9.965517579682528,-5.267472387822867,-13.734237932953087,-11.183613508025182,-10.925325948682683,-11.692607259088458,-11.126906570801898,-8.685907142094461,4.703722405546558,8.663184412297259,-16.323914871906883,-32.63990763878824,-30.15019904471346,-33.994976027991285,-22.400951738564906,-9.20363082596166,-26.62805716092082,-30.620332809450584,12.26376885047847,229.83060599847738,649.2810072895888,593.4247667205296,-347.1618932482168,-1016.3900111293025,-510.95553936252406,129.36726918102298,64.47565099705537,-49.16209165067627,94.10942069635462,85.17450047569992,3.5562723944527512,47.10903439049865,47.63162468108321,1.9661882261666186,19.61495117021296,21.640960610933075,-15.040641046772269,-28.704303248690945,-35.25426909794753,-39.77846527183266,-24.25855782546958,-12.014066149759744,-4.794990087022425,18.811852547838328,48.21560104826007,72.22563479939369,98.94873915563528,123.955597014185,135.73972785539112,136.75424330666522,123.89262392953327,81.2341436029707,16.50058050957753,-39.83186760988527,-78.61848230736817,-104.34187320659274,-107.23941989736528,-89.96010736648398,-75.37665796384746,-65.9476637402579,-49.9507135398549,-36.000574351056045,-31.467828802326682,-22.16272343893833,-5.9899907184396675,-0.13200340305856884,-3.2129945373132607,1.0360207804641561,8.804991059277514,8.632612690216288,6.90236093051976,7.66120440744483,2.0070920909457044,-5.541391065683179,-2.5746217705559946,2.978463757138858,-0.25981351320883483,-5.609096852172659,-9.230103120123339,-13.6165490803637,-10.368142897160224,-3.106382264643373,-7.402798480102952,-6.557289038377833,9.041947024396718,1.7123783601347005,-29.37294036916354,-45.04669375497633,-47.34993941012086,-40.18759655304015,-27.40912097703133,-38.29944266369402,-50.86360784225297,-39.531867174521686,79.27904640632448,481.48865406451654,776.1358465751532,174.84655693365247,-811.7255814391857,-802.3525761557605,-59.90450354628749,143.77068300286422,-59.010733468529295,13.005112492597124,103.56059938802387,9.860531299835394,11.735400081451488,60.27182316034428,11.359577145740879,-2.4386647146611438,27.59769685873907,7.485992964423302,-12.737548615007444,-12.615021086421429,-31.701203174982172,-40.5312536271655,-22.09366301468564,-6.123259523907382,6.3649155999146245,25.611080487257716,46.63701544231823,69.55972613646037,95.05115743186492,116.73547301005571,129.2084076700232,127.57905867354413,102.44894686757674,47.821818788377065,-18.77007852035678,-65.52666864284534,-86.58397486052507,-97.91703676224702,-100.3515658270892,-88.33674178601106,-70.41273288429818,-54.18389638128052,-39.1404230297677,-26.082234811422758,-16.485484282390487,-10.13409286910155,-3.9245708459448068,4.427685416293933,7.776171069202675,2.4035626771643734,-0.49890992178335125,3.3115718044663414,4.912123910507248,3.1982339095222283,2.168049700208126,0.8260131288870518,-0.9019424457829057,-3.6150814292233626,-6.84757238044066,-5.730138956122417,-4.2393316322261505,-7.903630005322238,-7.811659532423025,-2.87414054013437,-4.897157934604596,-11.5308405591243,-13.583319337377297,-11.530946038066118,-11.519684802340974,-15.753458842454728,-8.693977375419863,8.656979727050814,-1.7800242942769504,-35.02152016962084,-48.64330213014164,-45.931982210223,-34.29595804748373,-22.85489541188453,-40.456425327495765,-51.198365958900155,-23.968198253481788,108.60003933487911,507.88014998025807,782.6207217383682,162.79299355424521,-817.6005513102546,-795.0750040379232,-61.49443200250036,134.31520922334536,-59.046641730330755,12.269147726151132,94.96859247508176,7.741393881737364,16.70000469181643,64.89317961276875,13.603510587052938,-11.498047141750607,10.41706820087228,-0.4925155432516064,-15.558091293246218,-20.718186090766075,-34.05917896563255,-33.53302415297804,-22.030896106099732,-17.330267195043973,-3.5708206461782463,22.582670171756597,44.95462887981954,64.47124834139899,84.82363823387414,100.67041966807642,113.29624487213677,121.1029795320882,106.38490753012583,60.12706588040129,2.3782509301379378,-42.07220788754275,-68.87112530242142,-82.85161605275361,-84.81788499049765,-79.50250470706419,-74.41666664508523,-65.79714420925696,-47.85902678747088,-29.911781341557774,-20.579036775444564,-13.337157497207137,-4.752890134983268,-0.009849615670848522,2.001510341078948,4.493063026504968,5.205742559384998,4.238695859921277,4.170289313102026,3.870744715103397,1.3336789933469362,-1.4282034648094886,-0.7370301160149388,0.2928974818738421,-4.427433550236774,-9.491960900249278,-8.299141848403439,-8.350655661736585,-12.43535923386952,-11.398426759704453,-6.5698832533174425,-5.5633159751800925,-6.054586626092478,-6.121434042285278,-6.917502057537089,-4.309669312029071,1.2253453844551796,2.593009463475976,1.0678124288558788,1.7197644805419054,1.0450541418694268,-2.5640047804717785,-3.062349294814494,-1.649467021428599,-5.538365334145311,-11.033628706032944,-7.569712024887982,2.4425592991262635,3.692667654700027,-3.0505689717973175,-2.864734867898081,-8.993805288895402,-34.61519675019817,-51.31348749475684,-50.67524537308299,-47.67579711718393,-38.837048110071805,-50.15805542279135,-77.14885985223216,-58.50367016656866,15.97708169262134,265.081494891321,697.2821832135726,620.1535008474782,-321.00653284774273,-949.6571734416499,-449.6195187858748,122.65030556367753,25.430242151933903,-68.6984122659271,77.05286629083894,54.57689637683272,-19.347640857199895,38.801391185778314,41.35424926030262,-5.716089951701504,12.215090251838554,16.231332124314594,-10.331055260282435,-8.475101746611381,-8.70112821678024,-21.532515071299542,-16.886684788203898,-8.345364900359794,-6.822245911660216,2.0898936571694176,21.203888612420823,43.57008448728712,61.94448374656206,75.67420613471293,89.44139197712455,98.58462311830884,98.43582550070425,89.72763649298146,63.836282936655046,17.956808627171984,-29.823039592828025,-64.78923541561107,-86.35267067811401,-94.19257614487702,-87.63521049574834,-71.64093816586467,-57.815645371876286,-54.25807256650402,-48.79166710250697,-27.443387513288865,-5.013025572723237,0.6392834118788713,-0.41981239838706585,3.518245321658293,7.131744099354153,8.409950705784118,11.977934058611794,15.022754211266095,12.026869672325367,4.277723769250397,-4.798219731848825,-11.943671305152932,-11.847047121713127,-7.725204140393359,-11.927194539473067,-22.576412757262595,-25.39083493910521,-20.70921251136975,-19.88387345349539,-23.54850464322539,-19.95568807526109,-5.5199829664096,-0.5292608836134072,-13.76300146317175,-16.021640736025795,-0.0975418891145381,3.196338397450438,-3.1076002738656108,0.4207158041194816,-2.9752791248778188,-15.704483964864005,-16.734802120085632,-11.188313711459806,-5.870886294424377,-8.57278254303763,-34.8728968375408,-38.318738768979244,10.891889561164877,17.929991180130095,-45.70238085824699,-68.55494203986319,-38.69519565574508,-32.04205633240236,-47.54711905176988,-63.39239509006168,-66.48840537691503,-40.590573735571866,99.69769971714899,522.443099908657,875.6809420585978,347.7977357051378,-697.3057675908104,-857.0444767992723,-170.96686945421834,110.63439062530361,-59.65596397493562,-16.766264624835202,83.68117401002308,20.322566036316445,18.53001266009384,56.60638472926159,12.545418579478136,-6.327625242351408,11.302844363982551,-3.324043961745829,-17.9396082461977,-27.090905771154688,-38.72587064497182,-30.513483780432825,-26.256218493397835,-23.883971433647847,10.049649790221292,35.303291553580664,30.54791997915907,48.22590926297163,88.67728178544012,114.19778968264328,129.3854453068082,135.09302559674978,121.85806044440338,96.40640874835483,47.87416092123886,-21.88887512226796,-68.56246657340547,-82.19792851517623,-91.77196941569892,-96.94158316021498,-91.18803967817226,-80.71965452615059,-57.930999845479306,-32.975641834174375,-29.528531142264157,-27.957595947088294,-7.693758321713904,6.362441957444425,3.520790606027383,3.718940691210186,9.485766943733918,12.018597625829294,12.98541284960459,14.62843721804024,13.980796474421222,7.061041758756001,-1.488396436255794,-3.4303943444010017,-4.923134990270807,-8.549899440888495,-3.9634015569620207,-0.3575666702870013,-9.371874460188566,-12.819164238777734,-3.723215536389386,-1.6065492621295832,-9.58122536115173,-15.882818733633176,-15.178494726235957,-7.84909470934786,-8.198027011350419,-22.83497125255918,-21.45379951166143,3.601893917707131,5.392286332083241,-14.668264863071904,-2.353179993133711,15.138740817426225,-15.513716208926935,-51.19188703433423,-57.82643527096338,-54.69049158395325,-36.94308776833998,-27.287686525264142,-36.14742204988007,-12.479411886923081,74.55396780402063,361.2157397063028,785.9037622924113,586.1113020604323,-467.0967658128041,-1057.2955277639644,-487.50550480721586,77.7128078201338,6.808115603164097,-21.33550222669617,108.88014513160152,44.60873773775725,-8.694116769102855,60.301566252517524,35.43901356439938,-13.449550575820508,18.583224976344447,15.26473052805995,-19.293660111880786,-9.816119992085056,-3.68022877578424,-22.17425976279364,-21.815919167778773,-1.3860280210719012,12.99207238424394,20.30031565007242,44.003655583947896,85.99687983510556,113.40422712881934,124.55752531113856,150.06090867189857,179.65916711577404,178.6470801355,140.39150947840818,72.33102365318538,-9.30534854358147,-73.77467146382214,-111.87159937122803,-136.6684453173303,-142.62687672955087,-124.6860964162338,-103.58591787438098,-85.23270738769446,-60.12302510059555,-42.592097936373975,-34.98860967356052,-11.985104836180966,13.830466516904107,11.757877460492171,3.0287192567838304,13.341380607574795,25.15612471494859,26.07781250634111,22.750902229391862,15.751275672304148,7.735842625055629,1.8092063634609303,-5.46300308194848,-10.417953522334074,-9.235687290952878,-8.220443465699287,-10.018252034176736,-10.467999146736126,-6.84488912898283,-2.172675898478442,-5.284807074304641,-14.694453405145175,-14.0005653872988,-4.154884828494735,-7.915980459952447,-15.513216803727307,9.743859969354688,40.4380929627451,16.61227245133778,-32.51961794921201,-51.64304671380955,-49.082580512493294,-31.68051608097931,-18.237336156910295,-34.37227887384653,-32.238552877934225,11.916590474122614,178.66249308271858,590.3755591513805,739.9962515640525,-42.24141531206914,-966.3241326632203,-770.0370158567324,-24.807591211269614,113.91019018713638,-32.704352677873146,71.81429289205619,115.24658542521186,21.83341671071502,43.39177427869403,74.94337202132067,26.592679860774325,19.96914828339523,26.095399256209095,-14.172223211210964,-36.62054319859825,-32.341240789618745,-37.286729102317594,-41.7625635931398,-39.441841993706404,-30.275549239958707,-6.844186306143655,21.459034971869656,49.18224501564001,83.97036872377099,118.4258501542983,140.54921967067563,154.7182049206944,162.80032029814194,145.3980892832718,83.4608212311755,-2.7198211405526083,-64.58650877184296,-89.48158641130684,-106.025834852851,-118.62371043528671,-108.88810770701181,-87.32109888903432,-71.83809124947089,-57.16961603208786,-41.40460863811094,-28.464907920655108,-17.127644497309284,-14.703311899400944,-15.624263561974102,3.659743371606602,28.17109706148667,23.588612139899343,8.41004537758647,13.304964971026875,22.400574733153327,16.117844037971334,0.46582223161231706,-11.189516412156784,-5.821782133076676,4.922041025678233,-5.347363776612761,-17.606522482285666,-4.466589996218914,0.2519530302139401,-23.911746029246224,-28.662294200787965,0.5877037368931495,11.501591147759434,-1.8809438073271108,7.426609514367275,22.05391018316236,-6.596255039299457,-41.564955469949055,-35.63141600519806,-15.27631151710279,-1.6994599408610043,-3.760309210832343,-28.82005101447257,-37.24839540483736,-7.030364574549509,138.70559086446582,476.26909296524684,557.681719163667,-113.28795547640985,-819.8499825494291,-585.439495785188,30.121721102277604,109.85673374347869,-20.569065375876374,64.92338920845472,92.1638351505587,15.061585729018601,37.513635048311144,58.755460768061084,11.297413893199142,7.089894030484292,24.623723940979126,10.131406939298241,4.6544237865432425,2.435528411083395,-25.176153655329173,-47.85998264570813,-45.48044749528204,-34.525196187893975,-21.05060583221153,0.2064895629637178,26.05418962712424,53.4938077575192,85.56029360202976,117.80806035901563,140.29575858772301,145.1704496027984,118.99660214098486,59.973977173804215,-3.39319493480414,-47.01624692384687,-74.40016669209814,-90.40200090836198,-93.27480180033764,-86.43830523058347,-72.93403254212978,-54.74601188525529,-37.885437655507815,-25.361612696864082,-17.237442738804663,-14.832239898622749,-12.201029451097295,-1.450601933492953,7.868622878382421,2.77773712543552,-5.1887106221024055,0.19784792612608193,9.41119815563604,8.687612868658693,3.619326250146517,-0.02755338120182671,-4.788665512125787,-6.90302249523241,-3.7540361339134822,-2.7379988540111793,-5.7446998101192595,-8.27097518495385,-11.30759482719561,-11.826028075246521,-4.563356364610625,1.5984368281257684,0.9188388190308672,-1.1153015456756776,-5.978821892556315,-4.773621863343282,8.979477397453492,2.6589490713622803,-27.8593204631077,-41.499458339101395,-43.621510425340375,-43.97067275605626,-27.58099163050411,-29.407299885876498,-53.31778636181353,-51.82786238365179,43.76251539974945,396.00090535378297,764.0943718927758,358.59280032075446,-638.9559520687642,-860.2390282614045,-170.10994140689945,167.29766826965454,-23.557212745128645,-14.369948588805958,94.31045823215544,11.844909408313633,-10.876574730551177,52.95760548268162,22.9286148983444,-6.102205419789142,13.481484055183483,-5.202621090387592,-22.18078019262088,-8.494905226358174,-13.823178450100684,-24.04148059074064,-18.48891672101578,-14.944689438830792,-4.966842904380414,17.697149997750607,39.51813847143987,63.77400810880299,92.39742607696265,114.56034595573273,129.49965428967525,137.3744867765198,127.02384860357387,90.02389244987327,30.13839959356787,-34.87377944264952,-78.78721941161609,-91.72183861032121,-91.45222564440142,-92.90940732763022,-87.80152182551966,-71.13135209871953,-54.06794233240186,-39.088750875724564,-21.255718351124987,-9.310301073203874,-8.441764565221412,-5.020653970493752,4.7187886653244675,6.59314475159359,1.3393429292314014,3.717666476100076,9.779785842878255,6.455413212668297,0.42544082200789646,1.2061385116456496,-0.24853896576962065,-9.028978982495708,-12.171307172924429,-4.549861926855075,-1.0682718892233485,-8.968512746080513,-14.12883346129356,-10.22090691714752,-5.9522459797163,0.1795365288237516,5.436888788155856,0.5918755062019523,4.699119246990239,18.228156951758894,1.4276828252548417,-31.181240881536894,-38.63357154055957,-34.199532177893474,-23.66620328345607,-14.08764054380739,-27.271870000816957,-27.728693968095364,4.861553036219178,158.6602880577339,553.6812539019542,687.9407411382166,-78.54483045055755,-952.7444731993867,-722.9131279850154,11.015378064094357,124.66650220841586,-35.123503148260475,64.3075790942071,110.47132056876619,23.003497752930137,40.763013164081784,65.3562922253574,18.494801321995116,15.669271978673969,27.402396996576428,-0.4728361143135258,-18.946828292656548,-27.72676074810559,-38.29586066293285,-27.15597134780532,-11.596619544542698,-7.381114040516508,7.005174256714554,31.126208691931783,53.658303418090284,83.52118652683485,116.23737184742699,134.5881615379899,144.30579064060527,151.46465722707183,132.03881694961692,73.0310529585438,6.0524924909717335,-39.799359747424035,-74.78137057060187,-107.31729473558582,-116.9698000383419,-98.81192458761916,-80.8781803987852,-72.29103393638422,-54.01401215193666,-28.68324271226084,-14.48020145257416,-7.337996499367767,0.9938539246636751,6.342899168075501,7.211161924754668,3.26635111332865,-0.05704899910635852,8.971862928344475,17.991310438852743,9.479578617095068,1.3865146013405418,5.0434369373161605,0.67771221090638,-11.272899434477832,-15.625708735580154,-18.522956402384843,-20.749664227953687,-16.239132134108726,-15.602493135087169,-15.113755850557247,-4.093428315749634,0.41140872248778515,3.306686500113522,21.48844959508923,16.191775016772127,-17.974266169935166,-24.30627488076203,-19.297672222293315,-34.112692861761396,-33.44593718369923,-27.40609550142276,-28.019793638568764,-2.2931415575773286,91.43576069725833,393.24110203395225,704.732651945176,279.0380776222977,-732.2350863102423,-965.4596559622908,-240.05464862923458,159.6422696799122,1.0688287254784186,18.51467682378318,135.76232840243458,54.62588355770788,20.172106961029392,67.07860094940635,25.291234000054843,-2.3289476579270065,26.161614576585567,7.984276769557722,-23.883436344896904,-27.132403652936127,-30.603622734862547,-24.995038739355568,-15.119151380756255,-19.717075372835822,-10.341339359848877,19.79165794314642,47.24548219711829,80.40870027083153,121.63124537372714,145.89271286940675,154.99497621321345,165.15904486693358,158.2288638560214,111.42623432448863,38.23552309770116,-32.87566977960415,-82.71940832797424,-106.0230611408327,-115.26463473064817,-119.40423947964732,-107.4463818351286,-77.7887111882248,-52.31484743799623,-44.96822655960399,-43.621871011200795,-30.48485886552562,-9.455685026531949,1.4941854838988107,2.636238652240479,6.998685414447227,12.290259971522168,12.12097751672513,12.146357900765674,13.858301140417954,9.82898062208568,0.47238206828405005,-5.1345444417767325,-5.541030379361754,-9.493479459650729,-16.453670864526863,-16.49227934718407,-15.17077093538924,-18.259060133329307,-11.757784193295631,-1.4071848067303536,-3.482069372703714,1.5425730104466497,9.931797687038285,-12.861294603980419,-38.088446278342076,-32.57689223308698,-24.55103515203512,-21.144500656201377,-20.92679912363722,-24.920866726720227,-1.7483995033875424,56.263707934865366,255.89853784878227,618.0197086656367,522.8099391268688,-388.3187534491449,-1017.46643512944,-520.7285272106719,105.50020916165244,60.965305015166166,-28.714195759481584,113.05203793421722,87.43248185483472,-0.889965509486629,50.670431734907325,50.807105442069684,-6.428448560394221,11.154303660139092,19.82828713144019,-16.43127126167907,-22.213056840876785,-16.686930253335035,-27.6792595046082,-26.65500968736758,-15.099041172585821,-4.618078717905352,15.315522456060574,44.41570796708868,71.47013817125266,93.64616307877695,116.96116290645212,144.01991333101236,162.34980046203896,153.72261376202476,110.40357413254642,42.05133997931853,-24.989372362611643,-70.22678696529897,-97.36623975243097,-112.37800459207097,-111.23829561132774,-99.90703672703509,-87.05406838532672,-67.97447163351882,-46.281172571805385,-33.59196349632853,-21.99322282174605,-5.641273935419839,1.4472166711240924,2.6549132092768133,12.683975609977166,19.409965063252855,14.110014786865081,12.721619243760735,15.726669368916811,10.882870398418069,4.851160109625962,5.66711168875716,7.73773288735889,8.338532545176541,9.389713739129284,7.363974919062054,-0.012909150928720692,-5.968725411286224,-9.816940803448942,-15.47898769909019,-12.605413637095106,-8.2075577042095,-26.826728747960118,-48.050672247944384,-47.37308082551095,-40.547730673241105,-26.425011517231773,-15.96600586293767,-28.994107620347933,-32.73635737274979,-12.821819666376314,137.1856542617416,515.7381368085535,584.0050927045233,-183.83716886724596,-898.9604758852768,-550.8450631683872,93.07047757290186,97.84429452846089,-42.58412545746093,76.01844647501791,89.069003341603,0.9211131437123967,35.8251425409685,52.69449590560285,6.381375373688272,16.41044317475518,26.328853910038376,-2.6234729379418678,-6.0587922000761765,-2.3717446963108486,-18.220784988333726,-22.729125732877485,-15.787438073756354,-9.866776601817667,1.7695686381359437,17.616572119817704,37.88256690517176,63.97722233800395,84.93019564974371,98.71486259698369,111.67897301754323,114.96438962096272,93.18568669081043,45.882367746104315,-9.145877563963964,-50.94885735241151,-74.62724644954122,-86.2683715292469,-85.8521152948847,-73.37825538831555,-58.17430344815467,-46.194321044656334,-33.31475055085744,-19.055602204546684,-8.792888939003287,-0.4500776427861979,8.348574521182545,8.871036607022099,2.251279642807221,3.262432295119549,6.879701357617396,-2.2039399773359634,-14.859215248303224,-17.99148644364684,-15.978995268524589,-13.380051980885641,-12.571915198395313,-13.191812263938239,-7.673736265241287,0.03356789179707853,1.2182515598934618,1.5028651975730396,5.990194911031464,17.191209453502175,25.544728749840107,3.1633730738141477,-36.16192825385696,-49.92327096836608,-41.754165303515755,-25.189973549524225,-14.855374148109803,-34.36022319858502,-54.491158779198685,-60.37977396615676,25.95990348911087,388.33991923837715,654.0372597260674,89.27911015534501,-780.3146404087114,-694.217689449813,2.9244330634207074,150.42339127245003,-38.80983053953932,39.668656434228616,103.85931157241797,6.400984095444656,16.320053336729217,58.64093325413098,9.071973564620517,-1.8064514208368223,22.043804651963605,-0.47138544073425503,-14.02640235984638,-2.5896278721208237,-12.082339037431165,-25.815426144985796,-19.258142531078967,-5.507391055107734,7.553094225024875,23.8918170284416,40.719526467033205,52.01759631898069,64.25174362261924,85.30269600520245,106.09258723593442,114.30866092598242,98.37522974565307,49.475017135059844,-8.401706411115264,-39.83619313907742,-51.41726686147741,-65.4684565562357,-77.26680483566645,-75.73460692556009,-61.2580425046815,-39.79176805096551,-23.46111247502283,-19.592322130432226,-20.2943522691517,-15.202875904506193,-2.9335081646407417,7.87324055577035,7.136952541011876,0.4816678968233905,1.8077218571837292,7.948218097459301,5.507496953219466,-3.5249073500375836,-6.973341838615735,-7.747421981127868,-15.527218714950344,-19.91776248688576,-13.945177505607184,-13.501928472209272,-15.1952523736282,-6.627257042251683,-4.236723844555412,-4.380119981712522,8.56216255375506,6.426697697224479,-15.777011227179369,-28.773979528725214,-35.13993575903681,-29.263160484789786,-17.597934029879575,-33.73914518470713,-52.484508189914955,-61.39343969067302,31.678706847929192,423.2713436850985,687.0102140403529,69.71768401885763,-807.7733704901079,-676.3243692458487,11.714834695944013,116.7914843599348,-61.342335990086575,39.48512727644708,95.69189023298601,-1.41385599908722,13.196474150330214,47.56048020830301,3.27562140037346,2.1165451456016644,17.00904815626595,-9.445203422610522,-15.125598610125532,-7.892163689701263,-22.04164051436244,-23.624949082850982,-9.906274346084667,-4.548374125139562,2.7941901962042017,21.415942347191717,45.45342575603091,68.7747243054662,85.74972716203563,100.15374015980701,116.18034785095256,122.19448883420631,102.4827304249772,52.4545097590411,-12.579653708290547,-62.45057401742936,-84.34084024642226,-91.23430206661574,-91.35771330977107,-82.4595623370683,-67.64668129359566,-51.91860833796879,-38.38092475930638,-27.99175308427673,-14.322274016561032,2.8285304572704124,9.705787432294969,4.93429090247367,3.3855414014232146,6.827908179701475,6.2173546026346,2.855012023952879,2.15340689345215,3.2676830928189187,1.4878479483176505,-5.733176274235721,-11.04281830490057,-9.81485406068925,-11.575593176909663,-13.764011366686871,-7.748499460227279,-7.392728596548662,-6.664529561528344,14.03552813281847,16.468825034597316,-21.078849020190084,-43.57977960396071,-32.29827246608738,-12.862765638284564,0.058161508338498535,-19.490471179682373,-49.33178170588738,-58.10595826752584,-14.844989910057748,281.19336510739174,680.4497776980083,364.38592284776644,-617.1623440226692,-889.9000900843539,-196.14868788213982,187.97318442853143,-4.262883654919655,-12.196779764794904,114.90277605409017,37.73156299649739,-8.243003470843547,52.06541381730315,30.996654186902003,-4.561285732637549,13.617478317282707,5.284142670662603,-10.911850206590735,-2.978285220702554,-10.001085780059896,-18.414279207182442,-5.975801062122244,0.6261106693040119,1.907921157171259,17.786303745333285,36.99602122763274,50.555989032112315,68.80153465107907,90.87347729271977,109.23083513524243,121.8413861697032,113.33952299830042,68.6893382733016,7.793127347458876,-39.3860492724681,-69.61209567803058,-89.50263978027932,-96.64825891565303,-89.12206023387279,-72.87938407678129,-56.43379188415372,-41.21239227402305,-25.634238093336883,-14.973192499570118,-9.518038577692465,-0.9935420876651531,7.3810818292970755,6.7458395235732205,2.757981673754905,4.217046934175132,7.6381358921248665,6.698039091519022,4.676994596703664,5.866431223345014,2.8698138812098737,-7.633013853006295,-14.663313083703272,-11.937291656737685,-0.3513006837442578,8.362076340620657,-4.509432315704242,-16.33010955363651,-1.5743017398291475,-4.270171008135101,-38.13399592787639,-48.51155353229965,-36.154460882176,-26.29834466429208,-15.978609903466449,-22.94309792813476,-38.43810562677028,-49.36651633663237,21.74668607437036,384.1804823932982,718.6219297782477,207.78021140450377,-759.8877544419065,-799.7164556539359,-64.87905685891712,170.89841808211304,-31.45825003648099,23.229551979014772,115.74116048371548,22.57487911759285,11.177037918521116,56.32781318809367,14.490677501487164,-4.241737372017182,14.702470650275387,-3.667274069082099,-19.639401124630552,-22.33656463489801,-33.54444644951337,-26.310731002613288,-11.642641799349343,-12.727825922223705,-2.681107258182511,22.634062576735317,43.84266968096314,69.17283703523874,96.31653950162824,109.27994850696791,120.78022085899082,135.13870218791098,119.3640046606161,62.339895043580356,-3.4138962356125324,-53.013471362314505,-85.3073826382132,-99.79341827154168,-96.34987417058043,-83.32809341967905,-69.93934420613328,-57.99660730191408,-44.30572726398479,-28.26437731556493,-11.927377809172398,2.5648113715513414,8.887088365717066,4.170937873190301,-0.3277709593328364,3.7574426504193363,9.29272265061008,10.965185837185071,10.612652729284777,6.117420877287686,-2.267740018108407,-5.187178780632278,-0.613041981719979,-0.41188861221506734,-7.653456138474889,-14.656972124940474,-19.320657016053502,-9.1251663497748,18.749363981407566,19.110634018673387,-19.958327496467586,-41.415497593917245,-32.20092801613338,-18.603271863764405,-7.07168831841154,-14.318810670461396,-26.546887740532696,-26.095584595117714,28.140850602509403,333.7025155663658,694.2655233662066,297.00752582300936,-710.0608952416235,-925.5892416205256,-189.78826675943398,189.93473771129422,12.073807734582413,28.433874192735605,143.87998994693575,54.0116530550173,13.434018338262675,58.342387760544504,14.789682819691528,-15.32532739864348,11.374772026650923,-5.446568496433408,-29.489000420074643,-20.367362105387073,-19.732556549700863,-24.422062349029044,-21.375873793249045,-15.061013616986548,6.326862919827555,33.95376436822011,53.443823157324175,75.68437391364071,100.07591652255198,120.88516112507823,144.8314022000894,158.3685027849633,135.0223835844449,74.05297737363118,0.29406506980919556,-58.08890162660633,-90.05523641344058,-100.57022154827416,-96.86278609826414,-91.19911450121076,-86.96150548282642,-68.91581714972384,-42.8331528858665,-30.064975328468897,-20.040378018509706,-4.284348602399387,-0.9695366963134155,-2.1292202344251976,9.217367555150219,14.322387543440692,6.057673921845221,3.067994447482522,3.407336929378431,-0.11777627236832267,-0.12151282524902385,-0.9489061981396816,-10.152909927752964,-14.759622765321073,-6.386450205356161,-4.723136932309019,-13.796675339597096,1.8890385593320742,32.28972284685393,18.312904595975716,-19.904710586670298,-26.085389464716624,-14.978913668729412,0.642543286562681,10.240636209805505,-13.350393845304218,-29.358310436112617,-16.108614447837354,99.61713401592124,468.91520629074546,640.1090851771579,-80.25222397164868,-965.2463237415373,-740.1792103274079,32.18718449928599,153.72283798163937,-28.521113319372706,76.5591556371542,125.33862656269793,18.574917679739563,41.43603359258594,78.94675703166146,16.134151363631958,-1.0684695680110572,10.898399139805917,-18.843020133803343,-25.75059807893944,-13.655984760792851,-29.227348467579294,-36.815025164968716,-17.93237862726232,2.019592198043373,19.36561965073672,38.89148966237796,62.14069471820865,89.56826618571283,110.56189224576687,126.70714760537288,148.70613373385586,153.18881975480167,108.69578576117996,32.90363376305922,-33.27988751834802,-75.9365797217552,-99.00478035411227,-104.83785045317566,-101.04097944724776,-95.80379749567884,-83.09425456694579,-57.68612880784375,-35.60478905533356,-29.907271808175764,-25.571579658728027,-10.309017785097204,1.820232086042024,4.108682958395139,9.769955521933039,16.42177099797781,10.60285436560599,2.461684818815254,2.920416346912498,-0.5820756101586362,-8.395324528923386,-8.573962629221192,-8.41396847366636,-8.667136058253092,-2.044384044296251,0.24899008889979202,6.980228262080689,28.49018503787962,23.389543462121164,-17.20729175679932,-39.97654735375278,-28.504379762145952,-7.260626669165273,-7.147612991597511,-27.273204705451356,-21.912060390239564,-4.83935472420886,104.47996361185564,474.8029683752558,629.7936329330794,-109.70741148096494,-971.4577345160787,-714.9215330036809,47.38805397331453,151.4357383275384,-25.825778018947418,82.21202446584445,129.16509094729588,27.847650908968248,48.55632109956342,74.78538075032351,10.536995899913208,0.6347217761416424,16.233858164449533,-17.54613125310963,-34.70608014056394,-28.059885845421032,-36.550879557480584,-36.90867088144799,-18.553714206920784,2.107790625324224,20.644725057141844,35.98321420757152,58.81560967880454,92.98597987715853,117.86444550804228,132.41891986798151,145.73226333926016,134.83161898649502,88.21519144967375,31.2757797673264,-21.543159265775063,-69.98137239947413,-102.4090539291536,-110.53490585227395,-101.13663921713795,-88.48099946513662,-81.08564203402254,-68.80961054515342,-45.07383638116296,-26.01898346401898,-17.626346924155097,-7.603551800309241,2.995444866891603,7.642363477132648,8.336670466206312,4.228255424595169,3.035887255173078,14.213017442846414,17.442886526320102,0.1524588926811532,-9.84755496666692,-5.573719134295468,-11.126906938031109,-19.717163813764316,-12.290604876834289,5.549820338075932,22.00361629983372,18.009655465597397,-8.941905761352897,-23.65755853456952,-17.009622194581844,-6.4624274891196265,-0.8576068893201771,-19.47038717230361,-33.84125980565049,-15.49390673117373,20.391510001319773,244.4309246318598,616.9672354202953,378.31211524597404,-603.8914104692772,-1001.8288926000835,-315.2750722984354,197.5368240367199,41.46551940074315,-7.205424692137324,136.43348264237835,78.76183595683011,12.105933104913689,66.95536552794061,47.041024218935256,-2.3972848361894528,14.565917568624108,12.102060501237313,-13.77445215630955,-17.26868576147002,-25.038671542126366,-32.22589606950157,-18.80081089231699,-3.602250314830423,9.814910013519395,29.07323544917832,48.816623620015974,69.94779355079338,93.84797179129129,117.68312956542108,139.35140783415227,143.91829586465917,115.43744965686514,60.320386531893504,-4.632767252076372,-61.807412185305104,-93.71714910642301,-102.10701841453468,-103.28423244953032,-99.83868506089598,-85.57392919822999,-63.53100520920171,-42.20633555839464,-26.589138037269368,-15.228405106401368,-7.753247178906115,-5.979697430685031,-0.14867804392856776,13.745188890297449,15.67903031498102,2.6288017351076416,-1.441207338741771,3.9542350637266424,2.758436053364143,-4.227926913245259,-12.97786756368195,-13.774915724121971,-0.7391191211241033,-0.5396959302112612,-9.475665973780947,14.26022319216231,32.97855211430836,-0.9205579087348921,-25.55297753193142,-17.89912577280574,-23.465823549764828,-18.34497467192842,-5.952496512927806,-24.682713402550284,-35.35781573253418,-8.786702707713118,184.1945871972095,579.7028237281987,508.18052225971803,-406.73295223816,-992.5485148849657,-427.4213670792303,183.53335605747577,73.30706710144821,-37.154355728736036,111.66004716737325,86.66678606996163,0.3902427650817586,47.29568242718331,41.92986719978059,-6.820896430614517,11.035294409018494,10.281421560729807,-16.67160695918947,-9.746879296460538,-12.215866792297723,-28.95349873865834,-16.543789712794048,3.8037026671368324,11.955030193082212,25.569185166597183,47.332671969896595,70.09302424950432,90.8066817728436,106.94189069990082,122.58454181132686,131.65541527081163,111.28695864161784,56.95135340770638,-7.11573888474224,-57.78019713714418,-86.5568020954788,-95.3001205031156,-94.7620255487185,-91.7652652195555,-79.39624347024858,-56.41426342771739,-37.065690016154136,-26.325522901910496,-15.875714548174066,-8.279152992344347,-8.01543559210522,-4.151150370512674,5.401184859440757,6.715083964774198,0.7582835216621984,0.29478516323142756,4.093012380456157,4.5053340777979685,1.682735168178855,-3.059466107018384,-9.284738184382293,-8.600785773059737,1.821967692501893,3.028881638723113,-6.735194265139615,-0.6362188141965728,9.038789138244821,-9.597543651906552,-34.48775890219015,-36.41843487060156,-17.993653056598923,1.9477931490486728,-9.071686234147116,-35.18059206497014,-46.814807003308985,-9.010172980194852,267.81158647724476,652.323057430114,364.2567576002018,-590.9646327479976,-886.7139647243972,-205.18802152272556,200.6324987323387,0.7091009596687385,-33.12364598333336,100.67474933696577,36.89915795354563,-12.033313367017854,50.214029594086576,33.542209442620106,-5.947113541800162,10.238349665645899,3.2215510207909235,-14.536340008866784,-7.328854299568488,-12.865811661900345,-22.635914295133308,-11.654167366119502,2.82492320715739,16.640619739141396,35.554657707026976,53.51763442524702,71.63877374535052,88.94819186931059,99.7751611883502,109.01934120544679,113.50936305851245,92.50753551524176,39.72533382666318,-21.519607764486533,-63.78055209482845,-81.74851768510985,-87.56560812167422,-87.92971783119644,-81.14376946008761,-69.79821439198423,-56.40175756523299,-39.56376639869482,-24.90784295028969,-17.858098246224085,-11.210084369665687,-0.8567209549390427,5.544099208531335,5.652503187848975,5.082572468434725,5.369677886426451,5.623834783928954,7.14684376636791,8.845951352052872,5.249203266980896,-6.0135819206348735,-16.902184732596833,-18.800644147171408,-14.16814096714899,-6.65938244310086,-1.952079373096863,-9.526925856496312,-11.26165068737495,11.458210679730707,20.489551381195632,-6.836703470293006,-29.6051522839334,-30.02896672831224,-15.94910053085923,3.626030203512162,-5.981228789936225,-39.192581602973696,-71.20247943884664,-31.556278072370972,298.6128172587654,694.837311844124,318.9736109088518,-665.1283310831711,-865.0119909396266,-150.72032742935994,190.00842598592533,-9.908450765878376,0.14382009446384458,115.99356909504246,29.33175109780415,-5.645834042564502,54.20319015071206,26.416277965869522,-2.615847816984763,19.145044540021708,2.491319536642207,-19.68407663059987,-8.97474479454999,-10.17022639947307,-18.512663640084128,-9.866684851980825,2.994588097353475,15.507943723049657,32.430670455668725,54.88112762989468,79.38086152080012,91.24736013473061,92.87605845489588,104.51709363308925,114.89796962500795,92.46194348695141,38.69880387668524,-18.888143171198383,-62.112678741967926,-85.7339483800341,-91.05237929120835,-86.06433294051791,-77.9168916273587,-65.89755166650968,-50.63446824432574,-37.841029788747754,-25.46101744778439,-10.480039971663903,-2.535191965191249,-1.9069398533020205,4.155987638602387,8.318066970761198,0.21234788361761225,-4.453607819868706,-1.2997707971893728,-5.063242634759257,-8.394158002996932,-2.2514956172201064,-0.3489395622317808,-3.857839627815464,-2.8972492282349283,-2.738285962170563,-5.591701061262077,-4.985734393520943,-1.8044802098330237,-1.3454719001717255,-6.469453210009307,-10.139924957765611,-7.227784705638573,-5.999821810203304,2.8894161601256694,22.048006908192228,10.020797323763594,-33.51354023940665,-56.08344601599707,-48.44772276567632,-26.53187653239843,-14.154406890473204,-31.84782330127644,-44.00194392558909,-39.72954762650609,79.88378098311685,499.62555346329054,743.0907233821165,44.3788085791341,-895.7494911692679,-740.451665113214,9.450784259464044,138.55761038429065,-48.427607003774014,45.64232977977664,100.86955064276208,5.137429119583663,25.754386388542642,66.52659688364554,21.175435637942087,9.303202847357063,15.521055223082922,-6.813971023681461,-6.7124249247727334,-1.8620739892244655,-18.883963852759088,-24.49066555070047,-18.786667602836943,-10.989412202520114,10.16098849112911,32.15217673144278,46.650225106049575,66.04795024001808,87.72962099131654,104.73539647605068,119.65920501360864,124.05309960653892,99.73018593330924,45.02657186885145,-13.56162470979968,-50.03484907348455,-72.12988236674857,-94.08821033849082,-102.8813917993894,-90.95682046843812,-75.33635527327891,-60.87959443873856,-39.4613178360475,-19.79987750659292,-11.243118984661386,-5.776933736136016,-0.04835779327068224,1.3559531991903953,2.3194290456268334,4.713450347931129,3.051034718158439,0.5595117761478487,1.68173654011086,0.09976513094966144,-4.166915715066157,-3.1090512198258313,-0.3182328218396755,-2.731567561980537,-5.341695300496389,-3.504864053118556,-1.8648412586784957,-4.414318483802397,-8.666698563623768,-9.802977041376707,-6.642696497754945,-2.6602889207184273,-0.7550026334411379,0.2889905198226428,2.725998033585543,4.304889475421478,3.240567809394396,5.740999655127691,8.613121284064915,-2.980902260822976,-18.219941360160455,-18.238378931186002,-17.331625332178152,-16.34459896529529,-0.0293922603363459,1.6736490776220423,-25.04791670079707,-43.67004066129496,-47.59494940885182,-37.47191153274436,-17.32375327252683,-26.70638386169865,-39.172398614342036,-19.224026149639734,69.44781075137351,413.56406164890956,762.4999683766555,288.0835829352791,-743.8156651107829,-899.3139331518934,-157.96642850946412,158.36274134231397,-34.31003730196969,3.5614359295765965,115.6840203255326,28.1087768310744,7.931820818845303,65.09793230863897,27.698886469017992,-2.4200998607531634,16.14779619581656,-0.8080623902688227,-17.84626728920594,-8.618044886745798,-13.559735650801262,-20.02479649516134,-12.626406724512204,-9.712258667877045,-6.71575968616218,8.746826673483767,31.564045960079568,53.82243841694079,70.85130115551313,85.34882918890767,101.4165869245875,111.27298890993536,105.12926447736366,78.53736450692375,28.895234260116375,-28.668475409571474,-64.74901625485857,-76.84027738990395,-85.71813208926677,-90.47967305632451,-78.8994249670825,-59.98007965698578,-44.57980165657644,-30.33257641369245,-19.05826915928604,-12.33249661994077,-3.5729402770830294,5.2383541976857995,6.679876447189713,5.633156268198832,7.662266738751985,7.822589891367366,5.935604798204351,6.955346294674298,4.652435820582404,-6.311932759082767,-13.76082216413239,-10.843434318967914,-9.566109793782026,-12.326938251062737,-9.282652091157571,-5.544052726561338,-7.3666916544398,-4.625612071081738,2.4549082436442813,2.9946339839233467,2.0885792194449433,2.7704168635361484,-3.807284488734263,-8.91372721071357,-1.3896049278250668,4.3912321171478705,-0.690428897869511,-8.370399953849056,-17.373309137591818,-23.27328597073885,-18.734396731683148,-13.175444267249723,-9.769659866483902,-6.493246338879686,-15.937363548867776,-22.80485858333,-3.834475566501414,5.386349616865613,-19.47403159027764,-44.71678736234247,-48.64126782328414,-31.191074351477234,-20.53386485974118,-43.13903390838185,-48.43034733218282,-21.625204086316444,89.39129356599645,470.10216829169724,750.7688358782982,147.36044540261233,-823.9334386888929,-797.4172725842446,-57.812053557784424,145.35337596619814,-43.06174326741221,27.87708921110825,104.0285431023324,8.494891458169864,12.563832220301919,61.68245604317271,19.170629771886148,3.1280652058174923,20.556494109715125,-0.7285570282281686,-12.3684052824512,-5.734525416568198,-16.649105763982284,-21.33905179232023,-12.991736716052184,-10.145091911266283,0.08659549709640046,24.314756794170297,47.256490211717804,62.81047530780444,74.65923727750726,88.72744724403975,107.83433258172764,124.479516483091,122.80477353174925,85.98241348773725,19.553629105265955,-39.53286687108551,-68.29005733243045,-81.63534641706411,-91.23107144962704,-90.4982172095928,-79.92247697650569,-65.21901183794225,-47.78741699386046,-31.196252485406273,-17.85601545856266,-7.126228443038116,-0.3260200648963725,5.294921887996301,14.343655839121638,21.23386304178262,19.139907674142663,13.341388406981212,9.4192638385878,1.9409001559753456,-10.493433339652315,-16.233947137614912,-11.825686071290772,-9.679804846879732,-13.995715640631769,-16.628147935238648,-15.250033242910288,-12.144333412927933,-9.037725949310518,-10.383689379331305,-14.510762608359759,-12.701656008092431,-5.444950488836351,-0.3553570876963974,0.45326666117582093,-2.16440701333544,-5.747231868208646,-5.7509732318095,-2.567343856666689,0.3360463503800677,-0.6149026154504877,-7.630387950177699,-10.28098438501526,-3.814781238043044,-5.73077169778909,-9.94964526307188,3.694961299984408,7.163165625443918,-19.60914724089625,-44.69523785122476,-49.973812363716696,-35.37303232022018,-21.665730875219808,-40.93697612524542,-52.36139579031848,-27.574652245118997,85.92957682127806,474.5728965026484,810.3587561402042,264.4078423809585,-771.7191900838616,-865.4094946967803,-125.40061577859682,144.3870921738404,-46.00883544966156,7.663239177199426,106.82858420085523,17.68051474826562,10.810672219699029,67.56037704599439,25.2821083271144,-4.117843823164005,15.87352256100662,3.213551750625463,-7.778859371336518,2.185260158991886,-11.952678248889915,-32.40051199763495,-26.799709812202284,-9.079507747344248,10.816284994611966,33.72260102793234,49.33558168445559,59.592723589332934,81.60345678638362,109.56852547475188,124.27738775178824,129.10079197391823,122.29079496634509,80.39746901276318,11.194896983555969,-43.60585386393229,-70.86311191824079,-90.76627554710893,-110.76922162420547,-117.59462002071807,-104.69532802298745,-82.31457716210281,-60.65595553206906,-41.08860827670264,-25.98198683670787,-18.05668827133275,-11.301703018216774,0.15981972507202968,10.371764328442303,11.384989870233102,6.888463142308872,5.859694562757987,8.131714419752665,6.663235446225009,1.2254973779849987,-2.5851445371978077,-4.9161041581662825,-7.861278470775657,-7.322037963751111,-2.9200117778129666,-2.2047449535702555,-5.76173293962804,-6.689498884033444,-3.89487256754769,-0.24947549974698546,1.0530065289501902,-3.950009074538647,-10.191863535709434,-9.524497076868716,-7.575839658388885,-8.504594745808808,-6.730798769878248,-6.059872028135841,-7.297691981267773,-4.0016971446557035,-6.955834457455889,-12.880394160070223,-0.21641690827754534,8.161570957872382,-13.594462377283019,-39.534747182559784,-49.47695271138848,-38.8313796598988,-22.408569829753873,-35.852991520589626,-45.41632890695703,-22.356034362024012,71.0160087879326,437.05978455457404,823.0381405100869,361.69163070870866,-710.0601235078003,-917.2928837051178,-183.0187039266543,152.84174874488247,-38.648508634552144,-12.425511682084643,95.9579052387833,10.640603599221361,-6.365850710765727,53.52481346542481,19.478405721499527,-2.9786290539170874,22.321953934856914,4.341709280260877,-16.721189875119272,-10.236642246899248,-18.733526377247834,-29.021650114360067,-22.811410399489347,-16.534943994366927,-5.982179879231904,16.03674364236356,39.41553877544831,60.491672501029356,82.79103678878924,105.38498044182444,123.63233573371193,135.11025583839623,132.3068021730163,97.3506828085328,33.33189821362444,-26.180795940002803,-63.41120077535752,-86.18177738496027,-97.73487954423376,-98.96804734793845,-90.76858015811011,-69.17291844141684,-46.46478451453584,-39.239465755310604,-34.52679841629339,-19.324132172738032,-7.099278539293412,-2.1172159318075963,5.733228624709277,11.675021820837063,9.724418865268674,7.929221201223264,8.167258023784614,5.252038094920154,2.3629599152606833,1.8397635762770834,-1.6085110067347266,-7.019295688924721,-6.979982726272701,-2.339714047582472,-0.3822161924205556,-2.8621011792131252,-6.655013744831182,-8.101266161098724,-4.147454235943601,0.8165931858412074,-0.9467508137195821,-6.2928797675391,-9.766414434041215,-9.715505973468076,-0.8963919548724801,7.402695839516679,4.666979034826948,11.440851224976722,22.358296774078937,-0.2988072364931931,-35.836032856558354,-47.5009312294332,-43.920975134538224,-34.58431852036876,-46.815345058337414,-76.72562392894677,-63.718469847879035,-11.513715215713646,201.01937160162936,669.5868088836467,717.4306823291589,-202.2808451844594,-978.0345194345036,-555.25494099629,104.2252673223229,67.2317468825662,-54.04626607982141,84.88207518738619,74.97490232361424,-10.452720157128946,40.493951000754905,44.13233535423549,-11.563170609430621,4.761254187332014,14.709131924109894,-15.820135884086618,-17.470801449520692,-11.7839740936092,-22.900757005301926,-23.313201601515228,-13.657196462028903,-4.447792425277925,5.796974188623597,20.259484222018227,47.528913886750715,80.49322170801068,103.8045592395745,124.66625780186725,146.65954915209903,150.08164634715513,122.44954071052119,69.57956639503523,5.6167462434187865,-50.011448309206834,-85.87559015288042,-104.53472536774679,-108.2524125491826,-98.12014219844932,-81.4326153601739,-64.00078678655201,-47.550888536225486,-35.29084897458709,-25.542383440179677,-11.210402575154594,4.634081128392573,11.139392275130227,9.389934722527904,8.160009518558894,7.492100242184422,6.3732246427672745,9.701298586829644,14.626758770606664,12.085188223250029,3.652004234010915,-2.3254256828091346,-3.459361193577503,-3.374832317959589,-6.792772717789985,-10.654585632266905,-6.818496736435271,-2.058314229349655,-6.072515881825483,-7.93530810924905,-4.257063321241018,-5.7431816757097645,-3.76432672598734,3.8659638901177455,6.05509770992202,16.344551914264013,22.96590734020929,-9.686545311223112,-48.36304198853451,-51.76956660479834,-35.55664179327263,-16.4676018750376,-23.1823469575127,-48.06775551813428,-32.66090311752227,35.09687751746745,286.47863681529833,712.3190033170736,576.36903301147,-430.52405154786067,-1034.9690494821907,-461.9100087196833,135.7194002275258,44.59350346462034,-29.121264264665484,110.263494614366,68.43416504377956,0.7035338944351963,62.508162727248546,52.69307990891393,1.9634280153754062,18.73096899686614,13.19871974956343,-18.402149660048764,-15.931272703971253,-16.61707758804329,-29.69254676208287,-28.475562520280793,-22.42436773401425,-6.545041815910462,23.485428957998714,44.905612527923324,