ECG,-9.72756255086407,1.3429631089458045,4.831040380104978,60.9111651664749,76.65041005549313,12.02899774036354,6.912545167482175,32.75620466629141,-5.519918919051173,-24.21012035925122,-7.668734689461088,-28.726525528655102,-47.68808234717483,-40.23451313860214,-46.002191103025,-47.501294722073695,-30.822573728717913,-16.6139604019425,4.711087629902462,37.48622742696411,70.37254240357636,112.61351359393177,157.90359207387124,184.3222227292078,202.00567170791032,215.1537465178323,184.53055142290074,95.12260940936969,-6.927681712763878,-80.52547552762346,-125.07276008891796,-147.69905840325498,-151.49785873854515,-141.63845072582814,-120.35643497043277,-93.60112986830833,-70.96773914260919,-51.42419703340056,-31.098438977669417,-14.20770577831227,-2.514754763758784,6.6941443728763765,11.512715069628472,10.317854369320598,9.260408524904332,11.580410230513156,9.125101017545893,0.6054029307247433,-1.2299381994697356,3.2882967020735876,0.6712517081294926,-7.348260199120212,-12.521832422263756,-13.568957336423287,-6.73173510490548,0.8313704885834738,-7.116997916933531,-24.237668791300223,-35.26206797865265,-33.68090205891559,-16.35958070658778,-5.663422005180735,-12.115700992429911,0.6801988932080967,10.703720358517616,-33.11336517911236,-65.71762441580456,-48.2698126143021,-49.569503236869195,-55.005154710333144,-42.41962782054932,-60.43769908483286,-58.89912187597764,15.070676498105712,245.96706286976297,722.9332520840152,834.4129657863921,-79.49473041534782,-1012.6400382735778,-705.9758937213031,16.696178642060787,50.627169069767774,-75.66324810147735,72.96106004705848,81.84369542578763,-11.834863783967178,43.1752364566635,60.34909219453828,-7.2148148594511206,-11.591308494145217,-7.284895694608413,-32.016931256391736,-30.008689565434473,-31.385762443169156,-48.02425997242401,-42.01181953995888,-27.547703003324937,-16.968855312260366,5.9279065205860775,37.62796661776687,72.80919802234868,111.00613161284721,142.9167280758636,169.48350434796305,193.06213600015803,194.76433681591843,155.54764799617925,80.96500987038283,-4.018704701857036,-73.43942107849297,-115.97219242337412,-134.20657417488653,-133.53105299190855,-118.33741124303569,-94.68690568810246,-72.1508872763392,-56.530986926967024,-42.076404287531304,-25.303385878968108,-12.284386733540103,-0.12340349490121838,14.038781469161966,14.18907510545192,-0.3148458349034975,-3.4414296231585872,5.341826241492313,4.0538205722336365,-3.194706047161297,-5.4680135696016805,-10.195816128237666,-14.343146361434378,-8.345528054885968,-2.2107745109687986,-3.3950596650694873,-5.301314947586686,-8.91609987317856,-14.051427256489259,-13.198910294516873,-12.858549771595158,-15.284673354753327,-8.164810107966492,-5.202691846632548,-12.825540659662447,3.021205177927584,19.10831105846178,-15.406668447459062,-46.592145075628366,-39.531434714374086,-47.04308931244754,-48.273518245230896,-30.64541325605323,-48.79689001601166,-55.546239197656874,-1.2432151261046727,204.43437453758435,682.6441539846261,848.2357541099027,-15.039110510682093,-973.0418766878183,-714.7952533293408,8.842632617284934,50.226453248972526,-93.2121965338213,55.932536329706586,77.09632220101487,-20.868581899544786,33.28418842688423,57.31583680824458,-6.035696023800198,3.6071180322433634,17.16072591700337,-22.32245141302196,-29.12616519837825,-19.615948994642398,-32.594201452504734,-32.768794202741155,-21.220746427446393,-13.287061832959782,9.361398577667828,44.066718063035,75.28327568151383,108.51116203066283,143.72250051676767,170.55511299228866,190.63387546667644,199.52151978606355,170.49591750922033,92.14958937986079,-5.035957800961176,-80.95740179189302,-119.75768818187714,-129.80073181139466,-129.52124986887375,-126.00421351015635,-110.17170999761885,-82.98437625160756,-58.230961454409595,-36.73210974247806,-16.14787344714218,-6.0853157702041685,-3.347933836195029,5.041502215471729,11.963817404185903,10.36914830131056,11.767104834422177,17.428318784563555,16.609230676573727,9.320543949002582,2.40680801234548,1.9510286443611982,4.379581922567505,-5.062088775498053,-19.653077984431608,-16.43991947289155,-5.429649252495572,-7.570384293575479,-13.67817525788969,-16.953195577877825,-19.006709198479,-9.940960862229073,-1.466091898431448,-2.7861206517517845,11.806495505275489,16.574679551187533,-27.16711891225339,-52.46996000252803,-29.913818310900048,-27.54073655105541,-34.36617409479288,-34.48599383054603,-61.56204807983097,-55.08335694562716,28.422201150929112,267.3290345326714,728.8944289221921,779.5631122529351,-185.76452652186973,-1090.2003043478276,-717.8210766865077,26.697222760798347,54.22077818222906,-60.50930247594559,103.4471733034609,106.42183166922838,-5.242226329082687,39.71219863026311,65.10324033927715,13.768321834107953,13.677752941047217,10.794796502295195,-19.8827315848113,-20.417291544358577,-23.059891174099125,-43.2658860534417,-46.050899827584246,-36.57238859839682,-20.7882303800774,8.842442125906231,44.24840767384436,83.25182104997792,124.13290104893474,156.78661605879768,184.5327129317634,208.88837213650663,206.21576325922234,154.7385082710388,67.41779373577597,-20.46786234212317,-84.64609976423776,-120.80774137561369,-135.74721218879745,-138.89600121486717,-129.51621563762563,-101.79333695770465,-68.74351099630485,-50.33228049928695,-41.42867112443252,-26.93697440861471,-10.746473639056724,-1.287424606787937,4.456702964649876,8.321915571651118,8.314022127622543,6.491055498797298,5.14663766781651,5.713281790623618,7.8037072813183315,5.021176784013765,-2.8865891284533696,-6.676027488007879,-5.656028300163181,-5.861836526985771,-8.455060681916436,-11.382010452267032,-11.239917620664011,-11.40044928179633,-13.550392591464595,-7.020902467187227,-4.088612020353613,-18.443410712292813,-16.647507754332807,-4.83263462674142,-30.465442707649995,-55.33948714332081,-47.63679114533894,-49.64647274246882,-43.91604312040518,-28.754939525697047,-48.39600846415273,-41.40568079202632,43.47007824841535,286.5246805418618,733.2769145598031,741.264219848394,-241.32201557732023,-1104.6675816782686,-696.8302665263818,37.201537243892844,56.063262607639395,-54.66292696841872,94.00289677859426,87.41379609233462,-4.2170310866967196,50.70186381228811,59.62592176174795,1.3607805115927611,12.646190055520986,12.045219125957539,-28.956557348523503,-31.286221351234612,-24.200758680254253,-34.935908810359706,-31.3937915609317,-21.25667240884499,-11.675784353088961,16.044242263660248,54.293491277132716,87.04811324145021,117.1169804460474,144.95861831723957,163.38508752774368,171.85263759102423,166.44189249629764,126.64283220729207,47.606822598927906,-34.88893510482975,-89.08008160954887,-118.3271345633649,-128.52933086574106,-118.95960507939566,-102.54006698447364,-89.78370922993335,-74.25182511137402,-53.26483725751725,-32.855723540561904,-15.252603044733469,-3.32826251004348,-0.7539321520258788,-1.348369150730747,2.3152491299283255,7.25947350842457,10.014404694281367,11.471800131086033,9.059158045812897,3.226067075913292,3.9010720717097422,13.983134528508481,20.92223869592346,14.199388351854289,-2.991779047859577,-18.918747152061094,-24.63294852655029,-25.86294127690453,-29.662274906569717,-26.346721364052975,-20.084201121238934,-27.408040038351896,-21.38790448849642,8.951968709735226,0.5131538472197477,-45.94590116067539,-55.3352894158975,-42.77350255150231,-42.83482268866256,-36.625867788943836,-51.41630268178378,-70.11488940604328,-25.518519479455563,111.8340946036513,475.45040487151476,851.9071130794439,416.65023799273274,-696.8168151354839,-1012.5842422818466,-287.5168290456941,129.86073296633643,-33.580147813432205,-17.106618303275702,107.15301004234989,24.845813702857402,-7.117073372930818,59.05659451200002,34.42583227927549,1.4166643507111232,12.717787834423788,-11.376246910291377,-32.55148842821219,-23.968214455144405,-31.46246504482475,-38.165394392491095,-25.716491247258567,-15.258910727655769,0.16550237370045906,29.203899583506672,60.728698420901566,93.34153579851984,122.28835772318281,139.2872888893193,153.45325550336867,165.70965482470802,149.43431608556583,88.31797018217021,6.170692847104073,-60.747117774747906,-99.97259888036588,-116.63783239636071,-116.04643774766288,-106.48884065884626,-94.52226860322243,-76.46282924678879,-52.8997523760854,-33.087252425722745,-18.458227890875577,-6.458602260343259,-0.2078005772573448,0.18664964190051592,-1.2952220338224194,-1.060672130638899,3.28676415052443,5.8875258996159054,1.7188040339300468,-0.33637489288062206,4.2384438877748725,9.081133996409367,12.546953425195394,9.929025059424655,-4.003089574732471,-15.081404566856317,-11.06971098415582,-7.160781414523729,-21.471863462406493,-40.710727266884334,-36.04556145263703,-17.61303526999894,-13.085201308291804,-4.852265309893676,4.9767842323110845,-26.778682916995592,-65.04636329782898,-60.16909561111322,-49.85077910092706,-42.117454599578245,-32.275413369179034,-51.558409827834126,-50.59875475567166,10.282949162279252,205.6307334602676,662.0373176615144,850.1763119651457,32.55556308865175,-969.3109525062057,-800.9650227457804,-59.63732665482625,62.661723873642806,-69.61388652862985,58.11833512227636,90.82613231625197,-2.516892565661786,37.04712788802449,60.80072322190112,0.7677143081047468,1.9505815046624235,13.70027171347873,-18.819969028378157,-28.18388676645109,-26.417834254043957,-36.08956688935693,-29.700398880326087,-22.377640738231285,-18.708251386431865,13.463998174403521,61.20013253504546,91.03213015808367,108.73356604271788,132.89804236142024,162.72589210929254,183.9323384282514,180.97441042853757,141.68786095616304,66.5354625585518,-18.590004508133386,-80.445132850687,-112.4253137174845,-127.03703490325611,-128.50419498567666,-115.58695936329549,-93.00512537909847,-67.13320812484514,-43.051643048413496,-25.724498391368797,-15.668076283757308,-8.26465095141241,-0.18817124193111745,8.708698471422109,15.596104332334253,14.52301045777027,6.371327441928873,1.832999818919001,3.9980209995574185,6.430081811380257,7.872430212556515,6.7503644138146175,-0.9378938580922895,-8.209519099710107,-8.759223276588704,-7.670194058613699,-4.340085891931933,-0.7475552330683115,-9.682316406029713,-18.602825031235497,-8.768054620583541,-6.404308743981648,-17.976942448562365,-5.6401098847951125,3.3387249771366037,-31.930425334433053,-57.56098268001199,-52.24408850626046,-53.821806711447984,-45.426096625994745,-39.3975262887336,-55.02583813466576,-31.268993562610497,62.401407032761284,353.3573722775626,824.7797928644366,690.6267552465912,-417.73338918681293,-1146.2762848099158,-591.171272438394,58.86082362625461,5.070162523609923,-34.41124965198622,130.94042415935667,77.13551315354276,-0.8155637305335581,74.13960957359845,64.62883139697968,2.473232879170226,18.76779402074888,16.73524194974577,-17.80465717904344,-29.193127433699054,-44.91427497035107,-50.51615646470469,-29.605065641436298,-20.488564911691682,-8.94695886783709,29.29847228387004,67.21549223096667,101.54574489980945,144.74377665517625,181.6639631877623,208.15754845886335,222.95409042998537,196.96579502092754,121.23316060051869,31.639555345425862,-41.5884635294526,-95.8657300062267,-128.78043541380782,-136.83563174193142,-133.56487436322834,-127.19859451728638,-104.99829745645638,-73.10135930570739,-57.956071246560626,-51.26852112718934,-23.26684944746517,16.646988161674734,33.50400620184059,24.341478406382993,19.789862857795114,26.689669037009292,12.605099260894637,-22.27259110515593,-26.661015756808084,9.302205151641818,29.634511846781418,1.3585825712965303,-39.79212854206354,-41.674230084086346,-11.82903008171366,-2.2776414724045733,-11.361022145767787,4.634495044135894,29.019306231238573,13.088424526276377,-25.916758040793688,-26.5752044677457,9.977451666262617,7.823535103381893,-42.31913512576849,-62.2010203093772,-51.152580617937446,-51.570080674882234,-40.862855471351416,-28.094030685401442,-30.7753734670272,-16.104050369061156,83.64686986146629,463.547454943387,923.8308122590006,537.9226836647083,-688.2856095096168,-1181.6833740951483,-483.7227400039363,40.970293690416554,-35.975117160072664,15.388846577768515,150.08909202249694,60.77125165931174,27.256011880330597,89.9265204323567,42.60135898035297,5.592329793689149,40.01392700700122,13.17295975945302,-34.37473957121995,-24.037460474100214,-16.089138637254838,-38.65944405875098,-46.046498313393606,-20.101960568038322,13.304573392713436,35.883348412459156,67.4793160232563,115.83943896856391,153.46165465970424,175.81741434758948,195.3358691711893,195.15783316129568,155.08128441255386,77.72807087216327,-14.580027600734002,-80.74702882895386,-104.57509341094715,-116.78348593631262,-128.48185293272928,-120.37248680641542,-106.71569067911032,-106.26117795452943,-91.6363254714488,-52.16007587955292,-21.629144388733913,-5.267936121543865,20.478389075307344,44.47424527621403,40.92732442377839,16.171318237193148,-7.657337479443502,-17.048747045544147,-13.300243227312912,-10.327028849328414,-11.803228760490345,-10.367624868244075,-10.879661452646772,-18.511972280859748,-27.087960583899566,-30.944214939618227,-24.407557329041506,-12.215236888756944,-2.287643441657302,15.057359571436299,19.347283846377238,-13.919642022841852,-23.832989229560326,4.263032534972638,-22.812657238645617,-75.15326500755639,-59.76434900609568,-41.34070937206856,-53.85808602482758,-41.64419292090461,-41.877937932988424,-48.539794020092955,15.38795703154787,214.71123269968697,644.989967228093,880.6469750924739,132.00769689115953,-1010.7419858304008,-1022.6218797190025,-163.8531756689086,149.93825565382159,-28.38955155988579,21.0222033394395,105.55716589247538,32.04433238126399,40.00837998149527,74.88005105129497,20.49554438458255,5.985483410183509,33.86437156495018,9.389017390002607,-35.04008577245952,-56.39249443015869,-61.028051291267126,-56.79810078118507,-45.60068895220826,-13.458657932615598,29.04267935443212,51.14344636068745,76.42148099098253,130.83587677804726,172.89866304235505,176.64201133411245,176.98549407167332,182.2105356349059,144.62923364448747,51.18607272280019,-38.049389933732115,-84.37773318036808,-116.02683778239668,-133.17636330185292,-100.98537237674836,-63.60629535779566,-85.9543381564036,-113.8382524758325,-79.54428028652256,-33.02196036930174,-21.640333219514805,-10.563016026224592,12.47843542878974,22.21378080740456,20.99805413774334,11.608405051223617,-6.843058313798489,2.2914412942563445,44.180346619309695,46.762205804337114,-9.819735566924848,-43.66310591706703,-19.960748961465846,6.859221464058173,7.464214147269608,-3.880476427602108,-10.660765051454776,4.1313367812998365,19.033066929281976,-11.193912010374618,-53.57188319662329,-33.927035159399836,23.927977248058152,28.147347220771756,-24.025689851017784,-52.02087292756687,-50.228295187654396,-58.163630035789026,-46.309192901669746,-29.642227915633367,-51.623896345721015,-42.25019362793365,35.98557469232554,265.46676522528014,737.6024090821309,814.183986088553,-170.41814985226813,-1156.5900046937027,-826.2427935277271,-26.88540032715902,54.87150079223031,-60.5185675000259,109.69204173914244,126.72000092105584,1.0894148665306869,44.18029437353528,88.33879542246872,30.563507773166414,17.911906581113293,20.617349633458133,-18.147360495209814,-34.021161964298216,-30.60054783377336,-36.13957533945447,-22.02786155754731,-6.776698748983332,-24.10079511907832,-21.89473196536165,37.65063290275391,99.52441477452423,136.36027951840597,174.51946458908085,194.0490243128272,178.69649414402193,162.4729671307145,131.952745563392,54.16938798005923,-33.302967140364586,-94.7427359137057,-132.87382268148835,-141.80658432633487,-135.60549320858348,-130.9674732106382,-103.98386092497381,-64.58948067777087,-50.178629978648516,-37.48531716260965,-9.486774671937575,2.9105002063963354,5.241351082154438,12.946201248701618,11.733745220277939,12.187294654983848,14.212410997207865,-7.431771994738401,-21.4223111908309,-1.367921657915815,8.306525934369738,-2.880956188879386,-5.164208655074784,-6.7073226988386665,-9.701117989853383,-3.3534530898416506,-8.070642368963455,-18.39700848524035,-2.664188382008609,12.604417997184399,1.1165393860758481,10.846271951813359,38.320520221516674,0.6021852084113304,-61.61176138149758,-47.660947832642435,-33.22075403735831,-71.28711019646839,-55.24749174710169,-20.663798670576767,-56.53132842954032,-55.238825858083636,86.02716271985531,455.0246092243564,882.9403881511257,549.8403776174173,-640.7467833430665,-1169.4912617427306,-430.3274753717059,157.06604499276605,-10.361278962942507,-60.70344843204571,120.71585373660415,74.8583144036709,2.6647490970263092,67.86819497714956,56.52902762973715,-1.124116496998612,2.095695487362537,-5.55685298626805,-25.331538560486514,-21.152826979563795,-25.095942548131646,-32.06427017225687,-29.705144325586403,-31.43789581119875,-11.309540461398147,41.950353793415225,88.62725235048096,119.8638553881276,151.53508189349503,174.76562707540592,195.91715813695643,217.62276680594755,181.95603047486037,73.03788319617351,-22.28953874698465,-66.28572232460495,-104.90941544092657,-132.85422997529207,-124.66224569443855,-113.8590160351947,-107.37369923412386,-80.44141245172882,-59.67013666534024,-46.880688507444574,1.6078124475509021,33.665632319299675,-17.515936030344427,-60.72354151346503,-18.589420961806084,20.25834014236882,4.296860589355898,-1.6718520390683977,12.504658784619913,5.918760093522618,-3.0269757033776035,15.443744300778269,32.5752290797502,8.058151138314688,-33.31393864945038,-33.83582484148014,-9.672067245385723,-13.69063861921009,-23.245954729110032,-2.7409946378567707,15.156216484370724,4.896525379885928,-6.940669237728337,-4.23675546694151,-14.34177813767904,-50.5786433830279,-73.09225574386075,-60.99173245592114,-39.30354602280053,-23.74691377639598,-24.821396845254093,-23.865352272858445,4.501409470242784,69.24278520122556,353.5879928415487,811.2775648593943,597.285334334391,-545.1754739239088,-1176.3075492892508,-534.8513316665835,93.02825823758806,12.630286398291727,-6.632268423494878,153.42081199358302,61.63222314311607,-25.200664070626704,75.20629777796245,84.36427004385206,22.704589468085207,33.18593555989395,13.351638336469922,-39.34473560781453,-24.917828153733495,5.507583485609729,-15.346202582515604,-47.384999031458044,-40.077857445563154,-1.558315988771863,30.36085013877438,55.177640835527605,94.01469231509284,127.40419287532667,138.41418720239537,155.61064341211681,186.77312724180752,181.71851700032636,99.31373968981882,-21.392755276953924,-98.96930344922066,-116.30774832234883,-118.4165004511322,-120.03257348319464,-107.71161626223108,-89.22979289987418,-73.68304572794284,-55.63400319514035,-31.973329739200246,-5.696416802760787,8.105824509664686,-1.4120432868664494,-9.861415012015414,3.369481791449843,12.703330585474777,0.1548640856545198,-5.4252073335349635,13.10115915469634,22.97868807677301,-0.7292864193194752,-27.184550678452357,-23.719313160145276,-11.125278710994749,-14.170028076017807,-17.215423783383997,-9.273849468092838,-4.711734094847042,-4.659196250189597,4.729825349284674,11.690365568438535,-13.808214436536572,-43.408106980950045,-13.965572232053697,26.976571882945766,-3.9726366500287105,-40.24146181964326,-22.676008146436445,-24.008583124272178,-50.564229425293064,-59.77691929731073,-66.50522758037212,-43.17016036734401,43.37254192749364,292.13302863700494,741.4325352933927,733.5163274069666,-272.22232478399644,-1149.9005926617747,-727.830486854305,48.25997473960689,85.6393746297682,-49.08283136227441,89.43905246276779,105.55808896593388,21.333178351054322,58.69040533221066,61.30419131585569,11.681166681412776,24.323539268599852,19.87560402779495,-17.05304158045294,-15.226536279248037,-13.635849995603378,-33.077224325178825,-38.153961844854535,-30.164505523207634,-4.739350190293248,30.983497930904953,44.015062858296176,63.8877219910994,121.687163191757,159.85888292969491,148.15092416249195,141.08896648945841,158.2537569449472,146.19908536565077,60.33731292146865,-67.53049869533737,-142.41076675400828,-129.3492590294809,-109.68657937081119,-127.09778963460265,-116.24231328758636,-66.66911861864212,-52.42862378056533,-57.121873470038985,-9.262175792104053,33.99198174847294,-1.726789359419552,-27.302521037804038,23.015889687736802,43.20383938828509,-8.03827484420902,-28.071237185597347,-2.2356001266451173,-0.201166942139281,-13.057840255789824,-14.088874495845698,-17.897147435887355,-14.236966083944441,3.955689125129913,8.824692364479748,0.27404115850658073,-1.222679039074146,-4.458824931741418,-18.477469683609584,-26.66184530799982,-18.278578636769986,4.092361128389063,37.555819990687205,44.55754802826091,-13.6085150009095,-67.24266222822253,-49.67387667140406,-37.97098981144221,-49.38886787378759,-8.683571432749456,9.811881145225165,-45.99615341134154,-47.62950775865987,105.66643285156232,486.5167254322973,823.4155312507382,336.19760599119934,-808.8357934829071,-1134.6776103055895,-357.434296208889,161.24022679277215,34.19349716258216,0.7714403624716795,105.74851448629582,65.57892582120954,50.5498838220021,89.95490794723246,45.888681466806055,14.78601611654419,39.69893662362635,25.451991112769633,-10.723033462100478,-22.604069680341304,-26.465983438470204,-28.06205967351447,-25.06208714304227,-10.697227778017659,16.361438140810403,27.69370263430374,32.96500088380623,78.18285785294955,134.56593642573188,138.67262811797815,115.59146808923589,123.66425050430625,137.27051550565253,90.19243943332306,-8.246510707372451,-82.35094815429677,-103.8917878286515,-112.9123416890061,-122.98573163063077,-108.74058624325346,-78.24623681294169,-59.14437521048646,-48.39954492000166,-33.235914052168894,-15.858813965909036,-4.198863087770736,3.7335997869430884,19.641596259602945,29.822788988085193,9.664250504784839,-9.740669781228423,7.040049631724822,18.892419872763725,-6.0196199913446105,-24.0702550697595,-8.14780570367337,11.46443749372333,10.100459193858374,-5.621235095727375,-17.173412172380715,-16.301588218890068,-15.510353569944263,-23.235072373521223,-21.707845678242492,-2.141475145942941,6.909695930362959,-2.356228785251388,2.2701470329924787,4.546681341645997,-27.735710408248796,-45.9355832388345,-30.292700233613587,-34.28104218680726,-51.89462113406752,-60.12950685068887,-58.19100244300904,-18.633471652155308,61.903152820901965,314.01156626156666,770.4991674916196,696.1237316383055,-368.11755003227705,-1166.1957070954484,-659.9820036442571,66.27135977814024,57.645000645541714,-30.09714729440053,129.82316340207828,105.24403040946666,4.431132879997975,64.66268654858996,75.84028599651492,3.0474039912734927,3.96477802706395,26.022115061775708,-1.7531147262618916,-43.00219918253101,-64.6449919058869,-38.844780053610705,8.14472462593671,10.554879557390574,-8.133980913355694,10.314393881823015,46.697752874362635,68.08325061438995,90.3913689398488,124.64545514452772,151.4132547642755,165.4230072654597,165.08437732679377,113.66549865402588,8.842721194023362,-74.80824216325178,-100.10024156861394,-106.39741782175912,-112.46760725919324,-110.12091441747627,-100.48238157734022,-69.59223125682593,-24.371315757986267,-15.43993369998567,-38.6867888308734,-28.45702988682153,15.474484580142809,28.759467537997818,2.2573593945065333,-13.852994900762306,-4.134646876861638,5.310137085295346,10.935390492562544,19.341072041639094,10.58155451653765,-13.30246768979542,-17.710560605719014,-8.142975013931284,-14.080930665711548,-23.322187942202042,-15.333539295777339,-1.752296477840268,0.39529787393858484,-5.025890029186525,0.22580407674494118,12.548895021464823,11.401250377231813,4.64435702212374,-3.7203492762582373,-25.028278338734566,-36.82213105557596,-37.25238792044544,-45.82961628091885,-36.504774263614486,-27.7183493577431,-43.71072829916564,-14.984613860103273,88.46459055007392,353.7806243082397,768.4095613213949,635.5083647016061,-416.50357642730523,-1153.0991483477214,-656.671541878917,10.804626697185682,25.408517046458595,-0.43388094435371727,150.31563013965757,106.9368760631336,22.72692774279104,57.609198066353805,34.42962729704318,6.939849436122852,45.97214985924035,14.527373943787046,-44.8690638555302,-24.532789462211504,-10.658542509769289,-35.37049946830042,-23.42426809501864,4.941352520077743,9.719056047686895,27.64750325601804,64.27014535226867,87.83396265521674,114.60969496373933,156.07206693330244,178.3574066816273,178.97022576127816,167.20420164558024,104.85612178787014,-1.1044977122173254,-71.73233404410891,-92.80383526995286,-114.37299124718565,-129.7182642273103,-107.59520589028207,-79.57171643556121,-83.64373266178562,-90.23479252029263,-59.67556578966016,-14.125635887606954,7.083857874574491,8.545060655548516,10.66433259342902,14.040996625741698,13.623542381950223,11.197095667043788,9.904011505599417,6.298377653201276,-4.209973690054072,-10.368610219557926,-1.9992881654515635,5.270781918546863,-1.5296266946697532,-12.395509491003406,-17.931123958954647,-16.18856444026932,-8.72385743871258,-2.2264042667672133,-2.0496717139930745,-9.372739247661729,-5.362725709957456,25.835095366538475,33.378377161368014,-16.17935814646016,-53.57235513140888,-53.55771358286901,-55.0620694653674,-37.67411695039657,-20.213870725956234,-34.89196684400055,-6.782080700598506,92.80551134344142,343.53950443976214,756.7906738111235,640.4352846679582,-424.2234446623204,-1194.468103817695,-688.9233091765607,9.757683854645856,20.455160062159877,-16.15275214981366,143.84609183788018,101.98608940364268,23.745114369535955,88.36390855895219,72.25015060634985,10.677657277411885,31.36274025846854,21.102864994007458,-24.10931848328195,-20.574824076561804,-18.828997414612857,-33.62011931927903,-19.241399906063045,-0.4903067252927258,4.150578170153839,22.422954836761875,54.59327408604329,83.95345312499651,110.95011774293,134.59315463193383,145.0710562404015,144.27418276569227,140.06016478057535,111.69047775578943,36.09322279464503,-52.50603213405525,-105.4057966885538,-124.48808283313551,-126.45438010154156,-117.50872088684238,-108.38950849899712,-90.77646293890486,-54.151056763165855,-24.787968561179603,-14.648020128704076,-3.7964970300780507,4.38824597508567,5.029579968748218,10.482205390288245,7.385080871911823,-6.185194472025206,1.2900495998758714,16.478158496368557,5.937841240178805,-7.122515556993388,-2.168773636567698,3.1899747172602595,5.187025923662061,-0.5305412975717552,-23.39784892301131,-35.521720751560515,-18.104490775762876,-4.084919571069438,-15.030072896436426,-23.64695165593823,-5.517546072851161,7.612226549690885,-16.600408832072198,-38.37174295333055,-39.34371845560431,-52.39602309134244,-44.48802287606196,-11.2563725416944,-27.808432943214108,-62.46044166398936,-29.772849472573768,186.3838382013991,658.5864386403667,800.1259076196377,-43.395059895004664,-968.6214140484451,-716.8196402742722,14.318800612978137,89.58716378091813,-62.370903235000895,55.95093719910349,85.02818668470347,-0.11671002306969491,34.0308104984255,39.05083103287103,-19.793172431109035,-1.7237979096058993,13.091041639631522,-22.59152437409321,-21.673837780641318,-12.644777804126416,-31.159668794909898,-26.970803126197858,-7.444703999253505,-1.0992920407850733,17.7564036627772,53.39193327293145,79.31980751110201,92.46798562682596,103.98478989340167,120.63120713180334,139.43570829100793,136.7559418367017,89.95787895613988,14.68756444501743,-48.119463316446016,-79.31576674317324,-92.64816257549417,-103.06888702203253,-103.9680601210157,-82.61358455330304,-51.41420361194397,-39.2938797996729,-42.03507866595744,-28.02471189256552,-3.218214664004641,2.2994731364995182,0.688349766578062,13.381211649582058,18.217643642581375,2.9719195087075736,-3.698314347161478,5.814361404055216,7.616492246778345,-0.037693555146947944,-0.3793364119665821,2.5680376648635015,-5.561687949712823,-18.7416882566611,-22.523283295355938,-18.01003124746725,-11.357757565418307,-6.656021409228112,-5.555377617115306,5.565045213393492,19.148964869181217,-2.044460514243863,-36.29262291760983,-36.113131736106666,-26.32732779420582,-25.22302909046482,-21.73526093620135,-33.0368027412258,-43.55012318727581,-35.29453964460002,85.84617708221839,511.5895232375266,823.3817397696588,188.25791287046164,-858.5081739426745,-880.8721753971793,-133.05298352793355,110.04650704909479,-39.33796048527764,44.06164097218726,108.3454145167927,7.7648886953248475,15.233377701263166,57.70733437852123,11.11998948868802,0.6301837862381134,16.318212902912805,-9.351168262157195,-18.385670229245324,-13.967975628211713,-31.06311416034341,-33.78931688948735,-18.945536514429275,-7.651547683111982,15.672445885610102,50.98891781083583,81.91801597474912,106.93647586474808,122.94211232929855,136.08867474205726,156.23058558466582,157.6382356912734,113.4492799773936,42.60037510821378,-26.545444147715443,-81.99397891971475,-111.52387907930107,-115.63572499164306,-110.22016952408973,-98.32798137358172,-80.14186994893683,-66.46943494691331,-54.84183184433433,-36.517292723751936,-19.314178944773992,-8.469900276964076,0.25882336504070125,5.55118577897945,8.817560390260654,10.586882994125332,4.550255862159627,0.7254737166787688,8.008004206826715,7.068654606813325,-4.254547384920478,-2.75435761694402,1.6399421047706397,-14.707393661168062,-33.36799644333366,-24.77960570113544,-3.7577147769874095,-4.01836967597464,-6.370495326411872,18.655758683237806,18.7748958212549,-30.92983588204501,-52.80802776969311,-36.9924028166743,-33.006962231002944,-21.454970006874113,-14.09334825928628,-27.466497976854185,-11.254020229851974,62.82091441145491,339.74224256473815,758.765710968682,534.1601640635658,-533.9168681520972,-1086.8165084714128,-484.3380174786798,71.03141209323618,9.284327332856666,14.539275254043627,152.66479841680598,82.32633461668107,17.27490931869675,57.96988787792628,23.348922778930124,-11.851896378214066,16.191253658808733,1.115798464608302,-33.09174150826529,-29.486627915064147,-25.47183896474893,-24.488782075727592,-11.639734118536705,0.44071016182426703,15.338796823702737,42.377963496516514,80.45298515762995,118.99703078747089,142.34530222436638,158.02815691547244,178.05143450349203,182.7137992779003,146.88545092599497,69.44397045482499,-23.60200311991802,-94.06748540421938,-130.41466124464822,-143.92900463638196,-134.9186585228048,-112.43899848100354,-100.31177846860719,-92.41732360706327,-65.90279238511533,-30.590422047259374,-9.830884562708416,-3.574771617909416,0.3082839529606147,7.352710780422939,14.073582202607277,14.449428697924311,12.100125578472221,12.977610624333039,12.202652365840118,8.270643964916097,4.5752746575918195,-4.538498183831855,-16.24384971032486,-21.56484736996181,-27.766488905900633,-28.318280264615677,-11.595599207229284,-4.755569367083994,-9.237706738416044,5.235433769104929,2.6123900393227815,-36.55120798326887,-49.40464528722938,-33.20673676683492,-24.098235653292427,-14.993654615560565,-24.00191914426692,-33.06849496274107,-0.2636287123342811,99.10621863681692,434.7494659088064,810.3077720271216,383.0436635144308,-713.9250987107,-1014.9595319663895,-312.6516987406482,83.25006798204603,-36.72668142478348,26.88382993773709,135.58094058046578,38.502745659264164,24.864125965710087,82.15310603438051,24.969013204029697,-13.195812283986488,8.167857808062081,-15.082795050731793,-34.538052838778896,-21.44695328166118,-26.399586425539898,-29.00521280376965,-15.110782098776733,-2.732969807507491,29.20947931795488,72.64299378517042,87.47120353671315,95.77618595704583,133.83342639952002,175.55535811296437,189.20889041717234,176.46703574009388,131.01880947282473,49.502857582170364,-32.711554204394105,-84.20267112837048,-111.49452191968004,-123.2476342030863,-120.2799961470082,-111.92706208443086,-99.6501140471086,-77.35814329858911,-52.266770354799334,-31.62579977126616,-14.181331814798398,-3.460751242690783,1.319537954401241,7.815999758431417,13.878933554967283,16.11024767773799,16.23828385389258,10.38815597642574,3.321421085424559,8.118028695176942,14.461644202708463,5.017127333077743,-11.307042800648498,-20.308046566588956,-16.736053705847084,-3.5759494396727387,-1.979643490274663,-7.873671746290658,9.285362665057683,15.622773338841826,-24.12764201403487,-47.38398025773676,-32.20427863379451,-27.723167957747314,-22.708460619451834,-19.03634937046028,-33.27250316457858,-17.252518214869667,48.78230291323831,293.36142189577635,737.098991101976,647.772438039796,-377.05386485232435,-1085.0863990001383,-575.7582224504141,47.32047298966155,2.5021081637347606,-29.804532336448375,137.07273517488994,84.75181851715958,2.6104059890452014,69.20043291412945,48.72725529944559,-17.91993299098644,7.374184002860655,7.407150953996583,-32.226168496588045,-27.478981227341166,-26.54549267237902,-46.35882229495282,-34.80719064494846,-8.236998339486256,12.145829772958713,45.23740847328509,83.81095116515108,116.14276569877636,153.18312113642565,186.87272223215533,200.93655357712913,198.86577798269045,167.12254584127572,85.30009054222032,-11.252094961430357,-72.86910880772723,-105.97522814564805,-128.21868765900288,-132.51484487540424,-124.67708168950489,-114.63051772119138,-94.5821027218655,-68.46948535513987,-48.75396389062766,-31.66978047188107,-16.094997366172336,-7.302775271385837,0.7520724666277516,9.596143032701146,11.060062441193828,8.741111785053413,9.130468445086827,7.4655828836192715,3.9036131532831604,4.717802743819551,5.210163084930354,-3.226031372942437,-15.131320104696435,-14.853158137832242,-5.088395220344946,-9.15364844344474,-15.32661420796379,5.66597828767442,12.170813085505696,-25.992022464603625,-43.16116674616307,-31.026122201211173,-37.07815182424521,-26.69013668210374,-11.487229640475014,-37.08337664531827,-37.5893558068998,21.984832538441708,260.45720718861367,751.3372128392116,762.7852842061651,-277.51169250940177,-1146.9912221057702,-706.0163178209173,8.523076482164674,19.43862682872589,-33.11988119502737,145.1128570052432,115.18920739466918,20.16315249135924,81.97074042661178,72.3128305966221,2.200232373653492,22.51521381067555,21.17124928303363,-34.87638945902552,-46.10128152758764,-38.40940177078616,-45.988128337443854,-33.71780118551209,-11.459083942338852,-1.050190041175238,20.11147494323347,64.51314854644983,111.44107990953688,146.23336183213416,174.83802280399976,196.1477707926108,191.07632652650653,146.1075397327463,68.3940925461918,-18.111113030881135,-86.65677797933549,-125.9699859660194,-139.81991431798994,-135.3358926698735,-122.26648800901665,-108.4671483593117,-90.95751235608097,-65.44275188286603,-40.043120034534255,-25.291563721066254,-18.380535714472373,-10.977213939448717,-2.1332403885308295,5.885568100346116,11.219024821384375,11.47600794514699,8.711308628819136,6.761132612373267,5.336107621714502,4.247968732507145,2.7035732466054245,-0.27846116353575034,-1.950555048297863,-6.563918595370318,-15.342536045085208,-12.683598749004318,-4.957084359285034,-8.944477845336493,-2.222136288239758,5.807269907821238,-28.62555702445195,-61.21199171185667,-51.22095091945505,-49.361909750728586,-49.99077162635285,-36.03332859711524,-49.573389340359434,-50.86114409575853,7.014370503354627,224.30055044098293,729.1227367110922,913.3590927615094,-8.05138672446165,-1093.6659091651845,-877.377485248847,-50.11383462071251,80.4772736967581,-77.43417901439523,52.296366453762396,93.40593374395571,-1.9387482053950489,38.125547414987885,66.8687041913729,8.583191253204681,2.904684432694328,6.5674171783059485,-22.769099425509303,-27.718090215677996,-34.389569733136696,-53.103988032747644,-43.10735050579866,-25.216441399497896,-13.173763235671688,19.27090283180739,62.63967109187294,98.49676829973464,133.29234244039392,165.71463484124868,187.64885341555296,193.0958381449958,163.97583105069606,90.44863010400526,0.1993729489345899,-69.24407880293614,-110.13176048671764,-131.3924516540881,-135.36720305829246,-125.51167752550634,-108.45715277112214,-85.47002075601026,-60.27203925411756,-42.05444351358466,-31.953360750490816,-22.455887597487322,-10.616456364802566,-0.12549008681239116,6.443048469052197,9.201583228899745,8.497155298886497,6.436959808965366,6.210087483427385,7.1266179413103306,4.510848266843709,-4.035554367533276,-12.57338413448322,-13.129407662132124,-9.567018626681524,-9.431542994915908,-11.077055748193079,-14.564003435053714,-16.865750581710156,-9.631864491867612,-5.389917086042017,-5.7744485801881735,10.997141870445573,10.561997877203464,-35.08135433495052,-59.49296556591492,-53.19184165328871,-64.68625987567518,-55.8062082037772,-40.38191816310385,-68.69693741550854,-57.76857621682732,49.35162748106927,354.3622640331988,862.2905019499196,794.5352231505095,-335.55423160060525,-1178.4334858681837,-647.5608657913374,72.68950231102552,16.956075179704538,-73.15736843022967,102.86940340228422,72.28003999012606,-17.420656851450964,59.38095648757779,62.792789346535145,-8.36647722471806,-0.6089056236757635,-0.04580213167176783,-35.576047466314044,-37.77606340484868,-35.90975010543599,-46.92352013925404,-42.48573285394813,-28.917649605864554,-6.747832133416651,31.51665320971772,72.80106950841099,110.94644466185576,145.06926814819468,171.71389579340413,196.0725513083698,207.15541421207004,172.4003184060818,88.34177185596002,-6.260297957296049,-76.9842291515003,-117.38411597041913,-133.5436344473544,-133.2447995940936,-122.80348118067043,-104.58269916255871,-82.0974754974256,-61.37137864786024,-46.30641964436996,-36.76744027139809,-26.107722679921615,-10.0626015726553,1.151000663593699,1.5284117647006283,2.647299098841607,7.184799934536876,5.04061644634584,0.1952848297469103,1.9030971359813833,5.338566631724884,5.272362682515544,4.245941617375708,3.2391200131832036,0.2017983384609252,-6.479417955790925,-13.745311650303032,-15.699006435256663,-14.039322332411148,-13.835957305606183,-13.01981800144376,-8.822163176401155,-3.068038048528747,0.6120434663347627,0.3670985868194787,1.3684609574119424,4.70109563370773,1.0579948397187326,-6.02327623039683,-6.6780362119296015,-7.611628986443549,-9.468671693218583,-8.516381621510202,-9.693290233318827,3.9706144059954616,22.460627054124068,-10.974912109198135,-62.544208880844586,-60.99462289655384,-53.0890782913082,-59.550531385958365,-42.89655808107507,-51.34755696293582,-72.32399464244148,-30.787318540062856,120.19361677086113,541.9050035320589,937.2107253372309,400.4600330237581,-770.5990174974296,-994.7629455905737,-233.7666958714346,99.9548704222466,-77.03331281884408,-11.33881329803966,102.67206966530004,10.718615570866511,8.489786346387191,70.10058567951023,19.334825313289855,-8.727620008668882,16.065921446351986,-9.403387663295417,-35.51855898500483,-29.31691965083363,-38.83502459583448,-48.44560083096795,-36.442223456803994,-21.665569394768,-0.4324020469340262,37.39231596213348,78.86929663030544,113.69283291762588,145.39244015612877,177.8352103581193,204.45058051641107,209.62930678642607,177.75186356904393,105.10029794555334,13.839777835340598,-60.37040993205424,-105.71911152607439,-133.38167061695367,-143.8472355333529,-131.44694246190232,-107.64268906576288,-86.63004264488893,-68.01255590798081,-49.16234242548187,-31.053903515948598,-12.840213675099523,2.6863798535959553,10.031719728579853,10.59621944757631,9.746563591662522,10.344621043593296,10.748419882450712,7.154059908577233,3.9448625257524563,7.628877503353378,10.681446322948903,6.856312732021588,3.0173439481978686,0.65913790115777,-0.7737030749476199,2.4604189427610788,-0.4444512563037666,-16.177782855602445,-23.712374683279137,-14.747245470087634,-8.187558035617943,-7.056445484662925,-1.78266221013204,1.7339044025187764,0.5151505540678176,3.234199896486789,7.016422316287338,2.705200661262456,-3.9312517321892697,-3.1071192671237666,1.1403063935520814,1.048044009802922,-2.056567338559626,-4.643924505724158,-5.9935162568547495,-5.718931329114139,-6.230986612547192,-7.61758240027782,-3.9203034082642274,0.6290547162049558,-4.038981651197505,-8.374279910945173,-1.650066798656888,2.81619780023904,-3.0921503913315505,-8.087225904045708,-10.17211462237251,-16.000079335406213,-18.915223621768003,-9.174819917285712,5.181021723970723,13.961158110051223,22.2474188693389,19.593584700669343,-7.976638355480112,-33.015710672388764,-50.45857253486139,-76.28722248113286,-64.22288981475594,-32.82663726201917,-59.08275853541157,-68.37318380725978,1.8822698183669218,203.95944324648852,696.4370545966343,967.3699432494465,148.89733338814682,-988.0629131166498,-907.3036645538152,-128.46806176169264,26.392386997972256,-100.47830494885316,64.91941727690407,114.67801482929303,-3.218429058206908,35.451809273342555,76.58470539356553,17.210782641915188,17.966758303263408,29.626279823440562,-11.222826222766477,-22.509510228199193,-21.327022804434435,-44.7429125781118,-46.677762055238674,-26.751262269933598,-15.821116398686378,-5.746170568501604,18.672097897252293,60.16272266181646,107.26595422150743,148.28149839701592,188.17788524349245,220.0864491827667,225.33777448521496,203.36367355761476,150.41984770787715,59.06639621860815,-38.86456580714523,-101.16395653235622,-131.12730965296518,-147.2757712806854,-146.8155858852203,-131.76202332667947,-114.68803799553072,-96.95563430233673,-77.77764488252255,-57.8822847321252,-33.26765096988518,-13.679940519777858,-10.610962835396489,-8.26736658577768,4.144327348450389,12.181769077052849,12.75081736681282,13.441823754350942,11.427832542431744,7.733075436382926,5.90084457722833,3.2149184537726807,3.0084755385593667,4.028642531151217,-5.496452552793434,-18.842118131108915,-17.61794832970488,-7.382975589678116,-5.772024313039392,-12.417594430052144,-16.511953623561837,-15.35479269138547,-10.664752668201949,-2.868541766972802,0.546666190231381,-7.75432071199511,-16.26556519268608,-11.782262831600844,-2.0626176106299123,2.5731297046525867,1.9712272861130256,-2.239953966961778,-4.370701290176104,-1.7367766221581067,1.3121115244927934,6.992799642987022,9.871467655313962,-3.2804311850246712,-18.952968749873833,-19.841335034890417,-12.138418043064465,3.748019047383604,23.300142622496796,27.06936044827804,12.063749177091918,-14.73492295294017,-38.41722491887059,-47.57698462679927,-60.87961536147161,-66.2293402824918,-48.42621832490251,-54.239690375807186,-60.798403563446314,-8.2009820498658,158.06079312401482,605.107304586882,992.3658520007701,394.16675866395883,-831.6714630543842,-1052.2597999503541,-262.57130824336826,83.904978934625,-79.65339097294725,4.227579940643842,114.7742501914733,10.133091539063262,8.208933988918133,68.99822921327029,13.659492655508934,-12.004526923652032,12.350802059868874,-16.80031186745024,-40.36998508014234,-34.49975563664201,-49.18529450996977,-60.124548788715366,-50.46916381025064,-37.734375398107105,-13.43717238183285,18.451738122116993,48.05262926230118,91.37234362130643,145.06687330453025,185.30265056308588,210.5108243808349,222.2188685934252,200.9816977285742,134.04832347501838,37.639146651677834,-56.05556738596937,-121.0642576245126,-150.9992748055453,-156.97650593114437,-149.8564256887879,-129.483141207043,-99.30309643231992,-75.798822483082,-65.44363599100308,-52.38762176075299,-28.98231996882756,-12.225181823757282,-10.683974469823525,-8.15454130112633,3.250253249692168,11.446046416120264,12.526630574117545,12.735366687102285,11.438152829611123,8.369435085053627,5.514291711552815,0.4612222447793606,-2.4657541795626265,0.10040404057752994,-3.86549078631011,-13.618774974889208,-11.190718779699484,-2.263371985319754,-2.8450972149138583,-3.647690032140364,0.8994438362391755,-2.984694301045618,-13.054097088384198,-14.650173645128378,-10.135010292288456,-7.901164940945376,-6.622868588051006,-4.099446838600656,-2.0286320253402703,-0.5483550227862128,2.7102198771223094,4.173609713897061,-5.689516837020804,-21.290568721785185,-22.558279033201963,-10.328571341444885,-5.031475332585359,-8.005510770492975,-5.940812078554707,-1.159727378446151,-2.3599936395481986,-5.025284013839141,-3.7935465109931865,-4.3414306743412645,-9.438944899767549,-15.579269470195445,-24.35512825537849,-27.9691301026797,-11.986028022722085,8.15147629661991,12.760843393120947,7.813748722576323,-11.803523437207165,-39.87132958926506,-51.55536121057254,-64.93979260801919,-74.12010286398731,-50.98029687497042,-56.31610039466149,-86.06908755855471,-47.46479564038628,85.05264549790232,455.34077421330824,925.0944916661917,607.9984484854089,-557.4427809883936,-1046.5955064382438,-384.4483327143553,77.87352277713043,-67.11795815220118,-45.598348137429554,102.83239389023404,28.869730667711643,-5.574307332380155,61.8119303615649,29.109434132076903,-6.360329086212271,19.453534787487435,0.20242051558521568,-32.900744461478936,-29.796539183623498,-32.98572839086849,-41.47118023796799,-37.81612221627063,-34.57959195679834,-24.27912215220769,3.8391301723432463,41.25153907141347,81.81271873234225,125.20120862870975,167.44295391372953,200.05918828087405,219.05624908137827,218.56324695608774,175.95898379452552,84.65257819358487,-15.75553803200149,-84.78778275433416,-121.26634617003471,-137.75894538102347,-137.04433695318838,-124.23837122317549,-112.14186205514099,-102.02907443284647,-81.38349487820346,-53.91013695915035,-37.584425383669,-28.125704711460223,-12.169276717991668,2.199888713186848,10.65552040279259,20.546678203281978,20.70244567739649,5.03594853512838,-2.65141575220402,4.388448821398061,5.286157902557525,-0.6591286994813679,-2.907509654045871,-8.306646173302532,-15.931743286010473,-13.25002778068839,-6.163650744848024,-6.592171151296288,-9.901661317007612,-10.480755645509419,-11.284764511305333,-12.148120195594434,-9.534192670969535,-5.327075002726911,-4.778451122349516,-7.093010976169406,-7.103559501828009,-5.347585608770665,-4.585926901860645,-3.4034031610240962,-2.8811733695542916,-5.283930187135569,-6.875345385109544,-4.71239575874885,-0.6405432618123488,2.4283764541084096,0.8128853711538859,-4.21701353092396,-5.5449673394725245,-1.3774095297436353,4.288983398523564,7.304209986807064,5.019152755678734,1.5245715713892376,1.3695008920061174,-0.40060189945878655,-5.462036782950135,-8.746419284766162,-15.431805404633229,-25.83856144575789,-18.230833322257915,7.871203583271307,21.076676717419286,18.58679817403198,9.566635106867185,-19.92933635657434,-47.44303134727864,-50.15447127898913,-59.67515048200919,-60.74183523128893,-43.46387297565915,-70.83961605172165,-95.33694292782815,-37.85327925509287,143.03990908242136,611.3043174448571,1009.1357234705386,414.2563785584397,-760.2694739805613,-922.497715747002,-173.3096210063086,84.60982202886082,-112.26952404730513,-32.08831724370319,76.84820383571588,-9.140629564468625,-0.06752059874943228,55.426391889460064,7.780267778170948,-13.281728558231775,2.52399627827611,-19.614114888426688,-28.197283239501473,-22.170563424522477,-38.77515949256029,-45.751984700791425,-37.90527496809842,-33.89034314609687,-16.02386702230663,16.603004618240664,47.36328917364078,84.37776627257568,133.54440615727114,179.83827382811324,211.25251558456353,225.58008830795012,214.97222159449137,163.3650128619193,71.4010260931453,-26.564036030619096,-93.28163593166347,-127.01534399299791,-144.9521149214242,-146.9714480892435,-128.0016133448675,-102.04405494125865,-80.9116726859031,-59.55873134565557,-40.01366460062562,-30.27076817828434,-22.642951045538787,-9.590759868644568,0.4007182527853992,2.5714000612942662,3.0670216117003797,4.425449933078108,5.244914445780635,6.280970268240225,6.824174387536808,4.105889073587596,-0.45130246270027996,-1.9465693413962466,0.020348584482183796,1.4089923399351445,0.10522676153485655,-3.7955704483789123,-8.20516949171826,-8.613881361339756,-4.439399493258625,-1.034598414789933,-2.09241212504236,-4.923156940998709,-3.9227583298939086,0.7201966341186408,3.5793220880901973,5.634826370140228,8.952053408852784,6.398999581075255,-2.408571856839389,-5.756464387535992,-1.5329414004868696,1.1887548291442336,-3.0458710087936414,-12.733429146697436,-19.637247607163427,-17.545996537380297,-11.244292941024773,-6.697388956239912,-4.8357155649707835,-4.746580981822621,-5.191049076791517,-8.967184528296242,-16.380794673773558,-21.33603993882174,-21.644327628346733,-13.212019069041968,4.6886700514507,17.69177689891307,18.749599817632987,3.4230048821172323,-28.93780119890721,-48.37985828180347,-54.846777619130904,-69.29641578112779,-58.36369393428407,-46.95717510830231,-82.3569090953577,-77.47937274025294,12.380928915508747,262.9656471709634,776.7862374182098,911.4867340254128,-26.74739503433159,-991.4118176632838,-692.7279120738061,11.64901068544582,17.57290198571179,-108.61720994052015,53.938281978848266,63.71016840939672,-28.900100898518335,32.54342278234381,53.371588773237406,-4.533733613921723,5.651549010142901,11.082376468370429,-25.60495829984534,-31.094790956526033,-31.531377139841464,-50.102985811610836,-51.71204682989354,-42.682620611537715,-35.536211061767375,-15.416985343924253,20.515236238661522,63.02052081656065,105.4200242366866,146.87884366823369,187.89876258065323,220.5470563985045,232.2691895799729,208.7550465895609,140.94914226367828,43.07609408499319,-53.946584577377536,-123.05558352667555,-152.52382719880956,-153.03387871255774,-140.9855257206343,-120.3991654230569,-95.58257115796131,-73.2846882371065,-55.49673549724817,-46.641875707370126,-42.06282224820538,-27.969266267271188,-11.893727630309044,-6.918732087545969,-3.52639058858907,2.2707161190989282,2.69390832117751,3.2889427429088833,6.644741710110029,4.308139106404658,-0.3559420351663718,-0.46373079958384267,0.7566651329239775,0.5984991973575671,-1.844249634750188,-6.30493088021505,-8.591936605698539,-8.204453278853586,-6.329603057646521,-2.664759986534701,-2.5475679971015452,-6.667423038975411,-6.828353136640784,-5.726938260002434,-9.452533027278836,-9.875650267868089,-4.593147874287514,-3.8740849297851465,-6.7455812369735355,-5.316139979669325,-2.9212170435514135,-3.2332249365865398,-2.144546281372609,-0.3677270551599552,-2.132092813337957,-3.911565362909,-2.728252021219703,-2.011712523810666,-0.6640865186508886,1.5957862133227652,-1.417007903268333,-5.599752558503118,-4.589940479170842,-7.419613847121926,-17.38647938279694,-23.3889191720506,-18.122384594101856,-2.0605484214089245,16.07732023634768,25.721341914772744,17.027969334612294,-15.851880843395461,-43.971562860016626,-45.960145150418,-54.18496442334096,-63.718004865545055,-57.27392623540155,-77.83225287525957,-92.04073846046062,-36.809672834748085,132.39838112139975,570.9040132371265,949.8029475098554,396.20022665426603,-729.3912772300412,-905.26756039928,-177.86998979895012,101.49565446740223,-78.43292800418408,-10.954030223879421,81.23893964515956,-17.422192848078282,-13.222277998784854,48.00602200275033,3.8621760305022264,-15.48702363192289,5.309098035902146,-19.018355491661538,-32.85571760998388,-22.632270913255073,-35.83955133968618,-47.10691671447873,-39.58717254826572,-32.947952378610225,-19.145914584646633,10.82576917703664,48.76235400597895,89.81603329845156,128.18759858772398,161.60063299392002,194.72171251174075,217.9596170100154,207.16139422052302,151.0636411527617,63.70269418428447,-25.94787660220614,-90.97737272521653,-124.34785676921126,-138.84470646243113,-142.0777756358462,-129.56940207054575,-105.57166810188076,-82.15069871711687,-62.664889840169806,-46.704182521017316,-34.88621057472709,-23.53282118866614,-10.550666290494405,0.32922010052219264,5.483760473534613,4.898955408595029,3.6316852547908134,5.753274143827584,8.179339829179153,9.769704534292487,11.052411994877493,6.99001533845353,1.186441156517791,3.4910902389584795,6.096209674642964,-2.283107513948451,-14.994361716879919,-23.400325150704266,-24.501032740611407,-17.058574427189154,-9.088782801725483,-7.316878053703901,-7.0376014838132654,-7.4393445068422785,-10.035899037118481,-8.733785523710496,-3.324479939829864,-0.7856973794986217,-1.7199035096975148,-3.205342690914115,-3.623544370321653,-2.2904360252557527,-0.3904761473242164,2.06610149548856,3.545604589013241,-0.2639291036231004,-5.4677930489358575,-3.803398003719213,1.3373113256770646,-0.43660036571172256,-10.961656529255485,-22.06932095246241,-24.47883967849741,-14.184865285041523,3.425823997133534,18.13043771998029,24.45363183419775,11.912759242562496,-20.934231749280556,-40.50881841916068,-41.29194918528909,-54.29764233759137,-57.8366958775872,-53.63521332879118,-85.19521150754169,-88.46007633406184,-18.71931477681791,163.44566961429072,618.3792223156813,924.0871126564465,240.8364220634756,-838.8644878731548,-840.7167550440566,-99.9678210660399,80.87805635028118,-96.85814553178469,6.4715100202292675,83.98700841548813,-6.308090024427482,16.44114134482914,58.62629480978107,6.958508845764813,0.6257823892757344,16.791950912479116,-14.853456534830716,-27.54194315463062,-23.106201560958898,-39.895208629221486,-47.81249195658326,-42.28519079771786,-35.20478890703811,-13.428564338069574,13.791180722160512,37.89929968753631,76.98756828019305,128.4718971147931,171.31488405000056,201.75681321244298,218.69965128225738,205.23582119997747,147.1002447053231,56.07253432993669,-34.75238883674759,-99.65414397290854,-134.93643930461803,-146.68485967700727,-140.7997946429772,-123.8240242080235,-101.69796812147278,-79.29163340832312,-60.51488986922002,-44.33682782112717,-27.82670092191756,-14.042294760208797,-5.8912297166144825,1.061959804317837,7.6817921872844295,8.982194408419321,8.8360876736348,12.124969722160392,10.371672314642417,2.235096747783052,-0.0879690976111398,1.2154664859126925,-0.9331253712485132,1.7156326450474388,3.7722697656847295,-9.97828939488134,-22.620341528712654,-16.406856060095283,-9.99221290249985,-13.09700515825112,-11.854290943909895,-7.968608111476229,-8.598505458858646,-6.806015666550499,-2.1378546697941445,-1.2814668391495587,-2.56688290355555,-3.0434630804424607,-3.8101496603117955,-3.7292190775747613,-0.7955730938059666,1.5327467319550454,-0.577226741336359,-2.6694267756118517,-2.5014802750158687,-7.824276394575998,-18.83480321331151,-22.07667640902041,-11.420281728137176,2.0499611652898313,11.733235654476179,19.94391554566796,7.882893248528637,-28.942576191402537,-46.58936284305333,-46.78560283749147,-63.08720365894107,-60.61476848017669,-51.100439651285214,-81.96617943094572,-78.29993350429177,18.44889432625274,287.17636846540495,770.7163597974434,829.0116143801293,-111.80247690469312,-990.0797180455575,-647.51601623481,32.27482188782977,27.967674534801503,-91.60384029199338,61.69260113763407,65.12775475495079,-24.749588027214926,33.436335293631274,51.09860943987905,-3.942078351878311,9.472690366407576,15.79248566533034,-21.265778324957772,-23.984336447363987,-19.59214040525746,-39.045934586568876,-44.759909527494614,-35.7088871659533,-26.951654033816887,-8.858243330473005,23.240127995768496,67.25623527213963,115.20012545596242,153.33694595119846,181.95372354575892,207.69168814053873,220.0677311328901,193.31018434797718,112.12403728430412,3.38801362993002,-78.84048794655726,-116.83725346757215,-136.3859834845248,-147.58302219772878,-136.62550568348223,-108.17022337633178,-82.26931451725356,-63.30231948005213,-45.2227060177913,-29.076505083204736,-17.243076830971084,-6.866735159696336,2.110440133486584,5.447521025810133,4.01155601552075,3.9170843985704025,6.848942872886248,7.716511933180669,3.96431081466487,1.2662537362809534,2.661401647592129,2.3254228932563468,-0.658318262587068,-1.8800331101742636,-4.960835864794456,-11.10643857085553,-12.820913746358588,-11.974215246132768,-13.924541780423308,-12.480017661626098,-6.672250739072336,-4.814518255051748,-5.992370200954262,-5.7342705007747306,-5.331638273552782,-3.8224146460259814,-1.0725466975133298,-0.9606184998957215,-3.988735070971341,-11.624604780974717,-21.054826189263103,-16.89507736166594,-3.834382529101366,-2.032774723531513,5.638527353994084,21.127250623224285,-3.057492955331228,-44.165019367807666,-44.88741643553125,-44.65985786569395,-58.48587574539428,-49.44426926180816,-55.378572116708156,-65.51068304655549,-17.85400921274082,133.79798092170378,542.9887676575333,915.151222887032,380.50366236433655,-766.8346980450987,-994.2829071386502,-253.45169736152823,90.0305432789207,-60.34465864337596,13.162951725197473,122.87935252093455,30.397360588917344,23.83867697158085,71.11841608451948,8.386757020848286,-20.391916296407747,7.091847419678171,-16.65399289046909,-38.983205598268775,-31.19761831353491,-43.504295109206666,-55.56921448639524,-45.56563485817462,-31.13306484674267,-8.523219203550202,23.71777062374542,56.55537522889615,95.57476301169734,141.6736791210201,186.1720834548936,221.2110117842738,233.15177345589018,209.33116078042386,147.00161930033735,54.63838692098928,-41.67904099433392,-112.81825880040772,-150.19564022301228,-159.4659127051892,-147.77240811896445,-124.03447733897225,-98.4494597782313,-80.43484284280353,-69.31242737739987,-52.17976356832351,-29.02514833802632,-14.836374540898412,-7.369751955998318,3.2353706682995167,7.092782080256818,0.9521107184088713,2.165343932965543,12.056811096257935,15.436927052972802,11.971500421315413,8.954343879943588,7.933794826628483,10.036707021922616,9.102088694485232,-2.1361119905472385,-12.548179960760974,-12.706339403421367,-13.148813422482998,-16.638757476961207,-13.49770317658701,-7.314189313076973,-6.145651399850774,-8.207226682031806,-11.737834630733346,-15.645667964296372,-19.210425390823836,-21.148992277138216,-15.454419159733959,-10.615991733675624,-11.478853695036694,5.728842861115046,19.30111585181085,-17.393523798915496,-55.71562450554367,-55.10488183428727,-57.308307205543294,-47.65385656835606,-26.520425697947253,-47.51691254152367,-46.93381826577149,35.003857600881986,269.54690984980266,745.1602114155136,864.7661523034303,-64.5785400518879,-1063.6882634633407,-799.2599894929116,-43.055678635666666,33.08657341825032,-82.09325895621654,78.83150908262186,95.93084770349597,-8.321191514189323,41.330003709230205,62.95708248613185,-0.45607059179268905,3.373983762717959,8.209601997956065,-31.525804039219217,-36.98930779893859,-31.351743300627483,-44.68409887609365,-42.280307492469575,-30.334923013103513,-16.576356013891374,17.647568950359712,58.46340815827949,89.52886986761607,124.99037273389033,170.68227741250286,211.87778992235425,233.7511537564489,225.99521980552169,180.11086685469695,96.94437742155759,-2.895319451584106,-86.22078960417787,-132.14052069485706,-147.37285682339757,-150.28937623877943,-144.11912493487986,-125.15949247887575,-104.10098936150166,-87.09551361008812,-64.52199688832167,-40.78948219380648,-29.055579397779155,-21.894517966023578,-11.198652912061291,-3.683380252218548,0.582933909209224,4.884826185778213,6.3158466987072845,7.9817386751526325,11.36634915669209,9.719573228930095,5.159488511961474,3.4261777558039093,1.7006358010210612,-0.6361149518332478,-3.0579034361718946,-7.890206149263188,-10.613619083198705,-8.0634025856458,-5.213283628968599,-3.841665341817542,-4.961159753104791,-9.697807193221015,-13.32986322394795,-12.58627012444331,-6.669396196678488,-1.5039334169510026,-1.9952592657573978,9.74600623184419,20.80632985672456,-15.711181782149492,-59.33874680793438,-50.87357080536559,-38.986092997191115,-41.58946572204998,-34.9760215835714,-54.71306792525688,-60.554959419338715,9.370264345120077,191.38111031654375,608.4089251574484,870.1179894158051,175.32148027886436,-927.0162157732991,-963.7496248501398,-195.38345270773743,68.17301121731529,-56.050024607243614,49.95659693756348,116.60305169104777,23.970660957433118,48.48031325657139,81.90287009021583,12.25173912902709,-0.2428167847141225,23.17708749273254,-8.582310180292067,-31.041009612343156,-31.30704711327089,-46.38163231347917,-52.08062817653612,-41.02914637565753,-26.67342118537603,-3.7036564010097806,26.410366301113513,63.4402571311891,104.5488352357723,135.78888068011986,170.02601574194222,218.3199630750982,237.26665034750187,190.74195178853176,104.10268346092454,14.267327358573151,-61.0067110679581,-110.09326672137388,-134.90633460002624,-143.6301692419378,-134.06367867820427,-112.76299645450484,-94.12603265122765,-73.39973229732354,-47.44667738622813,-32.00299597340094,-24.746024691869884,-9.542065403755654,3.3301983443497924,3.48846734372502,5.004938967360102,7.425398301398074,0.4246991034152039,-1.008040686544474,9.108447485744831,9.562627047481651,0.9660516108416051,2.8447339075454803,9.05335477109522,6.268448374752724,3.3017462315128907,6.282396734036331,4.630244992441222,-3.899466308923876,-7.473146424478737,-2.7251010290024436,-1.831696380517922,-11.907221546294483,-18.408779254906193,-11.937371139577019,-9.424255133081148,-7.477785593494284,9.911445111130854,3.271337872118703,-42.233909149368266,-61.09401407563863,-48.212566888350764,-42.85388914576009,-29.42944215071756,-30.76027201411892,-51.84667587097865,-17.534808816972152,101.20435875514713,416.9228082218993,840.5401630293729,587.5413247680609,-525.0113822367235,-1111.2003042690446,-509.7704330856131,55.079318272638446,-16.32411436414192,-24.12658423742579,116.42215259086372,55.36314112057079,7.955490275385358,74.7562341594041,51.784237498241914,8.525370852946356,26.39707984305374,6.157737079807312,-27.48354656003997,-23.11510903837014,-32.09373068652607,-51.88653795809951,-49.38853792176363,-37.923758479170175,-19.316685732004327,14.654907637131302,54.63594616838597,92.06471855924804,126.69104931736089,165.35147430793265,205.26377591647767,224.06334807422465,204.99491664524425,143.57106076675362,48.25577650375844,-43.80357502700451,-100.90819911655743,-132.11064631025974,-148.66413377905474,-144.61945089339878,-127.73910598518783,-109.56469968403454,-84.86601014057798,-56.406387433195526,-36.358912786041024,-20.5650526559473,-6.770999505499262,-6.535098519515039,-10.382488191301153,0.45897062374163156,9.900122889536561,1.5822143430258073,-2.306140422412522,8.876547028476693,12.066262107295218,2.5982042960250666,-1.6038897676500898,0.35075944621889477,-0.31227229417079805,-0.8610614378878712,1.9289085748249715,2.3042856520509893,-5.229219071809254,-17.188131963251976,-25.97097425951845,-27.09314084758284,-19.249549043791614,-11.193421163258202,-10.094863703081312,-0.5513692499029048,8.311276192181644,-20.794342795759036,-53.73385018853918,-46.02239206545148,-46.97276507516689,-58.42224073514177,-36.055657151942384,-36.0611922433113,-52.54770746805091,0.6540009729343694,149.90244578043493,510.288935061702,862.877468369617,402.7623919359945,-714.16337570037,-1043.3053019997517,-365.0972063912385,48.85072655871442,-38.80292353451548,27.16314319209004,131.28621118349355,42.00270340732042,27.46003510258891,81.51294550550539,35.833132823380744,6.810446104813689,23.775128952444295,-7.495121122901881,-35.696461612812556,-31.805364052905997,-44.72236864866295,-53.9706879487767,-40.28262333719448,-27.936941019248778,-9.505291301082217,26.278330311708146,65.59090237911403,106.40900310572746,150.35137810986913,185.2123890013024,208.02096079444863,220.3477138736588,198.7406867237509,122.43090145737762,20.080971155272945,-62.820631821530085,-116.87340757564583,-148.47704750311732,-152.67491076450102,-135.4851113590038,-117.07474435507442,-101.25622453069884,-78.74444685133255,-52.982395075382556,-32.0925594769095,-14.530907846908683,-0.2650705063768477,9.018237348556724,15.569624927358547,15.575466604333382,10.411102852807009,12.08114538494886,11.290099456572698,-5.592464883286237,-15.604482975626325,-4.762122713638021,0.4301054041342809,-8.76495323941375,-12.771731554319873,-9.6151525194979,-8.86567319650165,-10.270227213442743,-11.87118396856806,-12.900445574364754,-11.609928142363614,-10.702385391909946,-17.349262479289685,-24.720097104623306,-12.02712272724205,6.493129217982514,0.06185398059827474,-0.7533557211612756,17.81628363594119,-8.253884515764748,-59.2579078329145,-55.30846532157715,-41.87343685837141,-54.4929382022342,-43.01662834500783,-41.809070212434435,-57.18070232733085,-6.0080139283749645,152.58713548173293,513.3888439637782,842.1605767244164,378.10192620601305,-699.6269685947128,-992.0977790067257,-307.6293844646067,92.86669548825887,-27.681912157646337,6.336820014214631,114.1368724741091,40.66571420952319,19.047245666070978,65.79085495544662,29.0935242107837,5.546971684483287,22.55644135178986,-7.687225674486512,-39.28555416938544,-32.977811894801235,-32.83133468831038,-40.47417065648008,-38.66360398285926,-31.768411459879694,-15.473168761383,14.930429302872334,54.84219216525517,95.4177232434347,129.49996547085567,161.44839291114215,191.4874812315797,203.28683343767642,179.88688107124304,115.7057698497255,27.79064549621176,-46.78408977410845,-88.50571141109566,-109.47295000336672,-120.54518971990636,-116.27770644425496,-100.02325026457149,-94.21282329496547,-101.0102979989806,-84.8975378399746,-36.711208332560325,-2.2787203015192574,-3.8590863527752717,-9.635547843011942,-2.5952686609420503,3.0503192389047236,3.701244498463307,2.4669258807729975,-4.438978536014453,-12.081528018896694,-11.91191302516665,-5.568030770717176,5.160376018665707,17.1404361525515,17.191761811136345,3.5599838539449866,-3.295636802208575,4.604955887662999,6.799751544931031,-8.272214675959216,-22.867847393930884,-24.96643587333965,-27.602960611945413,-30.391536113570375,-14.49867987796327,3.348078676203629,-0.41745304423218776,4.471451262472438,16.597220731958856,-19.76043276391131,-69.01149852256923,-62.55779695478277,-42.420282698530166,-38.45268312458016,-32.53018742476291,-48.40200943186303,-53.576328625804265,9.973542814183546,193.51103908262078,592.4614206592028,825.0981733619213,186.49603794692902,-818.0873058672204,-880.1397208039125,-205.97205047997403,52.92417005715387,-42.15764529079932,43.901457926008234,102.03640165283599,18.100725582842394,21.504095994436526,46.36580712460112,6.385294006312851,10.296632796492869,25.570455727461837,-7.371484180929903,-23.985024279993816,-24.932484236467236,-42.68629862525695,-46.51264324042975,-33.60187775995438,-20.451884121202113,4.4339020191527005,38.63622235282148,74.9361057190502,118.15604262177573,154.28780022239238,169.66814495298348,178.16805143615113,184.76039730949483,163.29430249369346,94.84158779574456,2.247032344301676,-72.19227321253663,-111.29302386805935,-126.97270302466805,-132.3874976003444,-127.42435987858579,-106.75482324538396,-77.21443110127568,-55.19139649240003,-41.53214426454529,-25.995281590917266,-12.893750507516987,-9.843879213825467,-11.135471041902747,-11.913137604595192,-11.536345923640784,-6.399786281076018,1.1628511297646256,4.411577232030901,3.9457184925457476,2.0348451102640155,-1.653665824540468,-3.179795512484578,-0.23963831568402227,-0.13050732711923985,-5.944226341017915,-7.777824369726499,-2.734685579127053,-1.6924492224601444,-5.92780063280799,-7.2082958161646875,-7.485482375296346,-11.951680842403988,-18.682251979587484,-19.882550235604494,-8.405680194537537,4.2153306667843085,7.567918726810316,11.59223503951526,-1.1793545954338214,-42.822633327882215,-60.20896707369459,-45.74928394880059,-48.201777904958135,-49.013576208821675,-45.405239458866546,-61.67985358990909,-38.03725609430786,64.84720161162372,324.47951112294686,737.9139550832267,681.9433130093066,-246.33470441060797,-975.5136157707634,-586.2944449153221,16.156136529428053,13.629844840950867,-50.554389707718535,84.06905578324016,62.71161242833716,-8.239277318924064,46.573787828133405,48.12959600861308,0.6543451704521788,14.136317926250904,10.356586070573444,-22.33751895144382,-22.45277766438592,-24.953020734913174,-38.671563405568534,-28.379352451744378,-15.70395523314717,-16.27066511792311,-2.5439751404387536,35.56102790778573,81.97685952210846,119.16287541027853,142.54090468142118,162.86038659142977,182.6394440548563,182.22464030261813,140.4977483843902,62.291835199239856,-20.483854628449443,-81.62266880848871,-118.51559937404592,-131.96396365872954,-124.64733014019028,-111.39370204563028,-96.92331953962096,-74.37331616300052,-51.4034784035601,-35.124624731361024,-17.94199549117198,-2.0469178774421053,5.099590162471248,8.749391871206363,10.576767625534117,7.349879415948376,3.822121647740712,1.2988719146538106,-2.1418557264390152,-2.241658297757949,-0.07792307015394861,0.31434505198729035,2.3472054005462617,3.9678981665143844,-1.114251305317996,-6.684442437753348,-4.845426716835446,-1.1305449384360902,-2.642623243187529,-5.449133673315451,-4.2607576679520935,-4.617258050720817,-13.231756193441177,-22.183212584565688,-15.268828239413615,4.509502010998991,12.341956955657757,10.564184484273145,19.904711904984715,7.484299625326483,-42.7945990027388,-61.10737450488631,-41.73380948705836,-48.198609758968516,-56.88136925808475,-50.405994068917394,-58.905099816922814,-43.287981197415135,53.88687481463501,353.22812577808116,797.3647482289812,671.4816869082827,-333.63623597611064,-1004.569556813157,-523.9255911424942,60.03294313159708,10.716822294795044,-44.770755598548874,92.96369741318674,53.175824002885534,-13.604657353706703,52.04444311867207,50.35744766318579,2.0207874300266466,14.124391042432606,-1.3220252875559155,-42.57699076742552,-40.50982159343968,-38.92031632128798,-52.97933149897038,-46.13023678473505,-33.505072477822026,-24.2177320661355,3.326310688625771,44.22778843436304,83.1793674925124,118.98730862365512,150.09155584926478,177.40536229135287,200.86911208860965,199.8080112703367,148.728855695514,55.80564904517034,-36.19364839205914,-92.93021981266827,-118.79016844113167,-130.90132813010075,-127.31754495064692,-108.30121999440661,-90.08842593654842,-74.09486466003474,-51.62629532793575,-33.220470256628566,-25.10277958854529,-14.258205088891945,-2.207531204903411,-0.4722822059988232,-1.1618987535087797,3.31980278049263,4.281365913150658,0.44014466402993335,0.14198986579460815,2.418439538770663,1.4825448111027022,-1.7571986126203107,-3.0819527544684995,-2.093039021775496,-3.495638129299138,-7.956313413063587,-7.690706145071479,-2.8176004601829643,-3.91654270103289,-9.731221943841156,-11.045382484033528,-10.996743908337233,-15.523080465789183,-19.444315432790233,-14.094647606792673,-1.4962313848570483,9.149625138802152,19.94868901023188,20.323305001344018,-17.75588530720476,-60.350602996257166,-56.91532560875182,-50.38927044266218,-58.98070372735364,-41.423074632197796,-40.787522328724286,-64.3263232865531,-28.596127681453737,112.4970417580129,467.9476249320873,836.3673766121549,447.81125218643626,-607.3193625951814,-953.6844940420988,-307.64141909394414,95.40656230818011,-38.7955824077809,-26.1629110299654,84.36175851618654,15.94900758142569,-4.436322769434071,55.692461302756215,29.922140349106755,3.6774318297888247,20.21709698706984,-2.9036035526022417,-31.602549987673054,-29.90956856991972,-31.73376774518717,-35.60585098844257,-34.160396443379,-31.5705670327832,-14.725187335345785,15.74288739892014,50.189411075644756,88.18746400444805,122.40031626976115,150.4978789671311,179.05668657726298,196.81634313113761,178.40619883730255,114.21899081800859,27.24152304103443,-45.948345840872044,-92.30293536794896,-118.19174050161277,-124.92277153517648,-116.31673681348212,-101.96437174387205,-85.45493962670383,-68.60139932889129,-51.82216970263419,-34.05428550541793,-22.580205162254597,-19.096964979023085,-11.023386938105023,2.853813833597421,10.763849819190435,9.930913753811566,6.017609869258177,6.132890424971778,9.984222303405915,6.785024775873521,-1.0704983834326462,-0.9684168280698007,-0.24868727981426986,-7.392586987371223,-11.176454724277502,-7.4298465423507185,-2.7398325421605048,0.38514991839129564,-2.699337574628263,-9.170045762368236,-6.671384549075417,0.3599400037055709,-0.31145528251737886,-5.82630821125262,-13.480504061460211,-24.08502634314322,-24.15072785179619,-5.759752022841079,9.5127900392804,11.881153007443851,20.356189401343094,15.839726147337473,-24.803236463012784,-46.14983723109539,-33.57571063134418,-48.213879371653945,-62.827343142226134,-50.92043231180086,-68.62106410303483,-73.28689711578068,6.895193034458572,238.8928290062242,681.0047539184226,806.770077432381,-8.00662792670127,-920.956633515404,-711.0425284724638,-23.37534719578812,49.37102293240699,-86.86445634317266,42.490143730696644,77.52389016318222,-8.421803945056318,29.85155820844812,53.35478224301664,1.187764502946802,5.26761790752257,16.971186896390975,-13.35233287724856,-22.728157131756085,-20.9431537945906,-34.92068011599309,-40.1974897725885,-32.601564267268,-17.795570236514024,5.701920369828358,32.346950976527935,66.79787854752496,110.19931998655723,147.3968376405394,174.8253729883823,196.6965842478079,200.30712847616414,164.49141176321967,86.52558574386799,-3.1884776215381994,-67.05986667726424,-101.27118737882614,-121.22287977620988,-125.01059547352983,-110.61063127031673,-95.16899748314486,-84.61846861646646,-66.01642065300554,-42.70195630566763,-29.82642540604001,-22.295678811158712,-9.978103056854739,-0.4881254246102671,1.1634859464796001,3.240074028837043,8.200959935161777,9.763149548325703,6.31182760589192,3.527606352097319,4.951319712602698,5.343559563452807,1.5523231590911832,0.5979596055821146,4.289805176018447,5.027561436745158,2.2099036475492664,1.5239267211016037,3.5071674707515665,3.0820586464356072,-3.9029197316688933,-10.910673385380965,-9.173850278332328,-6.141224250263928,-10.513247910624788,-15.82622095179229,-16.341858480308048,-17.09590841294324,-23.851984161937985,-21.436385732416703,4.859302942790778,10.387290651205403,-33.214620858109484,-58.88206314229455,-50.389358011772586,-58.03355717374402,-53.01181677870896,-40.92551221564686,-68.00424299923031,-58.33289105262662,39.569100792981175,304.6973684081587,779.9745671302425,800.5229692382004,-179.54513330620335,-1024.3170501086781,-619.3471696491813,55.82457398453664,23.10645232745231,-84.96224316692259,77.15036495318179,70.5281336556595,-17.430061971460308,39.41085045810563,45.41658418218786,-8.984031518075579,7.0735874978177335,10.145412823033682,-22.372618537043863,-24.31229112402906,-28.144025659483813,-43.57240748650981,-37.84548727407913,-26.806268956482537,-15.709932330447455,10.435876575697904,43.854612821181746,78.95233628792874,115.92581293240977,150.11606445723586,181.68519538095364,203.5132666369258,196.9602693865162,150.17812268107377,70.55062654674065,-13.12549978711205,-75.03393963399277,-115.52971663005722,-138.9262782492274,-138.14947993008693,-116.29880721661623,-90.00182610443221,-69.42629817286496,-52.13080476439452,-34.49663381463597,-22.54540669076153,-20.05135886760562,-14.983169619752275,-0.8446264770359306,8.728202739680306,4.379856305232156,-6.058613750407094,-10.769471766880812,-4.933695888207055,3.1238806720187604,2.1734112655207554,-3.5888682015807056,-5.2302374043133995,-4.879077956377472,-5.149628343150221,-3.9478537793912487,-2.5685137981869826,-3.4188895808962574,-6.137457771166893,-9.09875768434239,-8.846372170824312,-6.872215818549435,-13.011306791679809,-22.05043154098241,-15.359988587076725,-6.108309737857585,-9.965444309561677,3.7400532384257996,21.705510925936373,-14.757687662530278,-58.05196265535726,-49.46713945818804,-48.545142016870855,-59.30905800882224,-44.371273413649604,-55.10610315032093,-66.31068812710089,-6.773489529536008,182.051879975037,621.1467943858437,883.1197285488963,171.4116427681435,-903.747360065417,-881.3983953845076,-111.65944308590848,91.50089423967185,-74.61555770979037,30.21596899443614,99.65333532582875,1.2749435237942013,25.308038119082795,69.10085558712765,10.930203342583976,0.6761108197335091,20.76680708352128,-9.477631099589845,-23.748069941734062,-18.037945602753197,-36.29038030661514,-46.389382751902595,-34.173499540625336,-20.55370034341785,1.691515076270992,35.9541942006931,68.45157993036477,100.38224689737986,134.66077049090174,160.9307835556505,177.7355923937645,184.21202776393045,154.8803049250976,78.43931555130968,-8.280849595540044,-69.19676359674361,-104.56545193840314,-125.04487194798688,-133.06106250299044,-125.80583926678423,-104.63729261446753,-79.26820737040987,-55.197711991355575,-36.80264745756105,-33.65160221752457,-36.5491393343854,-25.210649303834494,-6.792385977040752,0.8758488905950728,1.0773096533097828,1.8270497755605852,1.755503159721325,1.0078714728004456,4.496297817856394,11.025819140985758,8.983823991853118,-3.0067822009131433,-9.047367723154341,-7.119948924311391,-8.346272763683881,-7.804706139239137,-3.5343675159145995,-9.327899236505775,-19.610317904786204,-17.250697776441974,-11.951743273812593,-16.388524888647687,-16.767764275575942,-9.974939757694463,-12.128349482443534,-7.262544441459894,15.068180844449806,3.479540524714549,-44.918285297772755,-58.832916908962275,-49.1255841103888,-54.60421118810672,-43.668318282415406,-39.50176308820102,-59.51129631485217,-31.123181257929822,88.88782523315442,416.90505961286505,837.8493998483543,569.0188279918128,-520.9487185046861,-1043.9371829601992,-410.80522551236584,119.8200752772545,-8.425607818959175,-45.62225245232628,97.58512299934284,42.67172629190085,-8.796351492736317,54.35139588808701,28.94762251755466,-16.853047747853644,8.28419017262302,-1.3216112272042864,-32.612934134144155,-25.53798727371634,-27.707665639642396,-43.20390748477746,-37.359133854193985,-25.055186206040553,-12.322119633036927,14.789890517375603,51.945781539349035,89.90180758686165,122.14413272967506,146.60463931555825,170.36843912465017,188.06381264627402,175.11003519618396,118.62734820319679,36.54919966596688,-38.62114550298354,-85.86316404824318,-105.73269011489856,-112.13295118628801,-116.23915769040823,-116.75439260969327,-107.42767060755563,-88.32288802218265,-64.78804724970233,-43.80085977937863,-29.79752452441189,-19.117986536335152,-8.059825634110691,-0.8654486531235932,0.4205841373667951,0.22320351392550108,1.1223540871148359,2.5507573974188276,3.401973092670744,3.3843576809018394,2.8159148959931706,0.0900524426787257,-3.472560634529078,-3.0654725386847144,-1.7686017930171154,-4.366596153907954,-5.319467445656601,-2.8230820350680546,-4.593554332684363,-10.857703541515301,-16.711388111857246,-21.474151064035645,-18.599293043738623,-7.258305490488118,-4.884532498245295,-4.187132489379302,14.558970679285467,10.0523185411731,-39.053207179466774,-61.64244416220602,-47.777741439411315,-50.790764101348806,-44.97455871626761,-34.79223562320399,-57.83254997105681,-46.68358090703601,51.14812073257605,325.1736941269024,764.6948662827642,691.4893726101207,-303.66441677770575,-1044.968398972458,-581.4961240280284,61.62754786612926,21.829998945405755,-65.60700283437247,85.83963900007804,68.11580562535546,-12.125864787820323,44.71016113257057,48.272534992950945,-2.048071422963825,14.1076133890925,14.509582062425338,-18.48171375303806,-18.4726824084593,-17.702053222277762,-30.587046366032606,-26.104763152137064,-16.566396110838426,-7.527131492086788,14.548653675510234,43.725321398450696,78.12103501097135,113.00200347934327,132.35980144532516,147.0989765851429,168.79492949623886,166.85401854932485,118.52395601181635,44.12957936798388,-29.70221865084668,-84.0182557349727,-108.07155900338171,-114.82730445266264,-117.74088014012007,-110.16124455976981,-93.17627413511119,-76.16845297395727,-55.07714545033217,-32.192266658827094,-21.413248528807483,-18.48071402915182,-9.931490202999953,1.2380306052129129,7.798712462103541,9.935111791253036,8.114319807344563,5.3358875685119,6.881851000628206,10.169604963595937,8.856117858963847,3.132955770164422,-3.772111333457051,-8.991954486038663,-7.875085493380325,-1.293206780255277,0.910043382884707,-3.8887122722298813,-5.637397274335068,-3.622894684517302,-11.562098798975029,-25.623403570632163,-21.46071218540886,-5.548238743352138,-7.104742110845948,-7.525715983019388,10.926467352583012,-0.8823881186899225,-41.633123405186154,-47.10135777727347,-42.035189013959474,-54.09670699172479,-39.04578666335847,-33.23882918917133,-56.69306707053562,-25.911173440309334,100.93163066947585,436.12745457717,847.2422224260708,542.4581670211555,-558.1140759063298,-1044.2150214476396,-398.8350841496473,103.27937121933259,-23.463879714251505,-31.55839484666118,115.5247323451946,48.07445602868262,-9.249246863497145,55.40234353297551,42.14433417051127,6.630551358357456,28.136523927681353,12.59187726372663,-28.116316492797196,-35.72876170222804,-36.243129804977,-36.12485550640149,-25.056338642630898,-15.35279101693983,-2.7359153374102583,23.518393400082935,59.45312255790971,95.33049648124087,124.41404019310457,151.8576024692406,177.43364310314934,184.3338080621957,163.25930858728145,111.78941453058238,30.945516138761327,-49.903454039497106,-95.61478182526767,-109.86510279028863,-113.44193818828435,-111.51298316770963,-102.759868273974,-86.83348783110847,-64.54837121809219,-42.496758086706635,-27.109519309102488,-18.481239868365428,-10.91918531061333,1.5068666684677936,10.972896425648425,5.360370384252242,-4.591353294477493,-1.5951562192016926,7.9809515073211825,9.529563821936307,0.6331009248885664,-10.551222612458535,-10.25933167344531,2.3502737279483394,8.711551069821255,1.4037366131583102,-7.099860564421913,-9.457524819444307,-7.580251223003405,-7.654099358368796,-17.20553649824972,-23.11077544169706,-8.790924637590338,0.860433729448328,-6.656758397957354,7.771262026407163,26.04207274810439,-10.237155510445763,-53.76498996575565,-51.503273286804145,-44.67623286332832,-37.007065222124,-29.46413648966012,-54.13534197479909,-45.700512855095056,29.93592703869119,223.85006305289502,665.7894206520522,838.5637338724343,-2.2833198783369824,-1025.8327822202923,-849.0548488065056,-77.192997936823,66.41096194115931,-52.87075862964518,86.07883924019909,112.78945335561156,6.829346251028088,55.11821457408649,87.75805491736625,6.657261184186769,-11.602580777431612,10.495956097812634,-15.106277910413397,-34.87714720516085,-29.462639413946818,-29.338445467811695,-33.041421330111795,-28.432096795974214,-8.276796583842266,17.42642917710433,39.96152053706372,74.9156269405253,118.39910582961485,148.54690808786472,170.76754581349894,191.34940442668267,189.69501421183094,145.31799504840572,62.81842182081104,-25.422381000386274,-89.11582530628255,-126.74486359590261,-141.0524851765222,-131.31937020434557,-115.65166000922824,-105.19529923630058,-85.99050872495043,-58.1625006936702,-37.726959952001934,-23.85774729641882,-10.6980157724815,-0.9935054180557579,7.180579393843983,14.434798939015659,13.621534933348752,5.891074098437787,1.171729733506453,2.6691022132840754,6.066625990726488,7.82771330069672,6.484673007508871,-0.45118093398313874,-11.86978066958696,-17.71747775337723,-13.572249926409047,-10.726533702132699,-14.70803237769427,-18.989216987042667,-23.26679733771032,-22.8823059173225,-11.696596531842687,-8.254931477871112,-11.06583592250491,7.234729970157867,9.769252516969644,-33.81762763173309,-53.75600248639519,-38.0990327429233,-45.13947671041,-45.68483854872821,-34.482712370539645,-52.0318183775626,-43.87022620550555,43.63922855966587,318.2282350382874,760.0005012452435,666.0498561260608,-333.6353426517884,-1024.8324324548855,-527.8242228625993,82.13852389973584,14.14228041112689,-64.72308581942809,82.69987820630267,53.379382470584794,-19.81253775746952,40.90885183283386,41.80883357432771,-4.521379364731057,10.210164384892739,8.239264474643607,-15.915804027749658,-12.948963840292933,-18.112343082090796,-29.309331356139914,-23.552938759813966,-23.17540995894199,-19.455339463040172,9.027290714795758,42.93170770489953,70.99050931526702,101.33712484299126,129.12119736808432,148.97812285835707,161.26642919420544,151.45680151110324,102.28680509466172,26.90335704780861,-41.460344948858854,-86.70159667311282,-110.66677221838209,-115.48365467443477,-107.10998418503436,-94.37523413480919,-78.42578846239931,-60.089058725431556,-44.67158367770666,-30.948124739536887,-15.682171789354364,-4.978965459639767,-2.1181774676189207,1.3206323330516092,8.416451980354976,11.168446690639236,8.133359883480246,5.479216630354495,2.6865966422871868,-1.8165263160108385,-2.8136754610252517,-1.246447848687641,-4.230337814244475,-8.884148212867336,-10.4809002984836,-13.60138451364545,-18.336360558338427,-21.143529782700988,-23.120338043711996,-18.463034322151092,-8.954604667934927,-7.980368245718462,-0.024698059186107457,18.80413006224802,2.25107945788064,-37.681266356217755,-41.63277320769389,-33.07667682892906,-35.49275075357851,-27.021483556578467,-38.28502335947884,-63.07806503038502,-49.141279000326435,66.52951302579842,452.30643356269564,838.7793267878548,382.59057282832464,-694.8183804596272,-943.7057211588227,-243.05820614437602,110.80789120895051,-43.78456710526248,-1.4192349089869438,107.48247997633656,15.722626723333736,-10.616175943272737,49.68414270071633,20.777645439496325,-7.961395989847473,7.556687493307852,-10.538789773542337,-29.138882250443675,-23.44673285154188,-30.68482907270183,-37.4077573593964,-28.791997340069017,-19.087005200861725,-0.9527374391023464,31.64275039975754,67.24045911609377,101.23218348688597,130.4214452622024,150.0499235320542,164.5305460165709,171.19049996586418,146.68968759865822,79.49525957693137,-2.2235997264412486,-64.29383671136932,-101.27238465680381,-118.2729348804658,-118.7255939037707,-113.6356341288737,-107.1741289043029,-91.09417793412842,-66.88663102448447,-43.77973231333197,-24.912553128764777,-13.000223289752277,-7.262287628023699,-0.6022334301370904,6.924976020445257,11.849779402121968,14.96529968075118,13.210009930359043,8.37976691296483,11.296625105954204,18.300957775239507,15.830694189493835,6.5339485128400305,-0.39841071489204083,-5.609292134051977,-11.473331385082885,-17.906375304277127,-25.986612206252598,-32.06044773799707,-26.88393475848317,-16.194858697887422,-14.342850506621897,-5.251382983356812,15.559844807149174,-0.6606678588329249,-45.13698980794322,-49.7302181203411,-37.407068757071464,-41.35470843790312,-26.693020638282363,-25.098185016854146,-47.44585614963793,-21.64379605895408,89.18703543403456,423.4143845089029,846.8558908433611,528.3750351523014,-598.0874633587043,-1077.8187579627147,-415.23599987747264,87.89431959794226,-27.639933813961512,-18.506751998327815,122.36860269965334,48.48593884861479,3.605288513534063,70.994057003539,43.43234475128358,-5.333365343301107,6.24724313904137,-8.852547478366548,-29.852496492942816,-19.611371169750853,-25.002323369195025,-39.35260346993668,-33.50463131136557,-19.804915975171795,0.4967710337704965,34.73566245172756,73.91291149479609,107.31694284802666,131.62762801360074,154.06948817765823,180.1845740404623,193.9400865379571,168.66724772016684,97.32564120423939,7.5171540142096624,-61.86002173594551,-99.94095548880203,-118.88143742427346,-123.55736598520244,-115.39364966024648,-101.73084409719438,-83.9152721539606,-61.82897492349827,-44.10103924701844,-32.56861641427963,-19.63502543646727,-8.420527082437381,-5.238062497299499,-2.256088468668459,5.275847607398504,8.666741798736428,7.356051536980133,9.583179996979062,11.698320158174749,7.53731962459095,4.769819086077767,7.601484924976292,7.311728166004254,2.0195771039936723,-1.9108858972012097,-3.9057319167581817,-6.148981638607266,-9.142645142247233,-11.027985335369362,-10.763729346041323,-11.379709213509466,-5.257293362688832,4.558691863883427,-15.275801039533256,-49.90267272528909,-50.36023492563767,-42.77810055938331,-42.62874099304818,-22.24194092194077,-29.304218634215538,-59.341384161664294,-30.501296588743813,88.80621028430187,444.3640936265919,867.230451882856,485.97668028551476,-679.1538938492482,-1098.9849881041098,-385.14893352379727,90.84188873891841,-37.273544009239544,-2.224862240216357,136.12626655529547,46.945857561034956,7.315347448489867,73.28305214733834,37.678148578454355,-2.3231013426066447,19.609956892793797,0.055305718125470804,-29.720271187782675,-23.473629694949892,-28.866597774214725,-40.51552225747621,-29.625970709194178,-11.820549997346173,7.756964159035888,39.46208269639573,78.41106496802823,113.18625236051203,142.02144684830478,170.99457028303533,195.47252544885168,196.56292043329802,159.88600494706202,86.93087048177304,-1.8650542726245298,-75.2771262423526,-116.53051520870255,-132.166514274768,-132.19590415425347,-119.4717916971307,-100.59130884859235,-83.80751521918961,-65.05440460555825,-40.95768589340179,-22.537128641200354,-13.273588178907726,-3.812594745658295,4.707247636244469,7.55194403410087,9.875076714945664,12.56520918971716,13.372630443998556,14.964727688704016,12.560529342988008,1.9000636888002074,-5.824956222979164,-5.638412631220742,-6.467302738936974,-6.961208720484919,-2.210510579176262,-0.8578554511967873,-5.583105191592892,-7.860270561686505,-6.753306167650759,-2.575726041483165,1.8103145366376339,-3.6872951876798057,-8.390476732166713,-8.176371459820562,-32.547925402236096,-63.094718904174165,-59.39765161708342,-55.687800106622944,-59.33114137852952,-41.16320153240953,-46.10400840851495,-64.21641400391597,-25.58217588666332,123.02360138618846,523.5869547597393,882.4160942200248,352.2842909222836,-781.2934492920722,-1004.8842772458509,-253.28726791967506,106.03737033863385,-51.20357926841022,8.522376128508327,119.98663032379778,24.912445820645612,10.622435491364556,69.1768680860093,24.260992324250275,-2.339174056111462,22.17296244387632,-1.1007940415021855,-27.5676591316646,-25.04948998504562,-34.659264967670225,-41.47074305782907,-31.66424416654784,-20.504824714043366,0.40592888053232556,32.31752093893516,64.26423236432899,100.39286691376991,137.40354250367042,163.63849782808805,179.14529527743397,177.92986822511514,141.91318198574328,70.53250858366171,-10.365413977765279,-72.72831346061086,-106.92832107710056,-120.41695936285652,-120.69035433085068,-107.5550936633753,-87.87662788068174,-76.26397233789588,-70.19961360722091,-54.74186311747705,-32.27705631722714,-14.656484440886238,-2.1107950881085387,5.711867268357729,4.843334992434816,1.2935809634357618,4.8064695549165215,11.953021276876749,11.035463852277292,1.1084083454380718,-4.312923239130981,-0.16344456565059673,2.0830311910173442,0.9677543437840566,3.1938035466226182,-1.3478662863836703,-15.66184001036557,-19.792471403218734,-11.959072490461004,-11.531333516751314,-19.287076643988087,-20.37570549113842,-13.127467849843734,-12.181121589349445,-13.858719883969135,2.9610052892358016,6.806776176793999,-37.279371188067756,-67.9452326928999,-55.818353072221214,-55.96859049005729,-52.79940426752013,-38.869214787604484,-61.86418324417782,-62.39653522639492,15.80009882725534,250.0220297422313,726.9511297798208,853.4959849868711,-46.020236644352764,-1013.947931121759,-754.7022887860876,-17.45319378413076,52.20794658255771,-81.82477276400351,53.60739411793342,75.03033968904086,-13.058144302549646,35.464070696837794,55.59136493634003,-1.2489850490029237,3.2613260836103173,7.292674093260649,-27.001832567429602,-27.053729924151913,-19.321815871814767,-34.98931403641589,-38.12901633535548,-26.506341528035982,-11.349907555680232,16.19344133686563,52.25647739756424,85.9608378410025,113.17803184415605,137.47409332470698,165.340619792569,186.6838392356068,179.0851287097846,130.03604856879159,48.645424242862475,-31.29205254164505,-82.15769469200994,-111.91602403116588,-130.64001508688173,-129.3486676577863,-113.09873741342031,-97.3772050590326,-78.38225772163572,-52.272259032495754,-31.904065580809643,-21.780119126386005,-12.84112462521356,-3.675255292529773,1.6909413281363541,6.518528179068852,11.876648302682703,11.377303530690833,6.583864071375199,5.390118315616036,7.406182316409297,10.253393667021042,10.034009363359775,-3.047197813748731,-20.19545459087,-19.48211634511604,-9.201396091330777,-8.05204843088384,-6.389201764902115,0.5554854875360817,-0.9591049165812251,-6.182508668449124,-4.355377045354491,-3.2975457641411996,-6.484608951171047,-12.339660510062405,-23.858828865832713,-26.260704030887762,-11.833965192234894,-5.924758885837626,-4.52708949718185,10.382748857649041,-3.420597050123165,-48.843414233652,-57.357861441787676,-46.851602606790394,-56.7907838512255,-48.61734901540065,-47.26814008919617,-68.95433693763988,-33.21282533071271,94.7381219692337,425.7369121024405,858.2182435840224,601.5752352535897,-499.30738275118125,-1046.5399533380407,-426.0617476936045,105.99588390949721,-16.524466953801266,-52.668065124311426,86.7020979982781,33.163502349875046,-11.218366278506132,57.794334653837424,38.62740859443599,-4.161048361837398,14.089866211990074,-2.055275050333779,-31.750406730540277,-24.2682948489852,-29.146642777784447,-42.46866046067919,-31.220424835662698,-17.18144670549286,-7.230148421526113,16.131311352635255,52.26971357623624,92.61870591571,129.6905957125789,159.953678514587,184.6533192227187,195.24103499828095,175.4115320550754,119.316339169184,40.50380565037714,-35.24825309170236,-89.5340393397272,-117.64580490927884,-121.45020034808104,-111.06183028079067,-98.11503648309306,-85.32466089676325,-74.31202994628757,-63.132862890616785,-43.97821647624767,-24.520281147042347,-16.127751153038496,-7.154439919729057,6.677531539094524,8.17318549582161,0.22439940505120504,1.1348105579958752,7.495784343898249,8.692655915684092,7.734530522793076,8.211065531904653,7.46900898428514,3.915203957821955,-0.5245726919125993,-4.32330021642308,-7.761269935163838,-9.439031323407903,-9.339492517653573,-9.878632799501132,-9.24914061232023,-7.81300095245804,-8.941823104556665,-6.757903426239677,-0.5814170064577358,-1.4404658941452215,-3.9907534755148726,2.7058026028499835,6.99903165631949,0.7487951221493017,-7.931816405344893,-17.32413234359491,-20.083024348735076,-8.955871905649419,-7.131906849251271,-13.540554313109881,9.672678187873796,23.039339617518337,-29.306752980123512,-71.90448850807194,-54.76102223525152,-45.65599561331027,-43.546566080605174,-32.93868955970182,-55.17019265216335,-53.394233736714966,18.29148082621893,224.137327612301,687.0783764733475,862.2474075202045,7.376499386598539,-1001.8582758463839,-792.1412893842871,-34.625817484247406,58.096016301113245,-81.83366373814209,65.12331872256811,95.33570035573894,-9.099483820887489,39.003797189371454,70.64904439929794,6.043717784674795,5.311868807391228,17.587871114878666,-17.958614622664296,-27.23401038245227,-22.733386602144726,-33.37618253231578,-27.098711100563257,-16.62352110000048,-15.31810489237845,7.836792152118271,52.120964433533786,88.70710662040645,111.03669465113265,130.53955757093644,157.86309243306164,184.41853779363836,184.97796787749874,147.85944781214283,80.38799491336484,-1.5292485687082173,-72.04334518757167,-110.91537711396589,-123.10543634942206,-123.7087149447981,-116.56208963112505,-101.50870751869124,-83.81931217125384,-62.8863422620091,-35.32684627167363,-14.223044709898193,-9.128017613455903,-4.167614674776807,5.55714414923008,3.9861194795261383,-3.9863707691326695,-5.058369461847327,-6.184390840138088,-5.435069596151237,5.48832593010474,9.994784406567941,-0.5863377232324218,-7.900335912148051,-9.509535578233116,-15.803890006467281,-15.18582284905069,0.14223307105779703,9.506233852826702,1.669911015485166,-5.880983212108653,-4.759447214430095,-5.9185723152264025,-6.004646749379329,3.1326072380202072,5.122084132663195,-8.685881186079808,-20.493743235140435,-23.30825629228801,-15.26019953537329,9.394367712714889,21.5967369913089,-0.23585030576716903,-14.87570764808714,-2.9132477590834505,-0.29564626403792005,-10.484391524127883,-13.017275925375406,-6.934257344961523,5.320311249744237,-3.07642715132409,-41.93325181755287,-59.03042556861894,-51.938992747911925,-53.782938334261274,-40.87403023776692,-35.70801954335057,-59.090821735150385,-41.902065076309725,52.36573239348678,349.5515883904585,807.0438562671986,650.2288746069027,-409.0648482927462,-1036.0905971633542,-466.11299395770834,106.93300820008218,1.1911747625411557,-50.888292281427,107.36223720218766,60.95685123269074,-19.331010874775348,32.87927093905686,27.148020433256807,-9.867586012873565,11.358576381662761,4.157724521907719,-27.429341770625356,-27.662683191327158,-25.676555619626477,-29.125724269734945,-28.269142143752475,-30.027706525766337,-15.805844657070317,15.601123083388202,40.47889507520505,70.47332623299356,118.50628268846881,156.98358411038552,169.09470910826968,172.08093753362104,164.26850172631714,117.53805878013091,38.814781556568526,-32.571105525670724,-85.16408906464112,-121.77473594035868,-128.90313033884163,-111.37494155912252,-93.60189106320428,-81.28243628665948,-69.45513675142077,-55.10160889155182,-35.43096796880297,-20.45893234889759,-16.315642667750048,-10.138698680187016,-1.7873552378138235,-0.20922366814064475,3.511403679193016,9.908846748085626,6.43902732385542,-0.265743295443432,-2.393499847898191,-5.062038906179227,-0.294255192588194,13.582480704810262,12.081690103472958,-6.744856648697153,-13.808394731728637,-6.6903797525027375,-6.521800651603327,-12.032266433732318,-12.914782943840962,-14.113671876722986,-15.467609608298137,-6.207423682079707,11.979680828844849,23.820518148791507,17.808686010030442,-1.9089511998907955,-14.73109494239742,-8.80729769339574,-3.711485759418343,-13.197723613169293,-13.81496020495814,-1.6475413669400547,-3.867636524263435,-2.013801037281841,21.138134203231864,11.882145550794302,-35.672606732061844,-59.043414885465225,-55.085305190628716,-41.46317573788953,-30.339435968045972,-55.69653446491168,-73.6923906326654,-35.12686846606603,109.1937305325668,512.3432802701806,823.6483650962487,253.71005590774317,-739.6984535367151,-777.2750933264207,-81.32906881172231,105.92012010150654,-81.94716333818567,0.5275918082188902,81.67964347681124,-11.417907747308792,0.8770144665855,51.173206500562145,12.90644468787428,15.928404954903492,37.6567442687634,-5.28187928874153,-32.02660862791359,-20.84113676284513,-27.864731897907387,-40.90668349407923,-40.11250560214609,-31.72274264160486,-13.080394863059709,14.663640005049352,50.82076986878766,92.04573442556713,121.50640035676503,139.77223836673028,160.47149257931417,169.36577238386752,139.6629804428278,71.33641409183453,-10.083946341569506,-74.8710899274908,-108.86775320852813,-121.95743320556568,-125.00765751331453,-109.99986454471126,-80.25514159183703,-63.60962065784035,-61.3709444866687,-46.16559088000904,-23.810628145646362,-17.05761791492111,-14.668153612859214,-5.219212378306125,0.5179061109865728,4.4082586141320625,11.116603840778223,10.381606541021444,5.183406365136383,7.283854276622017,10.049852663707632,4.986566022947402,-0.8504856102280183,0.3911712210146785,5.086063239655015,6.084992724156175,5.422872382941297,6.210940266498524,1.8623461556134515,-7.60949489054849,-13.362410819541864,-17.481032623593418,-21.19116563515048,-15.123175077205584,-5.255110740262516,-5.885125745761123,-8.26094898882773,-2.295279978710873,-0.7141316174515353,-5.777128160061544,-2.8110882131431243,-0.7156403976780457,-9.734797405766994,-7.976538714346691,0.8757781352871641,-8.086357107889013,-8.117896483958042,3.872570086879132,-22.52610428193593,-54.49282138949307,-44.836741864098514,-45.012009813905024,-58.28036363442867,-50.312052196111495,-50.23886179394158,-37.59466636707609,24.053764236102325,222.51068341776246,678.3183725633384,866.1985875203711,56.52696547443955,-955.2200469068389,-817.3757484727278,-83.15932472938009,56.518561258240034,-70.1689751080485,56.55788826603508,93.23791715790267,-5.009354616842003,29.339285984345956,59.11977109405166,-2.0268072502424754,-7.484613063380209,13.169483517853193,-8.445405151775628,-23.904164422524012,-32.28789044751974,-46.27367729780259,-40.32847329712057,-25.483869510648,-16.35317702197724,2.9799075882121926,35.25342976819687,71.02595567009789,108.90882433166348,145.66311539593602,172.38394948569498,189.17345797927004,199.2409503933188,178.87777036924456,105.7588837536505,14.005964330619694,-51.86981045996913,-94.34529549156406,-120.91412936871029,-125.45394014695331,-118.8201909223732,-109.8226534199446,-95.50312924385739,-85.62514524535165,-79.34956862620135,-55.41426210901503,-21.84889017185901,-10.127703443061414,-17.942468140434848,-19.408459161669096,-10.317791852890444,-0.6502178252169308,7.151091341562726,7.650998202353396,-4.478287463801674,-12.598472194976456,-4.064360023882362,-1.203167118785359,-14.437454042962575,-18.066836167036353,-10.790177977219795,-13.587172643235226,-13.280140311673497,1.8137408637209766,8.974814566658061,2.3579017829926556,-2.890260046117813,-2.3715083229663794,5.340926661723753,9.140086181724438,-4.069724145050198,-14.122372569217106,-10.416600196127646,-7.766243536632537,-0.650556518338119,1.6259437826483145,-13.039160035972941,-8.061937197557477,-7.380707213013746,-62.73217293752249,-85.05358138307953,-32.91135871531081,-19.31963245616582,-38.74536298246713,-32.89231128926152,-47.862049316894065,-45.843187099964354,29.805600405478287,242.1146136834576,685.180574863176,813.2218999429482,-55.86256657155735,-1021.7805907596899,-792.834733488161,-70.32994554278639,25.978285132846473,-63.03366738498994,89.40630182582595,93.3707665823565,-3.6895417129835266,55.72529888448496,75.4661294810749,5.341017196293491,5.337628855914737,15.484224522621856,-12.251748934852511,-22.170476251698812,-41.886906094468465,-63.51123645808268,-41.133217602244464,-22.535056486379773,-27.205633615247258,-3.164902165924964,41.986873007111974,73.39480448964878,105.1987757398699,147.56437659449512,184.40947467491335,206.2048691892196,200.33822429865592,150.5585922161426,69.74637599425814,-9.165902817510233,-69.23145874797738,-110.28288279195414,-135.83943480980062,-147.7587236569126,-140.22033201534407,-112.88330981312424,-82.59457479764713,-59.96766598032779,-42.12723810606465,-30.38813014210852,-20.03580973363121,-2.700313376481656,7.790527945395432,1.1327090282816954,-4.425398962051492,0.15557649043255495,5.5929636641581535,12.311013842370361,18.608001414773007,13.383218248604923,-0.15575953444823654,-7.762212884374831,-3.8260150726492963,3.365707218476498,0.01697930687889304,-10.221809583991616,-10.712117193644836,-4.659236046869216,-4.0029507775662285,-4.641029740198409,-4.3028556560671944,-5.789106391134354,-4.9384725263570495,-8.605017462795495,-22.778189848745434,-22.269836932235844,0.5168272291602065,6.6436767943607515,-1.46019223569286,17.10060228731551,23.81899250164467,-20.76270455324427,-45.501608333675236,-32.135206415571645,-42.50523755233284,-44.66007503713731,-27.27949700744179,-45.70345862245409,-48.549137194561105,3.647454412150722,195.94248735681947,659.7971265373916,822.1449464237803,-25.220498014035257,-970.7764887594627,-736.8496409348802,-39.67164794794519,23.412943614826553,-89.09260039767055,56.779442048526626,72.36186312751366,-23.196290233845613,18.698608645111293,40.23714875429995,-4.888747273734014,4.057873890847514,4.377199864203051,-24.37547814424763,-16.690949419758933,-13.2634619087627,-33.46722085261928,-32.03257498494331,-15.632525341003118,0.29701411910668085,23.371797775499772,50.18999144720854,83.25795382682351,118.45281404599984,140.3169341021774,163.4130163887473,198.74160122043668,209.5832513907918,167.10481595034045,88.9316679812875,2.576592254445506,-72.38601191416734,-117.99154837571083,-131.3427064172792,-129.11785701873333,-123.55908856625993,-109.03330513658156,-82.9725608945819,-58.92048714982966,-42.99683239939443,-26.719087761680218,-10.576591877348552,-0.6142331780387202,6.319621191874221,11.306052314965413,12.241806180242122,11.296804893316466,7.7589694813497765,4.321991107992446,8.668057349856308,12.63261679842796,5.563020642681251,0.7257169614977346,8.244838596284708,11.944856781533792,1.888022525096785,-6.65506294847936,-2.753002874442689,3.2123401537439604,2.768507999933396,1.943476096317303,-0.031020727062527342,-13.212082939850136,-25.924516633824652,-16.427628840340432,-2.3306069080421024,-4.761582391605875,4.895360175473636,19.526207774602447,-15.23481916151071,-56.175640166689455,-42.277169156162564,-32.90161706415771,-40.82090514027721,-24.30725606518018,-34.60730053805195,-56.523847497354836,-16.87208622990501,135.75979568499318,567.8376750165675,949.3803377247868,362.8750812242871,-829.437195391058,-1033.7817701165768,-281.7485945464871,42.129267266532665,-72.59616494219881,48.68006543142302,131.98536177420286,5.30664461752685,14.025774180514382,77.6830888820615,21.007585665268756,1.5413654784126862,20.457548458344146,-15.634044206640628,-30.087663872400565,-19.627775281291516,-41.337108422263185,-53.43901984191084,-45.97028670386436,-45.63181764782421,-23.582615279979812,26.757367043433277,73.99658163923172,115.17007581094053,153.35954660201585,182.56270521554072,210.95436212771617,231.7188493051001,202.66704207091254,108.78921815644526,5.729777519108843,-55.35856475297213,-93.31722121566963,-129.3338838891488,-141.78072347615506,-129.54092772429465,-116.08022088241306,-98.9500129945486,-75.2733650959349,-57.724867050074565,-42.19195737198416,-26.724070640798303,-21.881224266917208,-15.137575342434253,3.95999929607029,12.941889559665938,3.3327698428111177,-5.5587480352060155,-7.551096354868001,-6.667362386159727,-1.2149127973791245,3.218814827524831,0.12739894328461077,-3.984461565448914,-5.190197190260864,-7.999892832924932,-7.488347044727327,1.0815055989039841,2.0638298218757036,-10.578517747709641,-15.089962297656292,-9.629047869451501,-13.246897926888789,-15.219528897975938,-4.2767202485092515,-0.6018597497558424,-6.510236643586525,-2.225406797194378,12.255947903601704,12.815320703704323,-24.243725251371004,-66.16461374184253,-62.68979747253704,-52.5053986417683,-60.19228731719635,-42.11036144319419,-39.55903220047182,-66.74263381131921,-31.343891854773204,97.94865206665946,442.0429423062922,902.4056017641085,635.4746608282501,-526.7079989968912,-1102.7846287198424,-454.6539464567028,97.19446690139063,-14.429204524575681,-23.085239515390075,121.69943136492017,47.33805886864947,1.4539942789495726,76.1374545888848,41.20408336249177,-15.910362235444326,2.3608824687653076,-17.276166526739903,-53.60822678329715,-43.470515289087814,-40.35323522218292,-52.12488550265762,-47.22328666652564,-36.38670014147137,-18.939036173676968,14.893743112565986,54.43405585356858,92.97239489327205,128.96228688780184,159.29200534679552,187.1457588697987,206.14604461975722,188.34411416086522,118.03173903538422,22.424357297839954,-58.37509473571564,-107.23568526834472,-124.79371855298837,-129.439985769264,-140.72671068693157,-137.42528364393112,-98.14168949051702,-59.44922525456829,-49.60604624280445,-42.36091266664151,-26.8570473173882,-18.86689797760001,-10.56688516288871,5.66771988968198,12.749927200746985,6.244064099296967,3.352020843926237,11.781406355530951,19.56246686025101,14.585234998434528,2.0409426065616607,-10.089956910508825,-22.110724575079193,-22.677928010853037,-4.5672027386001055,4.722449094814245,-10.324511448227135,-20.51975033995479,-13.044572432257224,-8.345984168282246,-7.440718656562009,-4.381350054384438,-13.356921281613644,-23.693266169366318,-8.813913837422902,8.587680846263456,10.76854837240137,26.52486080581587,22.103140790436342,-48.279298855241464,-94.53258977144887,-63.362676067255734,-42.74079885626088,-42.00104618191868,-33.099301664439984,-54.626963090477304,-55.010865585696536,9.101615369963952,192.93657954678565,648.0192426196049,881.7080927435887,91.85218993337196,-959.9571299436763,-840.3662856188826,-79.74296769740221,70.50972385692651,-66.49119584085243,58.56011346424984,97.03763507498466,-2.926086285035577,31.755301993120014,68.0906292269571,19.31815943711115,14.074075653395568,12.443242943804638,-28.61659581411395,-42.515805033898424,-40.64300257228197,-46.84085052864185,-40.38845429526805,-31.79546191330659,-23.067015545979302,0.16784483491991864,27.989717773591913,64.0612473011404,115.81569680030402,157.91662366417034,182.52905654524125,209.88403991024916,224.90506164745298,189.35600543504918,103.3862131957336,-0.8945190497787294,-89.44144493391018,-134.8382842147956,-141.25157461688727,-138.87835753961133,-131.71444215680756,-107.3247973784193,-80.44786464338398,-65.09982392670935,-51.95434930971493,-38.81832199366204,-28.179124907674495,-13.437065882285758,1.5712868393495896,6.603398110151904,4.329549450783226,2.557450073602407,4.538471105459054,5.400866248830972,-1.3855666770854391,-5.141660969046507,5.360344640891277,13.81570703290766,7.093375771773824,1.8738525008055067,6.053532188290245,2.500911882717041,-8.265699456915932,-5.955431796181358,1.3524787757966141,-7.006630587304343,-12.437019194939353,0.5883270944888341,1.6916793979008098,-11.9230039568441,-6.0711200918911405,5.039942922834875,6.817067046654317,23.18397218137845,12.470219257393834,-50.61896423908783,-68.65928300841237,-36.951907333301286,-47.82585189226959,-54.82457518860284,-35.037595049578066,-55.91175072995954,-50.98724029814712,36.07305397860412,283.22644714774816,780.3052292882169,866.5247777121549,-133.32146040554576,-1110.170305589432,-770.3503053074471,-27.295857804976364,12.864795146702846,-71.39488574141701,101.03320927251085,90.67734005498673,-5.62884870336636,56.147262266253016,63.38719450612301,7.377096925799745,24.66509691365028,12.368420925028214,-36.389128145847785,-30.89264754076041,-29.745356019201285,-53.1150024315281,-43.46606590574114,-24.436942941923355,-19.049167247562828,3.1047629843648323,44.94001963333935,89.6565060053202,130.58538572752735,167.2132040385835,207.16714551914234,240.56552003169128,234.50193207063157,177.4514607017274,89.69041632582244,-2.7851149607034706,-77.56250891544626,-121.15408649215802,-138.2427487623537,-141.65861991141458,-132.5524366736475,-107.52533872398851,-80.85366545738914,-66.91142959685064,-53.63069333281375,-32.79323032497585,-17.975860558185726,-6.144505787004714,11.900851195856939,12.864801687176866,-10.31665885809738,-17.589542738496764,0.43670608863448024,6.035330432240183,-2.93745828224092,1.6652042626518533,10.972920829668091,6.026501559096802,0.6531443792762186,3.8374063988612113,2.5070873577875368,-3.525891583552692,-4.565326369083872,-4.400649263140739,-6.983075305877705,-7.511501265684084,-7.814752162314383,-12.938334472279413,-15.833269609366512,-10.711757179954574,-9.611147911014548,-12.639226865936024,2.7772388673193276,16.822947782885507,-13.172499643116545,-46.30097863737867,-38.539413782899636,-39.04535331740788,-50.281593392810116,-38.31054075743642,-47.93559369515529,-54.18604574847621,0.03713135821534763,128.214598073529,510.26286533979464,925.627050815288,447.411480312595,-773.0180794330981,-1131.5772470377387,-381.5262466562727,70.08030197369243,-37.46484028474656,25.53092163284308,135.30576630955437,39.39697855138506,33.71096717312554,95.91145955657318,33.75082246641116,-4.268025460999722,20.58860639358121,-6.077153196847515,-24.491590341072655,-10.77560746787552,-34.45306071044702,-53.55340540692059,-32.72868736886097,-20.09560774845674,-9.476385063072673,24.36807085772895,56.09450457890455,86.81539705023263,136.8007512536693,180.8856260815236,199.60259095923746,203.01907216199461,174.7748543134901,101.40969823494532,17.72866847449728,-49.28624044671321,-102.67216583638991,-133.8565710363679,-135.4841436726422,-119.94507125048767,-96.21510163439697,-71.56491164233464,-55.974973516714954,-45.8552102861953,-34.65292872783833,-22.560587375929664,-6.691098893065504,5.635323783072774,-2.2801681958593747,-20.064271557685245,-20.027568537517848,-6.771303094292023,-6.12196559705594,-12.985790021864787,-4.632122564337703,6.46277932333517,-2.9605563156004386,-13.80111509759297,-7.786689842726169,-7.705004913101298,-13.662749596935527,0.9964515041025663,12.175013098025966,-9.091138095975175,-23.91194505176425,-10.133613671861841,-4.6504507166394795,-12.71933058366194,-9.017691162812593,-1.4981287738807545,-5.01967136665295,-10.66304860599624,-1.5759288412751244,12.677732775499532,-10.213829080781476,-53.644619173322354,-52.06815017887773,-34.46283410933929,-40.17096466497541,-26.233628533193464,-16.329993609105337,-37.42287286205459,-20.164641951862542,96.35838234967179,439.61113505104925,833.5602684223935,457.073757918366,-689.4880528460509,-1117.0699547167799,-380.71889038421125,142.95747944406696,-1.9795517496189134,-8.280379884678759,143.9994720690033,70.08849619537389,12.092380360461242,74.30818941505905,42.19561420753456,-9.330821550775864,18.548804559680946,17.416841054593316,-18.638186011807722,-25.505070785745133,-27.43994692388837,-39.75592863415966,-40.33182124417512,-30.499028818270304,-20.07777403988486,2.8481290596876327,48.75652370807813,96.6904833407142,128.8793824498676,154.57738432528248,172.71112008769416,177.87011708656135,171.29238202701183,129.58715390350895,45.262001918235455,-37.024070911956734,-88.26212223006225,-115.90465277200218,-122.81861117774167,-113.78304824722551,-98.06625780560825,-80.93977794815979,-73.69938963112324,-70.45860506045892,-50.485290473060815,-27.99779430498391,-23.700907321488774,-18.719756743417975,-4.6087196888992175,-2.5682874522579127,-9.184066348811783,-5.306312635659111,1.040944076657695,-0.782606068926377,0.9256810564193785,8.873638543036922,7.300328522457015,-2.532630733201241,-3.6444610252661143,0.9724799615587454,-1.9361961257367089,-8.211812740358347,-10.597528354762494,-10.694242649077337,-8.626630669254132,-6.495345476765175,-6.8987054050843994,-5.070544456646875,-0.6956646602193892,1.1610472900504956,-0.3028410625007272,-3.901362004578841,-3.109158865469766,1.4407095065246054,-2.204319405203991,-2.944481007252711,2.0334267602769778,-19.600487820265457,-48.96949028099047,-45.46293001818917,-39.209849829566615,-40.6556005751289,-33.64111469136378,-38.785742131470045,-25.26695446348451,29.731663602773395,177.82803832239327,581.3297417352943,836.773953537027,126.97266273069698,-974.8149262551952,-973.060639641421,-147.5625522782766,134.5842395807063,-25.362830814658576,53.86783600523138,127.3938666374494,29.124706040061476,39.39422529295832,84.26609599879403,28.077782050954184,12.663249880262043,36.076438340812075,5.411124496371329,-16.42695536636377,-4.821646608511883,-19.629166717650975,-52.954778033121045,-62.47801205633501,-43.31666568471282,-13.26446999020204,14.644116981940286,44.687493033596816,79.92165959471393,112.31314933502334,142.58341026816242,174.2326375767562,192.02406949497936,171.07302381960312,103.46640075703115,13.741585873385036,-56.088863581166535,-88.91429132606412,-107.39131096713486,-127.49579716760601,-127.65435812101995,-97.23070308891965,-68.59074203512067,-61.19264971421893,-52.00460164778184,-31.449394990738927,-21.290988014708176,-19.755103555311596,-2.1574054721308435,19.244831858840115,14.162210045614025,-1.393544895431269,1.6211370613380414,8.190104581435424,-0.19060241644326226,-8.324517549677058,-4.413923628443584,1.1372290475932854,-2.0749657005126174,-8.506938493457929,-4.398741643979736,1.4851564820104066,-11.064685398412216,-21.88848615309723,-5.694161955129052,8.657533809570706,1.1190326873367127,-1.5416443688390746,0.21141319268055092,-15.147122633626275,-24.7244866120408,-6.632640302772765,9.481278084412082,0.6380525052355175,-7.182004425610831,4.452049429182534,8.11082744296764,-2.754774724112944,-0.7151328862674484,-9.38316894185544,-47.09863393214535,-57.20645247083069,-38.8856985844438,-34.45700160625667,-16.628723215714153,-5.104613396081405,-32.545289409913174,-24.7604059642928,72.1181392507942,364.7571084332867,784.3921450298205,578.2088534535496,-510.9430479942989,-1142.2831538260716,-542.9891275765249,92.61474357931252,45.361795349725014,2.7049790898338983,125.28726295199634,60.94538889054303,14.246693700404599,91.93737606211468,60.225204270720425,-2.9424204130227043,19.257033690968505,5.630954932526251,-32.718296195576315,-23.12732971415372,-25.627962339110574,-39.35316931883554,-19.138930869087766,-10.081578808268528,-21.144772355948795,3.0844580942406274,48.921903566872096,75.37436233552444,102.67338463114584,142.974732050188,166.36631387086916,170.438378580534,168.2648490182944,133.6180787680586,48.05793913027151,-44.579199066190526,-90.95904384840401,-100.57343340689255,-113.25946751663552,-121.61977934191447,-101.91705205951197,-79.57224602512872,-76.7949224880416,-68.58914584713418,-41.71438446581181,-13.64963659263972,1.298469451735702,0.34480296732366966,-1.0758294922252425,12.04412864644771,23.769846310027095,19.724796359969567,6.86261313885413,-11.397912064281142,-19.966474675705612,-2.017175241642244,12.979621213677737,-2.0558537322348336,-18.226090995760497,-13.369477294819097,0.9493080451010352,17.20837875509898,14.878569496727579,-21.651553875110725,-45.27382684392327,-19.913821422810763,6.377740937207978,1.1728803755258017,-2.374817150336934,2.688593148822523,-6.097232713968113,-16.477480431721943,-11.489759868723038,2.1636352391329305,14.21538061365451,7.180126546056007,-10.314300476995735,0.2514942818119019,8.284307526684906,-30.70480689247311,-54.12560279396255,-39.58735139561993,-53.066511092404845,-65.11111492543806,-41.37907107323747,-36.29447406295796,-31.337113220369723,47.55909435501093,324.54057299545735,776.023127333057,711.4657164976338,-301.5846636242333,-1097.8177322904917,-653.0369716929099,44.8474802764894,52.00019507022606,-36.68381495724991,99.77561611343619,59.81976403637963,-31.373920015005346,50.96069023369762,72.99024848937451,8.891197059887045,16.13309404343724,15.687570940852275,-25.711055965222975,-29.77166325963342,-28.537517598767778,-35.479927049060294,-13.82219461071265,-0.5475608398718848,-0.5142605125210373,31.289726935603944,61.063741631231494,60.848518679842094,83.95021805677439,133.1918099023344,153.97324502297417,154.94859481573647,161.80481739531183,136.92585941983268,57.8629636317909,-30.68704398547009,-88.32882508208137,-112.15791466908314,-109.91941413209416,-103.5139487768379,-112.68333152465507,-111.48874688925409,-73.70929507821782,-35.78151861190209,-29.62143094433423,-25.479234912036596,-7.385031088748214,-0.9974742926523419,-5.581383530052648,-2.2075353930886266,1.0167482648332413,2.6544977194223485,14.915139856009498,14.737171373192062,-15.863969211698562,-28.914771694117327,4.821359987626422,27.904304930742697,7.343455440677565,-6.818015369693811,8.025334472064936,15.479626167216619,3.142406235790247,-12.58005457809153,-22.82058977720989,-20.506463888206795,-11.837683315862462,-15.43026017407312,-20.437939658411246,-7.00058022576817,2.358967624988445,-6.654627371279171,-2.096881313031826,5.7849405830486305,-18.551294168227997,-19.324322791715815,25.378751337777327,7.045306800395947,-70.60388967363951,-85.42388295476083,-58.883889430205116,-47.80753980091882,-27.612275387277247,-28.10797909027185,-41.109437152247324,10.833465325903717,191.04733183710204,589.7083984011464,838.8676746415023,195.56934713477602,-864.2447833659221,-937.6613225441961,-198.1609879955435,87.02977722627534,-37.720380494968666,43.02800445279722,99.4856936272534,-2.158645429777266,23.46711748866845,84.79087371390985,31.857813915220337,12.496941271362111,32.72459790368038,-2.859468750489762,-32.74645723349404,-23.603464446894098,-23.060565743120296,-31.085152613759604,-31.226640505261734,-20.587853977441714,5.56330970621109,36.0397352607732,57.36618720397618,74.48890410488765,98.16722403670661,127.18689832578423,147.8523454063313,154.43989581249392,141.24314137533838,87.62766711075932,6.445132685980699,-51.02709808879707,-77.93869865001963,-104.05509662476338,-118.43029968564977,-103.01036067072305,-85.13768982361333,-81.18003918477947,-67.45464744911509,-40.87533888049326,-25.022433354592085,-18.318807334886472,-7.653414099201218,0.7167155319467433,6.531457166968323,14.953975163736418,13.096721340546178,-0.53809129444641,-8.997634873507401,-10.967521282530424,-5.596457982025779,12.150918097537394,21.51604225109612,13.482208554963407,10.930518904725751,3.5950818780217197,-32.64805123837913,-57.50233945428924,-28.53769273453383,8.732929060435296,-1.0101878652091791,-24.4069940146738,-12.859780292425889,-0.17441202027958624,-25.100159465205493,-42.073968825954196,-17.01406888967157,7.969041603464764,18.517560816339973,29.00053683687438,4.141901991029187,-46.30983422087893,-54.701532462211276,-44.7449043109813,-52.540853259617464,-39.917639638655075,-28.170277763566105,-36.72503328347496,-15.667425918653933,78.3644936163131,403.6516398407365,833.7953333223677,549.4401521580578,-538.550581243982,-1035.7938246726737,-425.60405848941855,73.31263142258706,-14.89165785216278,-21.313536376092827,83.91342959692892,18.730261917429367,4.658633377606016,71.46613524807482,32.42532909990018,0.7237399671485214,30.706090069704455,6.602437448311585,-24.88389378790285,-15.606480091754253,-23.931353682015597,-30.259380528142536,-12.132601390738575,-5.496679762036058,8.62270919971504,42.398249065706125,53.73437258773892,58.12152751619844,92.98182294268555,125.14615515694189,134.68290416794588,150.0920294846138,154.03005484835393,105.9604913906088,26.375818606818985,-41.24468104072728,-81.02668157216654,-97.08315720222491,-110.03678853772999,-123.25255149413098,-110.56774030943524,-84.98000127184483,-82.2491302422145,-75.66082910195247,-35.47243080695629,1.366769810775935,12.590778412786772,16.00408332490444,5.243212096364637,-17.832861219599437,-17.517188520422796,2.118399682186677,5.766158472678372,0.49881318174352884,4.465507296385196,6.435209075105632,5.208225844955587,8.502683421515167,6.0107738629625675,0.7901266776089653,4.847123390577153,1.7778520089134702,-11.787011697101928,-10.714144329004863,-4.633904351975728,-16.933629684502236,-29.097846218916896,-25.190157027723817,-19.742083119812904,-19.13563239728325,-10.355762977168194,11.359658735230255,12.27193031568334,-25.972923153259977,-48.1672666869053,-37.69825761238461,-40.922383925968745,