ECG,51.30812404279254,-85.99402681148655,-1202.3854128597122,-1626.1613025384568,-762.6543665614686,-244.8800497984126,-362.35079413345613,-217.36524125238543,-0.6113151899557749,-44.163630433707795,-20.035037513233757,71.14685530858172,46.11214472227161,41.3745469971752,76.10469018862815,48.54421364755097,23.646185669591684,26.128744830471884,1.6990841120809907,-25.5811525060992,-36.07194217887646,-46.10904206300281,-49.37845751690982,-47.50354241589602,-41.041139719294044,-19.340531964346198,7.362126942852257,41.54972158744668,94.94458136868334,142.59316972304688,177.05458261577581,222.2207705217575,255.43348464180883,237.33986016073248,173.5629608766071,80.25636579095635,-18.82943481794332,-85.89927027413913,-124.33964775887705,-154.97674954144256,-158.18757374560766,-129.69715528558504,-105.0392573439562,-89.10278552744151,-63.68878182754392,-39.76681756408876,-28.548132824855813,-17.08916743930716,-2.1012396194822607,4.05005774196173,0.7425548150039418,-0.6555012514950711,2.6105844071192372,2.380828703063223,-2.261013138562044,-1.2807224493385423,4.977131568140825,4.704685432918776,0.29016404699944687,1.9651602587401502,3.402489638460402,-1.1313554284479075,-2.5918641987242292,-2.2552156776488843,-8.678081952489308,-13.293183583749538,-8.730188866811686,-3.9830554353373824,-4.057046115602795,-6.885610171844924,-9.779930682714692,-5.998965538115895,1.707311583577856,2.353373718331312,0.9386843817542427,3.558464568015392,0.8848140690746789,-4.756743807216649,-3.3271692497290193,-2.0329305347576945,-4.7123516627787865,-6.488267795064596,-11.549267694042594,-13.618026792325992,-1.9691936306842557,7.154506554178308,1.9778102156765627,-6.0476792635408,-16.5784948478942,-26.671482681920835,-19.648328745600452,-8.103048479837943,-13.129373556155132,-18.355705442709166,-12.198061480042153,-9.108697433934083,-5.594325199070692,5.026920443720659,3.324699391187247,-10.975745370184391,-9.478633007026545,4.900364609070765,5.647104840126032,-1.7955884128668043,-1.7154733658219499,-4.112680831586896,-12.833268379264798,-12.56303862916809,-2.266533877209776,4.036186985075452,1.2058582252912426,-3.3458853430304787,-1.885962045270965,2.2762506464418637,3.9702245881323366,4.84954771755821,3.589180973207081,2.6190960475094665,8.507805952570852,12.133331431825237,-1.3631831760546973,-32.41455471498445,-57.2539332312402,-57.50654446132773,-69.14565587315471,-93.03338775735794,-70.65350494054087,-62.168656820007286,-119.2645887957627,-113.23294764236925,19.42472823564748,365.5396276438791,943.9259108774257,965.0711327633878,-125.64856195130469,-1017.1487299425837,-585.3147418604951,46.679657281489206,-46.094987249075274,-128.82266989477418,58.15892675827557,30.358973449652623,-52.74665877612364,29.76009631044355,42.25773463230675,-8.984169397430687,10.21909610092655,10.479473728540826,-17.586570229546098,-10.805455820864873,-11.483779154272343,-31.284669345006954,-40.89153144223966,-47.73682892482856,-50.218821768957945,-43.55593774269839,-35.0405583293179,-22.8704236710848,-10.286608096451314,9.32689717766391,56.62574244602461,117.51514970225551,162.6293069450809,198.33643884417492,234.45467271748373,246.10263694913488,206.10376700508718,123.17143766631415,25.680896295486946,-65.56760515471524,-126.7487880239589,-142.1129351056587,-139.11468915586272,-142.23373053173677,-126.45591726119859,-88.69232519707964,-67.43761812049924,-55.4528019843103,-25.896631574673734,-9.523459856698647,-22.343940526895672,-20.1675713206071,3.392911433140462,8.984670897590338,1.541761330745178,5.7825251941494855,8.668486714260032,1.2369317024478192,-1.559842752584574,0.28102262478213014,-1.5614301449314922,-3.001322286218114,-2.00095541299795,-0.409379962436212,0.9193661495599166,-3.463970644405748,-10.373224259817578,-6.87729821578165,2.264306689793667,0.517103643956343,-9.50233441659472,-10.491816044386272,2.8807956613212573,14.871706102508883,10.669100050643921,1.3399451404471403,-0.014334180009065278,-5.126633613924634,-15.716773705316715,-13.828837723792011,-8.142833852519672,-16.769307335471282,-23.816338219427394,-17.377384291828886,-11.108899050714097,-5.562811706096332,1.9146828120141262,-1.6367121459593417,-11.134588023885918,-10.119837816269,-5.970407588759878,-6.556786735326169,-3.246079171821922,1.9481906423036452,0.502512946373523,-0.6431665896746184,5.524910743167984,9.637227573804905,1.4962060264781787,-11.953200999685865,-15.408284928229909,-9.673613597701003,-8.880144065377994,-11.939377543314626,-8.257844269529887,-3.9179665071597274,-5.152793266058944,-2.9736916827035014,1.7701829139036418,1.0332853613738395,0.18252723755449551,-1.9199108463023027,-12.956822042701072,-18.29518415242505,-7.163312746513945,-0.3141172365387881,-5.575390225613291,-0.7603542450227261,10.633970610092275,3.5206394226016933,-2.2791290097354726,17.374138870227117,24.38137584760247,0.3892158427695307,-21.691255676046556,-42.5837975170396,-61.767829629466846,-63.70202739017077,-75.55147161698034,-78.526855677327,-55.176400236785,-85.52756743493677,-126.92629836292875,-65.11182339118942,138.8957300219556,651.2002168386674,1148.4472713737805,597.2396488399704,-715.8553764700603,-1028.185592394826,-259.89542245641167,56.56388244148855,-144.8516109037749,-49.597313626163306,84.23364384169732,-19.318669949773003,-13.381248774836617,64.87126204472085,16.06066610536262,-9.337464625507002,21.472609281206392,3.832155624608201,-14.361389217700674,-13.78613266638626,-33.51595663694337,-44.32009099590828,-42.163272137430354,-52.72791396973365,-57.875802148317824,-51.128469690555086,-44.45661826324752,-23.25949790372095,17.979495226490968,62.145803150426886,108.390042219499,162.42426192976643,213.6425405281978,252.32236111257342,270.8069783884546,249.50748386532732,180.04256473146694,84.22174336746627,-10.963907840427554,-91.90822474821361,-149.24079869434263,-175.60001206101498,-173.88590883569094,-156.7391027551194,-135.59012941585024,-111.40306423448308,-81.0062763075016,-50.63078423939682,-30.81420316848012,-21.102417751621076,-13.691559971786965,-5.185729770148587,2.0758817210096296,1.9023698598125307,-4.468347015391064,-0.6597022870452491,15.750330666887713,18.741545785230976,1.1669829657709379,-7.918085467185982,1.2600007864970486,4.258470212950932,-4.596151021141116,-5.397409536631546,-0.2755505953188706,-5.721861209792445,-9.22291730769118,1.6150311142356433,3.727396100983892,-8.860138457658282,-8.210659356318217,2.2138221727021232,-2.200839775870648,-10.306540091738356,-7.004157368510409,-4.191958632367619,-9.010187540351215,-17.464580550908444,-20.894816435424858,-9.348702402203642,0.12623460094741645,-10.18671283120663,-13.336249201476823,1.296478916731905,0.23045674830193263,-10.65638756996001,-2.098892235106236,3.8961041672124557,-7.426385522199224,-8.468692127588337,-1.984462478048819,-7.213985722998524,-9.448792674160828,-4.104011008005925,-4.35514981023699,-0.8886157564726131,8.13112530144104,4.598158350743999,-5.10414490322136,-4.395656409615406,-0.32433104949382496,1.2538366356156425,5.5972132050837935,7.963100433498246,5.575579535997436,3.239009432990004,-7.5587856494111545,-20.5626780381036,-4.906881124973788,21.157560593315868,10.960021169558967,-19.790958587702598,-41.97272021431638,-55.09268910847932,-56.411850038728275,-69.79590389028019,-89.19279563351235,-72.20584915612812,-80.7844990247369,-128.41584587253772,-89.8410662087991,79.7824352195276,499.692231200386,1069.2038599354385,853.9179901605187,-401.7181541033071,-1099.4855008530344,-477.9132664488123,58.34455625007552,-98.93846137269287,-95.96207271232173,92.17983136862456,18.601630684309256,-32.40208696571423,60.024318788224946,43.52598945546923,6.187377639624337,40.607056529753166,24.94857731517023,-11.860082097691217,-17.30811303718006,-39.79423378945653,-56.041974170467924,-47.690641512221944,-54.239890636388296,-62.91484510246487,-54.614601025055244,-47.475792253823954,-35.55990313528058,1.6329863292637015,56.751218970834195,102.35570115015092,132.6426965443878,175.82997146421548,232.72862403699565,262.578625014676,248.04323488246425,192.33883785059317,94.45330317172322,-15.919262468063492,-94.81283919305837,-134.30808446954651,-145.51426451595177,-139.5304051241318,-130.8952396103327,-118.25851832931126,-92.3247837453499,-64.03776029098515,-43.95395791792194,-26.85898927412404,-17.690921866257693,-21.80828410972575,-19.1356028718633,0.3566221734266115,12.265358997107647,6.1324667267745845,1.4446210243538822,3.157811752219109,3.71554970882074,9.447192633406036,15.835274460108925,5.707755382184507,-9.154917094206704,-7.414239944427994,-1.3790277288401693,-6.24851996148001,-10.602589017783785,-7.955998724279812,-7.941395278356461,-12.036929181233713,-13.726023427672413,-11.980504521716878,-9.7180251437007,-8.711956858655865,-8.12849965830372,-7.183706797677495,-6.775146920935057,-4.835960915391851,-0.1996311083122304,0.8554408987729722,-2.535638568106762,-0.36146063015167584,6.8008662116386684,5.5957858718209526,-4.29416313641017,-11.648993239040312,-15.37117521243438,-17.173304229135947,-12.478006086411618,-6.166793735789236,-7.557389216272487,-10.78201497541863,-8.900404208172283,-6.267058891460906,-3.760887629039223,-1.3550308896642793,-3.9341977984125194,-5.963957824864295,-0.44505864893741265,2.7683482352063375,-2.5701822559583825,-7.41107073080202,-7.604083377481251,-5.831732497983496,-2.6118368849165376,0.9721224802624508,4.506223810063462,4.855393701188796,-2.6871319226073,-7.97777736437362,-3.1463401812962353,-3.2604609696006808,-7.612137688218322,2.808912160746239,12.1365870667277,0.8497366587966866,-8.385457421653552,-4.035415008685067,1.617406407943304,11.037593930044732,16.558389736177332,3.604752817971071,-20.40031432254473,-47.21655168526687,-60.12930864177927,-58.77937565279832,-76.83940050788247,-83.36753947577199,-60.78004670644668,-91.56181484884401,-132.4428498347566,-72.50163180934285,133.28805049126592,651.0472839185948,1147.581720240808,606.9611198556456,-677.6317597345503,-986.6724481836759,-247.32979588680755,54.881721336573364,-145.29066282175563,-60.395065552426885,68.5402212105419,-24.856395090220346,-18.013521159279495,55.36714526738128,15.037503949784895,-0.7593865175480499,28.26862099825904,7.477120912461199,-10.480543545354188,-9.794116593270257,-31.181217917703368,-48.069365167137036,-50.623614040479545,-56.62887321143364,-57.20369412643164,-52.07563361538416,-46.29198012668965,-30.690744676173363,-2.803257515822448,37.20769149202856,89.59201040212713,142.5190915851044,184.03337549608594,215.42609659537666,241.48190756440508,245.64079904076925,192.16493856926303,85.35212077502842,-15.726601712721353,-78.55593918627658,-122.0395649515167,-151.33266682701966,-152.7138322936783,-133.70356827267582,-108.21452247785213,-79.06395673523505,-54.087724331652325,-41.78397718694055,-36.05705936033392,-26.125853279289547,-12.397113466300048,-4.5301925421473115,-4.727051659237091,-3.1582763365220075,2.376992000243135,2.7655631582602744,-0.2075994452083183,2.532586986389937,5.631792677331667,1.33371563489173,-2.7362596665628267,1.1691619432061628,7.619939288835276,7.194488204216666,-1.2631087341882612,-7.688467572089566,-6.339614627586778,-4.7277736432388835,-3.8149860206975035,0.732253584564651,-0.3861255482894954,-8.304473138497894,-7.090483791727388,2.082732747634754,4.976223658025459,-1.7401643291262854,-14.712155363686776,-18.704921259981326,-4.441470584308092,-0.24441867081294255,-18.05394377368698,-20.13516867711961,-2.217809483457186,-1.218864258814632,-9.552683407167477,-3.846114185060305,-4.189723977716275,-18.266368062640872,-20.007821657572727,-9.96290428259681,-6.966167617942851,-6.245643622580866,-3.070871439937404,-6.566744902617138,-11.321027820684124,-5.28553272785949,3.0048440907826794,0.8083524091079806,-5.5566397345520215,-5.815185320072636,-4.098318554627017,-5.540423021844687,-2.6572615988107566,5.485248696898825,4.319077635017425,-5.253981408324167,-5.984083177077226,-1.7498635978261703,-2.5568308105640156,1.75463194860074,5.823036378735216,-6.2403160024576305,-13.752977738646344,-2.3721050028444726,2.5738347186842914,-1.4077161753574154,0.6306175220035515,-2.598028166308649,-6.241164307253415,2.9738765685906823,6.596140671245496,7.420581815991966,19.631640783078133,17.85535128066051,-5.872837462031112,-35.46063637082866,-60.894075252422184,-61.304559467941175,-61.51757097954327,-85.04452325339469,-78.22853627362223,-74.16271786424292,-123.45085967743505,-113.97212460552262,26.373805180259495,400.2305894952592,992.7394067922007,966.3273101508045,-177.7257453752846,-1041.904464822125,-561.5671124994055,56.267400028061985,-59.142560078363246,-132.0623963704112,52.11290178866609,15.901711415888116,-51.801351019980935,37.732049261565024,39.72644746958211,-4.525544203924088,31.917469730152895,26.640473668803118,-20.776622925512868,-18.015112179437864,-9.684996905822038,-24.945365151937285,-33.04156953635331,-42.65289091118252,-62.529318101553756,-71.82547111123765,-59.04449963122813,-37.69383213028502,-20.828741412211738,7.8679006009543,61.8497877216612,119.08768071236753,162.0982852554703,199.68275238340772,235.05424702036248,250.19689500365337,218.78866980250743,135.0349297303298,31.77367093064926,-50.45950433766086,-102.96037264873111,-138.14630290526978,-155.91926301283672,-145.81828640510753,-116.53406680489326,-91.0096509646294,-74.6606640793013,-59.61092487664215,-44.46388950685453,-29.977207422609006,-16.81407837969944,-6.600045966096424,1.6112212789462106,4.7297511206638525,1.4732305237386747,0.7707139424483458,3.413138722300335,3.6311866126713035,4.631807068562248,2.779052099931304,-5.006870960296299,-3.3955216202752148,5.464143349860356,1.9409962822700226,-3.1446061707647672,2.97731847646034,0.8832089759996347,-10.601612461923093,-8.572675527185162,-0.3188136958252539,-4.751815076719058,-10.420010154032745,-5.40974389419411,-2.7481499156268008,-10.528840394170249,-17.001729744863297,-14.01825078069269,-8.598534677246043,-6.41711400799697,-1.917302046415248,5.35043924243133,5.712501411253677,2.716938933091228,4.5945403923571995,-2.235204208567117,-16.89128278822365,-10.517323198111479,3.818020756671194,-10.158095685294494,-26.453001967703923,-16.297899134515596,-12.02674731803889,-19.37859060777683,-6.7679467814769305,6.959394826236123,-4.226654087832708,-12.90012322422026,-5.461486116035898,-3.4409567393003417,-5.866284419269544,-0.08708382267001813,3.84163702339481,-1.6753482492638803,-4.665450681958829,-0.4446014627555952,-1.2517192830545714,-7.85497193053521,-5.092989129440761,3.3041323441491786,-0.08611208759990774,-7.17599578738192,-3.177635141040435,0.9097091247202016,-2.483054736165175,-3.5139475031649248,-3.836643084707549,-8.058750480174973,-6.7153684391221145,-1.3949304023357358,-2.9661437641796757,-2.873444628632143,3.895357194371327,4.419495487981379,7.3303028731268505,21.59601958285196,19.691864984262946,-0.8225683433000937,-18.1297539538112,-43.86903871803816,-62.12460743716764,-54.70529193717246,-70.73838447537545,-89.15526473741268,-69.68888549720933,-94.59947426856104,-130.31879624830424,-56.65141809898773,153.57607457773486,652.7939891590883,1141.8261901710791,600.7858535120379,-707.2121714844724,-1023.991317834056,-258.72770897900233,53.15688252786231,-146.45534649877288,-41.74074308527406,88.40882514908517,-23.434950959411196,-13.035414146798697,63.90744949911332,8.437022426539748,-6.510671811605182,34.94647869184528,10.859937597727138,-8.934572029008699,3.6202469350875095,-9.656302259790529,-31.22281301876239,-51.698773183972946,-78.03957534373328,-77.56871174448185,-56.27080029557682,-49.212704737390055,-42.1207778896579,-9.60427769656981,39.197746719555944,90.80532947379592,142.8638272914768,188.6902455712804,224.26742873576333,251.3073714828301,251.01081226394763,198.24678658850027,105.53876818462126,3.5359724685113783,-88.80037652635835,-146.5458941558093,-157.35414062242654,-149.6913263949401,-143.85777894451127,-123.63773371429335,-87.03321585117615,-58.9193853823482,-47.36948272471113,-38.70249279920201,-26.612153344716635,-15.997600204408858,-9.014695611572783,-4.736504937281417,-5.005749499904972,-8.892963477437824,-8.812811826692986,-2.02299056714428,2.881707765888404,1.1842299627396393,1.9214757776528018,8.068647669775423,7.239867774067637,-0.9882136566949704,-3.7972698609667024,-4.479978171473329,-7.010720147541036,-1.2315404440065372,2.8632952650055294,-9.254951078420081,-15.486988977345376,-3.7311273258812854,0.6766181828329163,-5.973070096956963,-5.420328574618646,-3.1188598093256186,-5.655579736348857,-3.8835279904255504,-1.8195049046911311,-6.799381216308598,-8.86793157867669,-5.009254175509195,-6.918878511466222,-12.778974015182882,-10.130645100601619,-3.6613897998754243,-3.9391286960166596,-4.082858716265129,0.8750066393199347,1.966964023625481,0.7414562441385053,4.053768657817336,2.490870947240629,-7.887918517022774,-12.090596893181436,-3.7793757259392713,4.7762855136716205,0.7275087663948092,-12.351162841875587,-16.15061450041083,-8.055810026723012,-6.305540788281498,-10.052095201653795,-4.467419930445239,1.1399515856054325,-4.1793850707912625,-7.473554322973883,-2.3787950453076174,0.8117031883238903,-1.6737899031607304,-5.940118126217154,-6.926232191194286,-0.4528587914649327,6.7090722536164895,8.196640711835343,13.764574071956229,20.557373862246028,12.118273294251594,-1.90934395157324,-17.984741218234348,-45.94451102217556,-55.813563466107865,-54.4402306500078,-83.67037043293487,-85.99015851651369,-59.01318771654488,-99.99778884103571,-126.13149541650426,-36.70973076240777,207.5389322082051,768.5206384368009,1144.709516699083,351.93288323299396,-900.5692228652733,-911.6122443811116,-118.0657373528404,30.487172397023038,-147.97915400404077,9.14584286595732,73.1073936811327,-47.796067148985614,3.6474704740769965,65.60799617366493,7.223389970567958,14.262782447962747,41.017533438755166,-5.042980936640525,-26.205538617750584,-13.987993045012237,-26.883581653153225,-41.43860268255312,-46.48970823802786,-55.7119448060471,-57.87990910138635,-49.94639515701155,-38.0939593675089,-20.06120624890265,6.9364147659117705,46.854784892056585,98.0862890900991,149.96383006806485,196.96727531447158,235.60636101004508,254.77252137709038,239.39127183900473,174.9434203446543,70.0903818273498,-29.34387607069811,-92.0766169844969,-133.87342917282186,-161.3610182315944,-155.80575251928357,-126.88757523555375,-99.96496434930359,-76.78586506432903,-60.752044751395644,-55.57678707566184,-40.70847373590969,-14.05486355440992,-2.599396205943009,-4.543862461173891,-1.5567105075131487,-1.4289816684617023,-8.952642909596161,-12.141615217200318,-9.006098665232134,-1.8995385493491206,6.146592113142638,3.254826341634807,-7.4916540484276055,-6.260716784663284,6.555495540011323,11.593118387672563,2.806605295419562,-7.5998762277273055,-9.328859917708508,-7.905172240658771,-10.366194989204368,-10.012250569124786,-5.646467364446165,-7.377068662183827,-10.377799593830675,-4.280004053901472,1.5438540735214872,-1.9952761968950536,-7.805449050212365,-8.967263366080982,-4.3344081091305675,0.8340488456421351,-1.4732554326306904,-4.760151086907955,-2.0624261492620732,-4.481511437301503,-11.449285626769349,-9.3911946311651,-6.7462539846415766,-10.080470822748598,-4.8534670913288895,2.933077818964419,-3.1675119438538655,-9.9859202795686,-7.392614642869622,-6.235771969760366,-3.919327132666166,4.26286015888096,6.067386568962218,-1.2145589787231756,-8.71055421079414,-11.508174694087726,-5.798428358581781,-0.02707481852560889,-5.947720804153176,-9.314752073537232,-1.2991758622411052,-1.304228280867262,-6.850786133146374,1.740011317866009,8.765967459180619,-1.654477582366142,-6.825638768497253,3.1032826466852175,5.496651997955099,-3.628780759501508,-3.191100663728167,5.2390390244276395,-1.6374079827879786,-15.426207931436682,-9.44827551826316,1.9887710270104586,1.7474876064890381,9.557005065705328,19.832712104062995,7.360343473323418,-18.709839770951127,-44.123680510468674,-56.13362046781822,-57.12753365991899,-77.49187574250813,-85.53382457634842,-64.40644535071702,-94.90817769389915,-132.4297423376624,-66.82471892096657,143.35464829862224,650.9952216783787,1113.318386044953,549.8427046231147,-699.6090689613746,-956.4795758767557,-221.35346451909396,53.1122841496831,-136.10766449058167,-37.4220929009592,72.73469791732111,-29.838253738096412,-9.224825396110639,63.12783012533287,10.296756804260902,-1.3046545799223637,33.934847017217876,1.3727321758040762,-23.92083666451765,-10.667081638928588,-23.411357632466043,-44.33116450115166,-45.22931069500699,-47.105097248568725,-52.079520831447404,-48.57527700878238,-39.034986960115376,-25.502812282331085,-4.347698300886613,26.445615224423705,69.68675254523555,126.5203827052814,180.27575770810753,211.92357402522236,230.1785043822214,237.45007775382993,200.72226970103858,110.17128073080333,7.904634418103953,-71.02821536887406,-123.70539745938763,-149.93237346309004,-150.47007689382997,-137.49029971876735,-119.42300367232573,-94.70605399132928,-66.15047500945388,-41.74925570965193,-22.484893241238876,-5.401943449939747,5.388292256132317,5.5805542285779595,0.03177660941805627,-7.321516301204603,-15.455975141035438,-15.852356299579597,-6.775450885992193,-2.2203319704133015,-4.943069315477615,-4.662126745260188,-2.568606814316066,-2.2539282712626196,-1.6322430903859235,-4.930725654650486,-10.696162151937967,-9.017616836983478,-2.660701567048113,0.9004713749781779,0.33564489246411355,-7.17412456745709,-14.944954812071016,-10.958435989819638,-2.986821549747969,-2.5182222489753094,-4.841031471590441,-5.852732755003036,-5.74306394600687,-3.8608318382595535,-2.9711916021010962,-0.2332407454617229,5.362496659023518,-0.12368908161198178,-14.097630240773135,-14.449444298973745,-6.330689277827751,-6.395742860948477,-5.054752511222851,1.0076800120928393,-1.421685234929516,-5.752091978949142,-1.3708670135405416,1.3715091046445647,-3.991496927554243,-10.330659361108477,-12.178655290771076,-8.756402544733593,-4.337472186940014,-2.236726846033335,-0.3560535118572279,-2.0551864649862335,-8.004462477763788,-7.162047734004801,-1.439314497602819,-2.323527097417985,-2.4672971460369064,2.6431178289097237,0.4043392212201118,-5.016671164220028,-1.8057904841627028,0.6475745770630357,-1.2850598619402875,-0.41570501392523695,-5.127316507637737,-12.8726621699267,-5.030597044319171,7.270736047220195,5.665732026176601,1.4157985268461593,3.535793333942725,10.781384471854729,20.21290706000635,17.50866428987809,-0.7680767146274956,-29.354654805549245,-58.416910091899204,-59.188399283228556,-54.6815610085354,-81.02522363482811,-81.44935983522844,-68.26192963082539,-109.01427841316863,-107.3508245525104,2.8969956142124715,294.23363021499176,883.9568132882907,1087.8102020835386,90.23692248191577,-1015.8959299394038,-756.1118960075564,-14.677898364768767,-24.983870040729343,-167.0558195561632,26.94123677176647,44.44644922209599,-52.55349348463233,32.201813241129926,57.570173929410004,-15.811916773028,3.1990162551798225,25.263693329948275,-5.554508769924865,-6.016070249006283,-7.726351657035381,-32.747761526080296,-41.76278089237086,-49.918801187918106,-59.938119837936895,-54.142877912241474,-51.78439165913399,-49.69028814936895,-26.00517247678348,8.04929435488534,48.160487276994616,104.17606513195204,160.92794911507428,203.3800538368542,238.08394735384707,261.0196047023735,247.92345421529063,181.99230680122716,77.13251518990263,-26.478088639645332,-98.1093948437325,-140.30506006948195,-164.21034754803713,-164.8662456452003,-141.50583014615665,-114.20418503606973,-96.30449262037277,-76.2139187173581,-45.45796173315606,-19.288459911826216,-13.387413113445483,-16.571841141718323,-5.839744544742388,13.496442395808998,15.407650768647766,3.061745482878404,-0.9982116072467591,-0.569567797398836,-4.322003749762779,-3.9405565118560375,-4.682888481958933,-10.112057367928244,-0.5234555547349036,16.816935354570052,14.96637753244229,9.10331581173563,11.897101690804877,-4.872087198051684,-33.94794319838606,-34.596431268679524,-16.070450239765826,-9.212790034985662,-12.994921759539313,-21.793377782874778,-27.069919289953436,-12.65210797763449,5.625219963843447,3.3155018055600536,-3.752442888767767,-1.3584406647529494,-4.190207315058489,-9.526587958496155,-3.8737714504527503,-2.5690545253152237,-14.145274538164598,-15.402579870989152,-4.500180809710441,-5.321165515022338,-10.987583868854816,-3.748103464273898,0.23569026842995378,-8.530608224797204,-10.338998026207223,-3.02037671136352,-2.331014312096057,-6.009773621028566,-5.001151192292707,-3.528543618466978,-6.953955112346485,-8.788021388515956,-4.048783228066437,-1.4323544082055202,-1.5050318102687132,3.7955460157390495,6.63839945945344,8.920043001393378,20.682589577648717,20.101580868246316,-0.10749164429567948,-20.43158654119264,-45.44628875309345,-63.353268437971565,-65.50668102824841,-80.10870331814026,-77.96054975818902,-60.406078248668805,-98.60980858467208,-118.82098109014422,-32.47792879502589,221.94168541033272,793.8812339916576,1137.8451438979484,304.0455489134339,-931.010216715428,-906.7422863278556,-125.67587874962324,6.405692284062894,-150.42669451516133,22.22152186631837,81.82465665301757,-33.42030426033339,19.25535268074762,66.11988641311834,4.1988899826116235,19.74043079454723,49.70604124617827,7.344873286726644,-15.317978610418809,-17.989361171588122,-37.22742647054583,-44.45944651921751,-48.796962959143926,-58.66806014315872,-56.422715504780214,-55.01942239267764,-50.06268911767715,-17.81011253472608,21.43926257103437,49.6707516695737,90.43693259829452,150.05811470289595,203.47461282056435,238.86755352640802,255.38351290230807,235.07960564644452,163.19971770470926,61.8442745632926,-32.26659506197824,-103.24061895115584,-145.6122788920457,-156.4159798569882,-147.93264807987165,-132.13331405829672,-107.02955119666112,-77.61133722306249,-57.25407969393455,-45.26440295013999,-31.236717361324878,-15.636855876015328,-8.12037938833997,-7.900048811214933,-3.637904412164346,4.262300119162795,6.65077628977116,5.344478823315939,3.0982247299899903,-1.8963735501305212,-2.0710831418156683,3.526737490883919,1.87500410978312,-1.0033283165383864,8.646187796039131,14.098105407636666,1.5647167900977372,-7.926146016911439,-4.138401431143199,-4.944300991583674,-13.066508229791708,-14.525010958968577,-10.293500906300514,-9.75299928247434,-12.374868218395594,-11.625366524169678,-5.465230948432875,-1.8680023344330081,-6.726182268541368,-10.868274235342934,-9.57110907225286,-10.208470715033954,-7.809464175106974,1.4748653366708506,1.1781011272500805,-8.195544389955169,-7.95721543323576,-4.57186908795763,-7.321173719647932,-4.257461098678717,2.2602602164193675,1.0054630124044177,-1.3748756198527818,0.2961071044804644,5.646943165183689,11.750879928774406,4.083258461766471,-10.465529696734396,-6.285154685917031,3.113453338709613,-3.0253104695507496,-6.299453769862682,-4.664214435317003,-15.650928133402337,-21.95959159174328,-12.612571557285069,-10.90362499356953,-16.6265682268941,-11.701638403083518,-3.9525699873161333,-4.648909807846264,-7.40310478011693,-2.967191306754163,4.870789937098654,2.584002008551214,1.800934057524977,19.742639590836887,25.60927676047978,3.297375599455369,-16.665371786357422,-36.99260958106568,-58.71777308625002,-61.72720379900223,-74.83646799953226,-87.199543534886,-68.41384870406759,-87.0346968229873,-120.32366980161905,-61.694859533076965,134.39768796668136,616.0147650317641,1083.681314132024,575.0716998787275,-657.5060674115032,-961.1051095183425,-242.71791344416357,55.39761321794478,-135.3121009433415,-47.48461582791012,71.13489039948277,-29.704926658938476,-13.305273313336087,66.49913693405318,16.59166544085184,-5.279651448582936,24.456699774574634,1.8203588896951874,-12.82245248117496,-5.640232229625021,-25.725129042195874,-39.19643132926417,-38.934877121887645,-50.30486224785281,-53.26613076346024,-44.8607281406033,-39.25925597710422,-25.77585701708885,-4.061435751425719,25.751321186725896,78.40075763653714,137.33278143006387,175.56689187234105,205.74245098016635,236.15454424737752,236.88114279051368,188.20449388289794,106.19324845908996,16.675535747273397,-62.28703501176472,-118.98274855345483,-146.2203468471934,-149.0281328048578,-142.1617618156176,-126.43207091597588,-96.92358085693911,-71.67271878381885,-61.00287057994612,-42.84582754516773,-16.05958760998041,-8.494751621518077,-13.414220454538388,-3.7861710220067586,9.69460506798691,7.250724323651152,-0.8382283895761802,-3.1605482816172668,-3.203364395597845,-1.0496740678556016,4.610535993721026,8.768978633385881,6.055783845683585,-4.459713934227063,-12.162923777804963,-3.6961522319263445,8.93300354775701,4.315051369782452,-7.37077019551208,-7.945367508702345,-5.417102306046326,-5.819206761163965,-4.369651081722635,-8.892314146319316,-17.413153036256727,-12.060999810669617,-1.6818524691950483,-5.284187982457139,-11.921788025686855,-10.34262224069084,-7.777089136385683,-7.715275959727693,-11.180123659726066,-13.450523481497285,-3.282953270196698,7.204048907604348,1.465793830021168,-5.607952448599708,-4.982620402283592,-7.088604503822118,-6.802755692218762,-2.4508780021540026,-5.710025894927387,-7.455940308450905,-0.016970199410474507,1.8449294787184307,-0.2826732687095319,3.4636947943423637,1.5066678677294565,-8.633798560702996,-13.320838319519428,-12.150447649021721,-9.322025787208698,-7.7443430852029245,-12.850996843647334,-13.297639817629044,-0.7860014799646926,7.242525960545113,10.494235278087237,23.335023734584347,28.062290152403268,3.4887810428557637,-35.54065999068369,-52.68473259395787,-46.661685169135424,-71.0407036411588,-104.94726270415995,-71.69114350120577,-51.765571977442846,-105.08149659250267,-96.70146509366938,35.9745643384538,404.38583271247364,1010.805568937099,971.75169716383,-241.32252007898705,-1159.825724710943,-662.9652675275133,-5.631230393165108,-91.81034746780074,-116.12542584702561,109.70093677963347,59.1327398254567,-31.054198365947332,71.33703377690489,73.73192434175357,-0.5651677025618653,16.024858581090612,12.602446139403067,-23.343449730304265,-13.681650730447139,-15.378341837288296,-39.627195940573124,-42.858004550167585,-50.85687487539906,-66.10501223364972,-59.63786713549697,-47.34881786062813,-39.983027114452,-19.189442609679592,20.82807914089377,76.52224848255608,139.33016030078082,192.58276358182604,237.55569504830837,283.13936447934617,301.33563667270516,252.8901756214323,152.40810615478227,46.895000645499955,-49.50161504246903,-134.58357695025117,-178.24516715798723,-174.56234007715636,-164.02387399785562,-156.31871916137368,-126.75518938986477,-88.57315881215135,-67.20624295903414,-51.414817589439394,-34.07093755619866,-24.78473059003462,-16.311029206768726,-5.421459959179643,-5.388734565543366,-8.252966970712691,2.4118143834759493,10.59951577153296,1.5198996204501327,-2.767702753358641,7.489258925410358,8.74875556493957,3.91932496097503,15.821139211270065,24.680892953722758,7.127386502667868,-12.03741611843376,-14.46430410522919,-12.078339938057713,-7.342076324503054,-4.039247021958802,-10.083449283480677,-8.838038459528148,4.945173775027594,5.278231293283882,-10.52624567690033,-23.088613961844967,-27.42204520421996,-16.24957475719156,6.849690102408114,7.48061816673478,-13.540409241568224,-10.571303464760891,10.04500057121804,2.9781185475890357,-15.11285233313421,-6.6740753117830725,0.6917820472081555,-17.17042153234227,-21.335437746275613,-1.5804468556490594,-1.3341529279138573,-15.74587009615669,-7.882767894784939,5.704367577303896,6.10189038090542,10.060678570455156,12.011199939984685,-3.1471761824538476,-29.376426082596723,-53.13025228737867,-55.1126644787017,-52.36920119503391,-65.80782771360225,-52.183246205851454,-35.27049141831141,-72.67376072941337,-75.51228618005686,27.865903987601854,329.6056733483635,892.0101415332821,992.5931157702722,-77.0591156106149,-1157.2582823190794,-862.393837631553,-105.06320747068283,-52.27260136995159,-113.2153265255874,104.53028494650971,105.12954471038786,-5.89452312056687,68.5924560731741,85.297095605155,11.365017252325497,28.27224256624977,33.682189226913856,-15.275757889224819,-15.872362261430101,-10.424027961122125,-36.57449038197339,-45.98114456958521,-50.496298671420874,-63.34993541181434,-60.37861647745902,-48.492010983794714,-32.29000045200642,-0.6865114028210968,38.99134362599219,85.8018670697543,144.88664940249396,203.60329918467008,252.08790928227802,284.1351914071463,282.1472767086864,234.6523239789626,142.64826760514973,20.653781941635184,-89.35041908837474,-151.2038140505114,-175.2304160006655,-180.97581400178768,-165.82865481926987,-138.32993162369772,-114.55666097429041,-86.53771955816222,-53.458488689634606,-35.49707827904524,-27.196653426433013,-10.007053448480828,3.36874940909075,1.8225934031150892,2.076086964184743,8.710214753386595,7.3619755241181455,-0.2051360517589771,0.4604862446692586,8.492448586725413,11.02454453981353,6.767472974830925,5.212960986732137,7.340517057308714,8.036511090247854,8.199621389311993,7.318059977808413,0.7634264757924276,-6.102669323921517,-2.8536994531090674,2.730960807890874,-5.946273346185885,-18.940357910014164,-12.792685970784374,2.3179723941419734,-0.7208802145627438,-13.260044017370411,-9.670358531746551,3.527196976530865,5.712050898394609,-0.4703654656365295,-5.462837571161437,-11.374807677001439,-14.242820556456403,-6.886197153644196,0.010317285014185273,-3.381401891789322,-6.319932103753755,-2.2319871431777116,-2.069321785184332,-9.49790264344481,-9.284376316035916,6.0689667066011985,15.769834402511819,4.584659421846169,-6.100651393453065,-1.0203981102400448,1.2786924179578438,-5.280652180751163,-5.098535634658877,-1.0443803297380398,-4.487216350338816,-6.877823096798647,-0.12443021994577386,2.5420914349288406,-4.225857434871749,-1.5309087267225818,8.928318328570072,4.287527589423275,-12.007650171585265,-36.346639823575146,-63.812004350426136,-64.0591176082085,-65.00405971063992,-93.45236864891578,-83.54285201945905,-72.03224193681132,-129.67668157932528,-131.52337404188333,0.442090317153486,345.3261522067611,961.3617809981023,1069.3557469866255,-25.83510042062005,-1045.8252030434758,-664.3002461465842,41.80517261151832,-28.118723012948074,-153.55917787854708,33.441633526733,25.617382523069153,-58.62062696387322,29.677129336201162,47.280032058266364,-9.034749925453276,20.274311268166127,30.838647011717395,-11.224298617493147,-19.19430771823447,-18.556294836951814,-33.54838765885948,-40.926710676786186,-48.20178547968288,-53.116851888307785,-49.22503068200141,-51.00031081046131,-50.864152754446174,-30.2972338874521,4.439684324353905,44.646021350022174,94.12277089592203,145.9668174481161,185.48891755028205,218.33959927911425,245.17600655739784,230.21340848920184,157.4174745677871,63.44075702774194,-22.478073444109192,-92.65292087309341,-131.465679507431,-140.77835882525386,-140.99284492262223,-131.40346150150268,-109.00734165026408,-87.01461676815113,-64.50423161602424,-37.800510760672964,-22.815872533753073,-19.897217742382026,-10.704466941013354,0.9971081750130892,5.244945087798165,10.73708657662226,15.462015750752881,8.66095854295017,2.4194293423477244,7.000847983663174,10.333377185191054,8.011823639971329,3.5765837471288506,-7.254169016920335,-18.03026617764588,-16.04118593510471,-6.887486855444347,-3.1328403877987903,-8.625735378245986,-16.02783827354208,-10.439385846320945,3.4703333715483193,2.9492099991595317,-7.884599456826161,-7.642065384851074,-2.3045240420106943,-6.108588419517288,-10.160821534907143,-4.628219245739767,1.9758699789838179,0.4537586259900035,-3.603131111886828,-0.10748691409107103,7.6325655462178315,6.604797592465079,-3.6015451526030917,-9.072461083181617,-7.117902104050433,-8.883237974730443,-13.216961389520781,-11.346393038827308,-8.643992044862884,-9.211903163951053,-6.87551826947333,-4.263576162056674,-4.3898845990255975,-2.0240161686315155,-2.3575259581603003,-8.37737232780773,-6.101565895916844,4.45438339733313,7.409637117907681,4.425727586549891,4.772176218981704,4.650281534616045,1.0582293847219733,-3.0111932366991274,-6.1868014871269255,-6.688445142173702,-7.923100662010329,-13.76243333860387,-11.798489204444666,0.9738700388233035,3.654624509947527,-0.7909717777421919,8.365768841180138,16.888319381441455,-0.4313204343327097,-37.75626409752441,-60.90584200210179,-55.84794589730891,-70.31069462553045,-102.44786845562089,-82.48266437244095,-69.8918252422731,-120.39070965699742,-107.54914993750569,32.54391240121549,388.51055112337866,964.2141272284073,964.0630115579363,-128.40675244420663,-994.2518603021178,-564.2643930372642,34.94406643010629,-69.89637845064091,-146.45241234536277,40.7335738296848,18.034110834715364,-59.44623633667883,16.792085289947032,30.12440780282823,-7.633421877851658,16.862278604824574,15.546036630794225,-6.901821620076197,3.2537149170640323,-5.383921740237887,-26.757858628304337,-26.490539222346257,-39.301605215731385,-64.51431514595332,-65.40142193674039,-50.571792269143714,-36.736766193829425,-19.033871394954716,3.1624912452686083,32.48008345594414,79.1227245521979,136.98586662353512,186.30960951116617,221.8206412398441,243.39323869288302,229.892075627347,164.769630190719,69.92797628713056,-20.00354354673444,-89.08155714872889,-130.63275348824303,-143.84062744913166,-141.55258030383087,-132.39026017876444,-110.50356140495313,-80.39984565178007,-60.12177781534734,-48.98098369806405,-30.477512024931983,-8.917744847813761,-1.3481953189132518,-1.9222804626889705,3.3069177420930096,6.689969458427218,1.7623970238254962,2.2406445767469965,10.65532426533507,10.041109359030141,-1.0133488477408577,-7.206377361301254,-5.259390459966891,-1.2816762144293818,2.4142737264151313,1.956121790968627,-4.003553722048471,-7.4773327725299605,-5.857384543182756,-5.675284986956567,-6.712159319815557,-5.916169200898983,-6.0537560408268485,-4.589166599620452,1.4496181901999456,3.285863769162197,-0.13997128633450107,2.746413353798866,8.273888888144947,4.583872798294343,-2.484307249060837,-4.136424896083636,-3.09892101136602,-2.3651037014246334,-5.148744529096298,-12.495848322893062,-14.66324654435048,-9.732214166788404,-9.10701837929168,-9.505562817976319,-3.7371133585490117,-6.051264781737812,-16.820248991136108,-11.076928494866154,4.284047585540325,-0.7244105740482745,-13.368432699798866,-4.995803568373282,10.588467952153199,9.281734773216963,-2.367286076397736,-8.35887800764592,-7.098483134344047,-6.927281109909464,-9.467015918114042,-6.492979618367426,0.1400804281163026,0.43378772914963903,-2.4654714450512127,-4.5249577171403335,-10.138690726111399,-13.265800680751108,-8.704568061655557,-7.264073936703442,-9.10015598860971,-3.958455870927251,-0.39445360479854585,-5.258520753768021,-5.008026810388983,2.394181436419011,9.230522982447246,17.95980661661793,20.07935759689736,8.130119257860226,-11.001056033397319,-43.53031432311235,-69.03215327283817,-58.308266842287786,-61.49985035924624,-86.18383235416866,-70.52335688332155,-77.8627046656257,-132.75396173479385,-100.20352133366737,75.23281334930596,495.4501397312331,1038.1098916672959,811.2473576605275,-385.83829987748544,-1016.9274032383075,-405.58351475460523,84.12382281804821,-100.74099800037105,-119.75383780129128,58.16188973710818,-4.314914919014527,-47.7004650370209,46.80410834830035,31.796416403363317,-11.170841863894257,27.67490799114853,28.357055705070906,0.5102713964643897,5.014056598427677,-10.395993964632737,-41.95783386156454,-48.956142337704,-51.04650716256594,-54.056484144464186,-49.44843337435255,-52.457841111630756,-54.296909040442394,-33.17111465518617,0.46558347715260595,37.98300140746808,88.65061636858937,144.0207548763534,188.3796847514898,223.54320634744352,246.52862130582665,234.6962803410242,169.0368150446206,64.58773982253575,-32.46798141837528,-96.10365265281635,-137.3209100717378,-157.01051961651132,-149.2620173780765,-133.71086868654862,-117.08760342398269,-84.0473200393587,-50.423185815735515,-40.21184495388174,-36.98123915815212,-21.63362838901456,-2.9872577030990186,8.333331564739893,11.793465924959369,11.546098240488273,10.418035860110635,5.23184907445982,-1.0639191844845612,-0.4422154405752803,2.117686742631861,-0.29008107361410396,-4.2672478008461034,-8.697595674189744,-10.445170138421286,-2.303301576894089,5.604752936345293,-0.6881040360011603,-8.408504159306501,-2.034769829593116,6.403130108165408,2.5935347740220056,-5.578255636483197,-7.600096751304436,-7.0055254715001425,-8.676924735979373,-9.550476891068188,-7.857959442179382,-7.7813880853645045,-10.279455306691226,-10.768901591454595,-7.902950094334832,-2.0901186591389926,5.921137104541558,4.209473038926799,-11.930457394486245,-15.825037896425027,4.052185756298677,13.224341948156567,-1.3017370025880144,-11.362247304335842,-12.89846815631473,-18.868922783066846,-19.348498944969712,-10.659572885035992,-4.46447257413838,-2.398353135444923,-5.047980371097559,-10.86845003919767,-7.946221652260835,-0.757874081426916,-4.956770229077938,-10.705174625737195,-3.2129097573301344,1.1566346202906637,-10.889206802820366,-14.792955654845109,1.6280803106276398,8.673380256380891,-2.7314196012356575,-9.651013563691592,-4.958062271369405,12.556984134122953,31.376934225396756,19.00867363302571,-16.051026928560177,-44.256835231122366,-60.58387786261205,-55.403808004693964,-55.25380054947855,-80.76254058283325,-74.10425452542391,-67.39001266928253,-118.1262552687748,-110.51965380699119,31.907038126169823,403.3380681188481,1005.9759391605287,1000.3716057886447,-181.8903523834154,-1128.2638744328813,-653.2432002789756,24.317143613320443,-68.513397707215,-128.94792065997387,92.06729778124986,55.214207995584516,-41.31887172666174,48.231778707686686,51.161409924198004,-11.11223027239568,20.881992433950742,23.43023012883923,-17.004463765435318,-9.392503548826983,-13.173552678888809,-42.51564593003974,-37.170312053239286,-28.772353846733672,-49.7810376036409,-65.05992041415539,-58.60258544915073,-39.76259384351753,-12.861042334536712,15.598116601765355,49.79795530470812,98.57341713226646,150.3860891171699,198.69726681635913,252.4408021395232,288.2398944278183,260.6193147302948,172.67061460921684,70.59704782987546,-18.139905029825307,-90.66020078838184,-141.87599555149959,-166.98948545276676,-168.88412923654676,-150.1566761246799,-115.20902845104476,-80.42836809394703,-63.45771635322616,-60.08238399120869,-50.483186431511186,-32.97721169497605,-23.731273092137382,-19.89839335889871,-6.98933416021816,4.300967814286949,0.07427607196081354,-5.710764616762788,-0.9671631416164814,6.35165416018182,8.146526885879286,0.4488967618326427,-10.865645493615865,-7.811867440588353,6.909826243769148,10.168495153203331,2.351529997114433,-0.2421468479633173,0.6177759884930065,-1.0483777530864948,-1.4139501570111612,-1.0954664361831874,-3.8495352871404513,-7.011294440460128,-7.018631709107197,-5.318832117519001,-6.817847574129864,-12.24674260571409,-16.29825861923351,-19.542604859847994,-22.074895687658458,-10.949340252064669,8.104787093642095,4.276962814181154,-15.09488753571396,-13.486965345080613,-2.123627516868522,-4.638674334806213,-1.5800364765313795,5.9606049676280755,-6.475496323480019,-13.856061551460614,2.4823709425059484,5.320840624092165,-10.854624591422482,-12.880595550530522,-5.1334132122939415,-7.870491771351562,-14.978450612675335,-9.78588085234713,5.978014337857014,5.971161911903638,-5.512739249083502,8.36948331555053,27.028096824777357,8.379968290256016,-26.271730417972545,-44.81062554320759,-46.9284850632517,-58.38253699939535,-87.94674301925494,-80.38309112986535,-55.610072887396555,-92.0223343404931,-103.46310351156788,-9.094631720842273,256.11641003949364,835.3984231915392,1126.4796494007333,203.4829613592601,-1033.044131272717,-934.8127968150347,-131.18065177917498,-12.157788144624547,-140.87877508896136,52.96159953513314,88.82377907492648,-37.49212120471598,31.88762400300309,83.91241659311575,9.94997731079107,10.88646920101274,34.736615683968736,1.8737866381516621,-9.364830445407106,-10.598772167091271,-28.960736555407948,-35.73090551466626,-46.334990950988995,-58.59746592132734,-50.67515666007343,-49.92658591311206,-58.490569108122116,-40.55826616292385,0.893725202373254,47.751807679858786,99.4308816133824,150.9594395284421,200.27624873014534,250.78519687303785,284.11881870799465,267.841465088714,193.17152742184038,85.79922331877084,-18.919825821729198,-100.15754119782348,-150.69047248294982,-169.54162453143528,-161.80578359867604,-137.3153172107315,-112.3202719914885,-99.82429611041769,-86.45370956499833,-54.508608839461594,-24.387540920221213,-19.261772073703177,-19.566334603949105,-8.203798507630488,-1.3243023304537083,-2.9848577134347956,1.4283804561646605,8.017510738976492,5.558731027001365,0.07701922851036258,-0.1405386756259226,2.7414179247636667,4.830481568384139,4.939943892813265,2.7418456018293664,-1.4809025443771535,-6.120946352023466,-7.247963074240509,-2.701981617056994,1.1066597062287027,-3.2287291190006133,-8.648979398756143,-2.7360483728318954,8.617395385857376,8.625471304092876,-3.8450643566296385,-15.585683848229813,-17.668803194660185,-10.53428852200382,-1.3606912122277546,1.3941513075795928,-3.3855936175224475,-10.88864296904255,-16.388546869389838,-14.579160674708767,-6.3447525241689,-4.639701555817963,-13.371481876122386,-15.547618424516934,-5.858093879034167,-2.1732038656595236,-6.600866001450177,-4.7504718832267585,-2.408267559615746,-9.06328834918472,-13.197881206788816,-5.62554510425413,10.357000791993965,21.005604596605764,9.382250635435081,-10.959852957737967,-23.187340559098388,-39.544664626029345,-48.741751804450104,-51.93169515343291,-81.13934665926448,-83.92436131099333,-46.26387670080244,-75.66799060453988,-120.209579059686,-54.985573969719496,162.72390868990624,691.8985011107175,1154.5757406693376,523.9924029503302,-804.4187181118942,-1067.9899132878454,-290.8784256729253,19.753696170530212,-135.96568032298106,-9.642984434036386,101.76377533073634,-9.21426699691294,11.334764563568669,79.68896087418742,19.600431762116713,6.951146335878832,38.19784607822011,-0.6528421687844865,-23.27244091331842,-5.731132772119331,-18.49017693810546,-37.40198141118391,-39.146264730694895,-49.29488035142678,-60.092822465070185,-55.90594595564807,-44.57701808611274,-29.833440012965404,-6.220837778471676,30.015427586862124,79.70737074262688,140.60393131879243,199.5769692435995,238.67485220419664,258.0994970033052,260.1059466636827,218.6349903680177,117.91737539513129,-1.2072647067605278,-84.96132507987565,-130.1308029972575,-159.455296792775,-165.65309179385258,-138.04933507163372,-106.34599147297064,-92.47709669139509,-77.88677024702058,-59.79190748538521,-52.525704598447284,-39.86189233897021,-14.278793423428013,-2.5172145343377323,-4.1337575523757195,0.8657857689076138,-0.37359845478718867,-10.334805504290362,-1.506951151092487,14.507714800023365,5.441456400006373,-7.521896054465865,1.4748620074219616,6.883862337530064,-1.0002878468454552,5.9190406469396635,18.917254980837622,8.598714774039586,-4.839199413424096,1.3128379149569955,0.7757115505664842,-15.95637686751423,-18.55559923131402,-5.776710760578785,-3.204923546329063,-8.795935750660252,-7.4490830294032815,-1.986174738641603,-1.7700966395211388,-8.289008343841823,-12.418728949940085,-5.977000002972976,2.0578489489331453,1.020099846399594,-2.4916631591294767,-1.0911373281771048,0.5818132331471517,-2.3981262139628363,-7.176370872461705,-7.708208246175053,-4.1691687957097905,-4.439142284296411,-11.073048266678002,-13.673853070019518,-6.046370644627267,-2.9659464722930444,-11.987786356577654,-9.275335646535334,9.450502711839624,12.373703335594616,3.2802376819376144,8.13780501479926,11.98739429814689,7.4578813341155055,13.05444549191221,17.07874729338026,-0.049451038956846105,-33.58388936964412,-57.464998730945254,-52.31236068181742,-63.7106097734888,-98.9312298472878,-82.36042484323818,-75.31699323857227,-146.64390895108747,-150.50309422373007,-1.2065591356553966,392.55276250080647,1032.324899875204,1049.4601263939287,-141.76739264962055,-1101.803794779958,-630.6030440337365,40.178625664870616,-69.41164563296208,-154.08093667704262,52.68090079094199,28.244952611970632,-48.197489714581124,46.18657721800463,47.398615285724496,-13.459840482095334,24.187508280453024,39.11350784793398,2.218624936492011,-6.750551930948827,-21.30979522002847,-43.64431662512948,-40.77117110346962,-45.74812897825832,-62.80996180855789,-61.26498581364031,-49.212190664840165,-36.68696181645475,-18.592811871031337,4.516395834615501,42.148711471789454,97.65281444301127,147.1438086921819,180.19457298983957,214.8712873555197,247.24700899639447,236.4640178234297,163.18780622925436,64.60849049318186,-18.436481406202912,-86.46282141452524,-139.8965004133478,-158.43839336633212,-147.3137290210642,-130.0132889377225,-106.1983495605835,-76.65593871608769,-57.63026220105138,-44.37753271895471,-24.960622843270635,-11.164048801445567,-8.617333673067758,-4.80175288797253,0.20319737754904565,0.4097895484153966,2.373881636422162,7.747868484267249,8.599587775891656,4.105788277849399,-0.25172870784403756,-1.0162491759999668,-0.040189069343545825,-1.9562005735486352,-2.736265292346987,4.425711373867463,11.874095428919713,9.238836802527036,-1.1486956394523968,-12.710599071013107,-18.85125086950894,-15.446848775412185,-9.38186055882344,-9.429083533473406,-13.31940942287874,-13.013110570514904,-5.428414332166756,1.8766886656136457,0.09660588375946588,-6.2640007090427865,-8.387888116460923,-5.332240434411981,0.8547525097392752,5.254547098549511,4.26082423339478,2.8896992836492776,-0.5881951151620761,-12.02672875076441,-16.481634858373972,-4.1901503524791845,1.8154281973950255,-7.265116231403188,-7.7030018137718805,1.6195826475873671,0.062030975370303665,-5.531960934500158,-1.699946184795123,-0.7992437265715306,-7.274348341865531,-7.764750550401368,-5.773907543428043,-9.159116060465081,-8.289228958169197,-4.653518335188821,-8.509548006659454,-7.565321976863625,3.770610882858626,7.92750091185208,5.766043011718604,6.6572257659604235,6.247815817659684,13.280632459384856,25.4213939619317,15.364536592190216,-13.008867240141711,-41.246764841885295,-62.90734063440091,-67.65387621566674,-77.66425352596222,-92.6185614598382,-71.68464433749357,-77.83261772291169,-134.82422276300517,-116.15681395389193,20.459148278538578,408.02536662439377,1047.352682771156,1005.693443209186,-218.3272825841254,-1091.10709629217,-551.9398731049796,70.94341793389263,-75.78740914940359,-141.55054027170476,59.2186748757265,17.11650115399246,-52.444302431882804,46.02660783598516,47.375797289135726,-14.410011119849758,5.056879779449893,9.977955107591523,-11.594967062486447,-6.371979844000958,-14.542294557190727,-35.262822603755254,-40.146490266652044,-43.21743088633398,-44.73018521434261,-41.619544599891825,-41.939121614257076,-37.95657954647292,-25.5208464250181,-3.6121377623164825,38.30799296034708,90.73768936072042,130.82443451083782,162.15885136698793,198.99840218914076,228.81947826334533,225.34792073613204,177.44122377617043,89.66518663338236,-14.281288986338637,-92.2201934409002,-125.05879294077762,-134.46541350426233,-138.5227720252067,-133.24561270193905,-117.2534127582179,-93.8511824405004,-63.42532920392023,-32.9694260332393,-15.407880581644967,-13.82617750791129,-15.28280009744033,-6.665780596218859,7.461767677582465,15.042033146429528,13.012659135281325,3.8921631568449726,-4.016781593242712,-0.3443949690938233,6.8851316581275706,3.50739261660455,-0.47328683467777743,6.200586331317398,8.262212977505616,-3.7336044319013695,-12.378825403847223,-8.402746697234607,-5.9563422898941205,-11.657840117416276,-14.566011758238343,-10.357241346422594,-5.722998530557367,-3.8174203314542403,-4.896215432340858,-6.828301103884324,-3.517473498946331,1.1215253943818482,-1.5152760061924626,-3.918288728208255,-0.21079118279248377,-1.254783654391085,-6.996830776511889,-4.31243718153388,4.422665766623435,6.870194611568237,1.458230399742087,-4.720888421867894,-6.864943043361121,-6.5334331212603445,-3.769706869216917,4.504562367693962,10.530105671721659,4.306336801291975,-4.239084567105591,-1.4295263978833015,4.590072621412299,-1.4987530111812504,-15.888154588928384,-21.869384597102236,-16.93551860666633,-12.036981555267284,-7.504698966198493,-0.7677835255929608,-0.9376282662364854,-7.254518647131187,-8.437665827025576,-7.338840716283741,-7.493807462713335,-4.425726872060171,-5.090240453430056,-11.67543067531774,-10.930278273111881,-4.088995824766555,0.24700826780199314,5.281392398293937,7.366189957376721,2.158423270636801,1.3617552721677253,9.826039089719565,6.212956369260014,-28.277684706916812,-60.367741104238,-59.86327518424358,-73.88956442709284,-97.3239195895208,-68.46636334410763,-67.88112620882234,-134.99253454433688,-125.79533462526628,28.87206248257621,450.054261714228,1063.7496262658722,934.9757393120003,-295.3756608779647,-1066.9936196944502,-491.7706215715632,68.39903252590388,-96.56509705940036,-130.2050649954018,65.15919880786716,6.429305117937787,-54.947946022342144,41.64251098353712,36.340519222488254,-7.461959687157535,26.749087354512852,19.53264943061494,-12.824764417375764,-2.5572259182034554,-9.365928746041718,-34.047449604070366,-36.45901168681592,-39.50204663501307,-48.272499801106626,-46.07917470269841,-39.76099825865636,-29.512339826640762,-10.904977803278303,11.419301056087335,41.59288471535801,80.99466537742117,119.4196070093351,158.58264371872906,203.5899237892982,235.65964755166436,229.11811309861253,177.40505640913605,89.58853094107593,-11.04376225352215,-91.5064754718939,-135.83975411243728,-152.32070578129176,-150.62664850298685,-133.89198320355717,-109.3915091051806,-88.27506950082866,-71.4968609145512,-48.762842477056694,-22.927748142727246,-12.529149420601875,-13.719171185292023,-3.7669092835074522,10.136801228014654,7.325171345991466,0.370233513132078,4.39183437072993,7.813184866389506,6.737130186374886,7.029694094926881,3.8397095288462015,1.6314990799802587,7.197126797325376,6.522601659292353,-1.8457589149681652,-1.8954099167045317,-3.188405237576468,-16.642377219725656,-20.798510173777622,-8.513411950974827,-3.59748076852971,-11.231334060216934,-14.334444722649948,-8.871905416211742,-3.9612034532199374,-4.977587028412861,-8.27892789362095,-5.744023557899906,1.4039255199110672,3.26182057134221,0.6621906472603687,1.327209547153009,0.9404998099497295,-5.103569754426136,-7.852974496374209,-4.491604674774408,-5.041430309824925,-9.436836408029745,-8.079891605986504,-3.3151196230162263,-4.148348445298499,-6.857666976439345,-2.071841130583337,4.339737566097972,-0.1823146954484951,-10.867324005001986,-17.22506168183979,-20.746987475433855,-17.380984648167896,-1.693027010325702,8.423390273567925,0.788875504341652,-5.510790992218416,0.6456498135409383,5.248396056828229,2.0575104967046447,2.3051358161560174,8.552346493159325,1.9495863178683361,-20.031324751192564,-23.410780212639956,-3.7847130459341436,-0.06017359020899349,-10.848774865564337,-7.734056085288179,1.6504965800046492,9.127225626275838,16.556976839308156,12.322865907572172,-6.165381184172487,-38.867756025211364,-67.68351823932984,-61.808463899392464,-63.02697988031737,-89.33705420846461,-75.77957742582974,-73.08699089829088,-127.13722779979214,-111.32108152953532,48.44961624635377,464.1005564294636,1047.2082646714596,891.7780863552258,-322.2090126771943,-1056.5225030992522,-473.6503621920766,72.19997279817079,-91.48807507017084,-119.38976952677,65.31773388059663,1.7814946949089006,-46.842634040242764,55.725247708285075,40.77327902272202,-14.879687572077314,14.352065206780544,15.631052982712117,-1.4420628284959527,6.272858452261323,-19.242209646404483,-46.9048051801326,-35.41811356441025,-35.100804293681215,-48.98091970114852,-43.2630306508739,-35.234919676411906,-34.481130677187515,-20.330839524319018,8.45614678168829,44.03872445211445,88.59151008467072,132.3981722340032,162.449705707214,191.41143826744837,225.74742586037402,228.6459098979743,171.42103641440622,81.4851336937462,-4.518814401753232,-78.20511291577543,-130.40547135484422,-147.5225192583036,-138.81624825244097,-124.58447772166355,-110.5536537542103,-91.79491904043783,-65.21714735355583,-36.12321415576145,-16.40047855671053,-9.006375489507903,-4.608221752363455,0.9269883424208842,5.681321103985553,11.269001429094683,11.844314703232751,-1.138944311140932,-13.510474841190842,-9.52176336174018,-3.281563349251723,-5.708177829535426,-3.8009031875357344,2.918727105807866,1.2357161320285996,-6.500302795528411,-10.12453600143538,-5.1503624656172295,3.0519542646812106,-0.4401699830857382,-11.295955286784967,-7.809679259600793,0.9765581645096901,-7.060675899824581,-17.288457009428647,-12.037466048577983,-6.261595475603755,-9.992160025734856,-11.291461702254232,-6.6572098647812705,-6.061836923093541,-11.378641729539854,-14.132519254638451,-10.132740003288859,-2.260721599688644,4.167942025365813,0.7431097536845748,-11.900908505651985,-14.212300260434112,1.7741179455152292,12.335336617173366,2.844333247146256,-7.535334582081311,-4.4616828571108105,1.3365684191788496,1.7256790200118246,-0.2149146553906114,-3.74986573795314,-6.10567648384404,-3.850019882842041,-4.50200052428657,-10.599133752814684,-11.717597340175056,-9.676759062610252,-12.465255302968915,-11.64263846685407,-4.804543497778967,-3.2620018606406607,-3.8155238749119054,-1.0415453428822303,-4.790362673379963,-12.42621339280728,-9.31614622726941,-1.25825242968725,-0.6471263538762093,0.8890550189698017,8.92239900309396,8.942580701056038,2.4526202721634993,7.9883358756954985,17.332016915908078,12.722070873821721,-10.368956153734223,-50.57281329677426,-69.18517059302329,-51.26963846269721,-60.997597524515804,-83.85000045938406,-66.37720326539022,-85.9500201297199,-129.84681476158855,-74.64266268381328,117.68160168349627,591.3706748711357,1104.534346474962,668.8390774641244,-598.4209150031973,-1004.751492093962,-289.68547240466586,59.271685378633315,-145.60043284926832,-70.52842745305975,80.69088997072664,-19.366812042581884,-28.21415811398451,53.05469184576059,7.281572122729621,-19.984579659337708,19.51810714093648,8.261736679651147,-12.355101286742581,-10.31426448748212,-21.500748756456233,-26.87311352344761,-30.407789020168963,-46.56788077766734,-46.55490409520003,-37.32573022977559,-41.18827479473037,-38.48327539110737,-18.195762665427697,12.06763421816764,53.32496658911826,98.16908586858564,135.67968427197206,169.7304617604686,203.4476146597612,226.48959748012686,218.12824524665285,160.19040155781786,64.66677796498398,-25.84933842649089,-84.20224852334792,-120.10516214698706,-143.4684096918303,-146.16087465125958,-129.77366913902182,-108.07135682194708,-86.01426546642871,-66.47768910265546,-50.756366965872886,-29.314282189128214,-6.565391888460297,-2.4391836269335876,-10.344490497694991,-6.948569109664991,5.701089792413269,12.197710546481899,9.685320871315593,5.403827008159642,6.605972761496549,8.883474403020694,6.233404730888543,7.729272201151038,12.707390973962248,7.381211956849603,0.6057231981897342,-0.2182096275478962,-13.005696150021478,-30.5739090932608,-27.789172141186565,-16.804969301847635,-14.0054721180251,-11.859683043532165,-13.708591262610167,-18.568819632742553,-9.483572969731462,1.8089660371570684,-3.8234771084261734,-9.496794743306712,-5.353574397121964,-5.902085201031767,-7.450917858437585,-1.8042796061294624,-1.1015067667038299,-6.392384407566606,-5.147711350735584,-1.1354072688961878,-0.6472699235501107,0.9540452457835524,-0.27559175182457096,-6.765974537334195,-3.9954776156726943,6.473850300837865,2.987378325005368,-8.57832808467825,-6.6715411495974575,-0.5929895730456334,-2.4898287465066744,-0.5555620557267122,2.5727379068864025,-5.589883071622811,-11.651487453872086,-8.01105415775964,-8.493733727355595,-9.104675596503203,-3.9243145346679364,-7.40905958370462,-13.213124566569006,-5.917383809876255,-2.3845790747839963,-7.254609524048115,-0.5638738485321246,9.701513709608674,13.03427229059243,19.847790680371094,21.560713438702322,7.242889200958726,-19.860768728010648,-51.86229565385056,-61.985067420826766,-62.54140637686475,-83.50641497105227,-74.11216622681178,-53.599077987967874,-104.08927822338188,-123.49441728421306,-27.293228863365925,225.43429606965688,786.0899251187673,1102.486123444071,256.21027406695526,-922.7189630924261,-837.7850551277533,-79.57310323884148,6.51450625738795,-152.30496909241108,21.78717417582928,70.46007820559726,-43.1345006291948,13.976970375345353,67.34199695003319,19.074671942179176,24.848294681102885,23.790288574609125,-22.313603463802707,-18.835746834805253,-6.844792851574304,-30.271234386767823,-37.0001882603013,-35.831488785438474,-51.381523416837936,-55.68941536726051,-45.92773195592875,-37.62052846010727,-23.552433173975686,-1.3168741010029699,26.00874229153316,66.33992122739623,117.50354297409774,161.79427294167215,194.33783094233826,223.43137729232228,238.95321634626032,213.65198040957728,137.59642822847786,31.967295442343694,-64.35645829883025,-123.82882327225897,-151.3787587370624,-158.62791748686197,-142.14059351468603,-113.67377251872816,-95.85100493709714,-80.42297982605359,-53.49842507025156,-29.516089214533892,-18.537455680189282,-12.87624724192359,-8.818403044506049,-5.47356309894548,-3.064315647500486,-1.8652452248226865,3.141924512597459,6.642867608145892,2.339179065108043,4.197280034344072,11.048265997940002,4.860662396066865,1.9595452458379725,15.211633436302137,11.258493259215214,-14.181776453330858,-19.398235916523237,-4.1994742292872616,-1.5069720482802182,-9.050916106531385,-11.292012019773384,-12.772832736756024,-14.530151817125684,-10.083181767454253,-4.8113224144900055,-6.332330092552132,-10.465430374507253,-11.526808894874756,-9.42137529411718,-4.4979505416153,-1.5461213814733465,-7.902825325226534,-14.70141092465406,-6.59708299276125,6.2813067743007585,4.395396927008594,-4.5498813805404055,-3.6967736396417292,1.8350793657633755,0.7707016453737374,-1.817131575441886,3.345663311674681,9.196039446324477,1.9830514198198887,-12.333110570877341,-16.88241656865854,-13.257403492420057,-11.849157223493378,-11.666216752945838,-10.221468495831903,-7.9532551808032235,-5.4547268427168945,-6.713199094251959,-7.388295605425361,-1.327890355837825,0.15818729554917077,-5.509712358086976,-5.608586779185838,-0.7065373589980517,12.04610791793403,28.217934435942944,14.746141952218894,-20.427829167103496,-36.87401948906431,-40.28466142138521,-42.139210511031834,-53.174489724967025,-82.96772417572383,-77.25488118701159,-52.7611405111427,-90.3341401246577,-102.57850991244239,-7.243137611146693,256.7965856397833,826.0642942883205,1102.5255875187345,191.80337945009813,-1000.8492588248808,-887.5021019898256,-118.43663865803465,-24.280489691385228,-147.63363749789164,50.65964516224013,89.44485377452443,-30.72498535132405,35.223747872513016,81.61459290126754,9.49095513151535,12.997936019575008,36.83058121515535,-1.3851870934128723,-19.489616249266547,-16.863538092728014,-26.602914777919587,-28.83293819092905,-35.75027250560538,-54.40192735960069,-60.99549666774238,-56.78828669066315,-49.581540850964686,-29.98102771386968,5.946090625844931,49.179123195821255,89.22547159574772,130.36820217244338,182.83944243252014,236.33274924740033,273.0170755861852,280.594037449409,233.7671170353645,125.99108849045837,8.8575104786011,-73.19884317243817,-133.0526758027424,-176.52225849719363,-183.5485589228443,-163.61515143612812,-138.12325864756792,-106.8337621145613,-76.39485177121134,-56.243163639648216,-39.0029595250538,-24.689268471833362,-16.87923042619405,-8.436612903633733,-3.3243543089417074,-5.650900983300961,-4.041421579900895,-0.2838442783887736,-2.29326017729716,-1.6739603190797432,1.7802660822782634,1.074098380780793,3.2969941791875996,8.212227883817848,5.906842908959499,1.7637289703843262,2.2252743657370893,0.9344268239746629,-2.962931312428097,-2.365728444275433,2.745123201968436,2.1836735181120073,-9.599063872362695,-18.331543666466835,-10.867373971473906,-1.9581809809947028,-6.547353073139645,-13.083604536520513,-11.426663982269837,-8.298649548294284,-9.041679058112837,-13.117425396066633,-14.786642205597094,-7.895103586395127,-2.707417765027122,-8.384491417744211,-9.675178952178744,-1.014558209516526,-0.5784941846528451,-8.585097148235095,-10.132926953315462,-6.963811493256826,-4.458810158576695,-2.405726580723849,-4.6088857354632236,-9.856616427385143,-9.815480538330904,-0.7283989174167989,7.624185634644629,1.730734761192947,-0.9712137399485967,19.677440285147757,29.518250741157416,4.284205392822572,-25.934694786015786,-45.21819385545489,-52.6154932245263,-55.55403479489695,-73.64113707533681,-70.7601244296414,-47.94328551329407,-80.1959666620827,-109.05858227615717,-47.68265947908037,173.6663802699325,732.0616777945686,1141.8894102106299,393.87543801949266,-899.6095679055011,-1007.0042205807633,-213.92545225693368,9.053616757546802,-141.50797806343837,18.815526604633597,102.73432894297532,-19.39222333485536,16.269413985125432,78.1577579950299,18.194428657551818,13.859310216590542,36.90323791933849,1.3984786623715522,-8.355460609203213,-1.2181078277853237,-25.80776215701267,-42.59903136410744,-49.78205033605238,-59.35005332682309,-53.77396568874912,-50.64953289046464,-51.64972979155262,-28.372626551954475,1.8950735686786224,25.57469017740044,73.55932383974837,140.87985380492484,188.44733527318957,219.34692254694852,254.51983247319765,268.9564090006414,219.62113322408612,114.6006390321588,6.839899011018932,-72.91138440568358,-130.79703699458693,-166.57378214278646,-168.08403037607874,-143.14220441302047,-116.85556082540283,-99.78546255441447,-80.56987988601222,-51.17311373515628,-24.094774287336758,-13.950245504364261,-14.958767026718078,-12.233736920841412,-3.334774703529508,5.027784769639865,8.617485865089868,5.143588818352036,-3.6773817229877537,-8.407178555825269,-4.128220635842174,2.1662601067577647,5.578246542979646,7.439960428583476,5.558271675972562,0.21300998385987668,-0.6253896247506194,4.8227728080925125,10.132389109289115,11.6091706824427,6.63158423109864,-4.343761627379239,-11.721969828104104,-10.207723331270227,-5.785227503604428,-3.72109400803137,-7.0229017313003865,-15.47558810784951,-21.30357462404033,-21.259568126084254,-17.009073382958007,-5.700329029296306,4.741706714423362,0.6198846615763252,-7.457778190507632,-3.978121972405413,1.607239505952716,-0.3297873027556637,-3.4074698961784797,-4.746255233444979,-6.839981131990026,-8.25506170508615,-6.8132102545115565,-2.275770636319802,1.261126141756785,-2.604725035802561,-9.940168442047916,-10.040258702221985,-5.1811019708403805,-6.010728058977666,-11.525419536571453,-13.185444228111939,-9.110045938175578,-5.5471245535553635,-9.456491717537507,-12.949009942922341,-4.357796266279308,2.698286187278762,4.997307549069964,24.455614622461493,34.82879758450598,3.9818570434386205,-23.287133823416994,-30.37111594945349,-51.03648712414491,-66.02157861068116,-70.31110391594495,-79.30885070098856,-69.79529668258074,-85.15111330065587,-134.81169246050058,-109.62560274835621,43.866917411663195,471.63804683189085,1076.587421474213,892.5517713040554,-366.26387332795434,-1084.2023818506177,-465.38269576942395,71.85598423943561,-104.39648372609057,-114.52630508374875,80.92500098208025,6.805044400277666,-46.35964979792343,62.235727420079385,44.55354012836769,-19.22390382819557,16.76353612534236,25.726409688644047,-6.2707802939406285,-6.7844955141383245,-10.639225509507435,-28.213115268093905,-34.307676484940636,-38.30336861451262,-44.600152063703824,-53.43470347650203,-60.50596433680528,-45.82816714134471,-18.778259347200184,0.6644923963967422,32.5684061940476,86.51496097041363,134.39889969314646,171.7048826174959,212.75748133349822,238.09000209716982,223.0023721494244,171.91426938557552,89.3262043256355,-15.684873446719036,-99.8282003023904,-131.62768403207366,-136.2673195296279,-140.9957927854747,-133.34829991654527,-107.4017292787539,-81.51558730174068,-60.64862099560742,-40.34865587852454,-27.033913820853304,-19.89436196506636,-10.381436833464733,-3.0262116258927527,-3.301553069612858,-2.758475491428303,4.575998216755405,10.496083000475213,7.258834872648357,2.327055612080663,4.110814524127033,3.220960077400699,-6.729722830138652,-10.84489628667076,-3.6047525080487564,-0.2340694363495377,-2.6796938123512994,-1.8510855430388897,-3.1925866536959955,-7.880651343394712,-4.906902425619088,-0.314017377312549,-4.145274376659836,-4.539626700073482,1.650381981477783,-0.5938652019825383,-5.554163252757011,1.133709132073978,5.721733037700801,-3.7857801427718147,-8.98559261426123,-0.9244526319828594,0.3507226008308564,-11.395641000086625,-17.825256578314217,-14.265277359948936,-9.551221556810905,-2.8320565720381268,1.7481887853898073,-4.89671726457826,-10.236114932813143,-2.3542582377461656,4.544224216482309,3.887670927530827,5.476804935153993,4.416129466731078,-4.146647729448617,-6.857438048291506,-2.2064697273645617,-2.108872435255279,-4.188079600940242,-5.411232075639051,-12.587704171068548,-19.193113237567932,-14.852706306906395,-8.804112781841805,-10.215513641447444,-12.575853317586493,-10.606273884619057,-8.09823941405524,-7.611484148994855,-4.238408424537006,1.9869168646428559,3.546265738406645,7.193779399245317,16.618781340521526,13.603712776454035,-2.209627312873719,-22.747333509680498,-49.70008629343835,-59.92611722752167,-62.58038775484151,-86.94971804424996,-82.38719727280056,-64.6979684856858,-112.71719497387764,-133.16159333269368,-35.979710832037085,257.2095634705024,862.0401057808067,1118.5132724138107,168.9884637548073,-977.1956300007596,-784.4455513472067,-29.62548943132054,-5.27186188134263,-162.8744749747595,21.807037610414206,50.52011252521181,-59.741485147784765,16.535254544490222,63.37446440480758,1.406714596875906,15.815574307666715,37.55220361115417,3.1464749703975983,-1.8403024724414792,-4.038561442106779,-35.89043542691835,-46.10468043522785,-44.44888621634051,-57.60257112447097,-57.5833031547251,-42.17150696275888,-38.629394709179735,-38.69399187830966,-15.981834949034782,27.990942560996384,72.57923489623502,110.80736012057724,150.6906599595964,192.69290112149037,224.5267354288399,233.61214860194622,208.89556410739834,139.09005923259986,34.998244347707825,-59.37419865081182,-113.73216461672939,-141.0250732685626,-150.89195603355654,-135.2225483453229,-110.65178055553292,-97.11231163727082,-79.45278023844656,-50.0133414641415,-26.416180813496116,-11.559070864308712,-3.5566732999310062,-10.397612854408997,-19.5389807564672,-13.532101300089423,-3.455998671186684,-0.26971393940296196,0.6529752222975738,-2.5331520491667874,-6.841052195643922,0.5806577090870189,10.260370626662084,3.8601854872321937,-5.195205061030432,-0.3331487206858128,2.947019755430812,-4.288672100731818,-6.952137023457862,-5.097434831325266,-6.711732327779119,-2.5843470297737134,5.152352882104905,1.7526803804660496,-6.114048530141911,-7.617096346143472,-7.537212949503301,-7.938579988428563,-8.537466225939925,-10.241462221605403,-8.48482043298743,-5.480550281199305,-5.1735409308568805,-0.6141810097029685,6.015690566634756,5.895599487966617,2.2404927567796182,-5.108469863221343,-14.006956462229649,-9.021113985569412,2.2340608188317663,-0.8541061033301638,-5.854421929373363,-2.855317002634667,-7.925963210499809,-12.672447314043078,-2.471842522251702,-1.3758367020024398,-16.39308662784706,-16.317939933275497,-3.929562363880743,-7.577350273384761,-16.0747352903671,-8.217265594353021,3.058159007837883,2.866170207301998,-4.107880483497654,-9.905758085449726,-8.021654326501231,-0.8030884650686314,-2.2444936176506243,-11.763771890509453,-11.479825521393435,-1.4040483868863678,-0.49281876624172405,-7.062270468120085,0.23327057416418917,13.808598453443054,9.824260906817342,6.941437688179842,23.563312938640443,27.492994264911715,4.922249486979114,-28.4506841530476,-65.14628867056011,-75.17720763686374,-65.20044539418578,-80.82553992013692,-82.99214066464506,-73.08468016180264,-120.1402629932243,-134.53424021646626,-34.05895781659487,239.64706012438543,821.6441116221679,1114.3223184844833,224.72061029783393,-939.9454947569527,-804.6784802114175,-45.76231435029355,5.2390227190171785,-162.14340927465258,17.298033275056696,61.13606242206623,-49.8752195127614,11.721694833966946,51.794223201074104,-5.720111925407284,17.250200171490853,38.618793992125504,-3.2380543262907224,-5.7477187600331465,2.7518744050470776,-26.864951022107434,-45.326164766267425,-45.180379910021365,-47.10860069867205,-47.05071185462949,-46.472195895461425,-41.12554906374853,-30.679299532193593,-21.09764266571415,6.874600425815643,58.2303426607496,107.12035846912136,150.04500602938816,192.5638120829333,224.35184450851773,240.21638451139418,220.33706391608143,141.14394926605297,35.994793395936924,-45.51123217297347,-102.2458327227724,-141.9329608405225,-154.85655889352893,-142.44982938035926,-118.84156007929928,-97.99820022872262,-80.6475334714442,-55.02223226876366,-30.190541571537995,-23.214574749854275,-16.73800727665345,2.6515555415630416,11.531277169188563,3.584501652215131,2.5242907678979307,10.495247393477648,10.102433397113373,4.723347288430002,8.618667243878207,10.263290293869225,-8.922562422452454,-28.18438860844755,-19.289142233051244,-3.4513200990151063,-7.26573148264837,-11.839541334742703,-3.9961724153679974,-2.6010909056631792,-6.27060547937522,1.379065935301126,4.561127295625864,-10.123192814677918,-16.29053604079715,-3.243910765192652,1.027463241285183,-9.069122433546376,-13.193998625112304,-11.844799101840811,-10.730392804378726,-3.7226424369103857,2.5919272509819873,-0.28768368084599594,-5.637346788054133,-8.816805850395045,-7.001702771689779,-0.6096772717731422,-2.807715489580316,-10.302141155661332,-6.822803403189585,-5.125494598731596,-13.986898251866762,-11.201787024904672,-0.21629560708876205,-4.389443658523877,-12.542392771535383,-10.151728106755481,-6.528829034223595,-4.295246343856764,-3.782754452693137,-9.094335417694502,-8.936009676824897,0.7339709575329563,2.6208429872097447,-4.837192323220906,-4.9093501134366235,2.4382781027816316,2.7749675748864213,-4.87317305182662,-7.351892563755509,-1.949409321605489,0.13950063472389473,-4.446043104976015,-8.82825673310252,-9.485115374638813,-8.653286184404367,-7.5703695874568275,0.01354780811135381,11.833026448591097,12.673476921356055,11.133547788045039,19.58074661961018,15.754262977985475,-3.8451525888627796,-23.40230321462236,-47.71431320986052,-58.5881474398434,-58.063125098195975,-79.11136223952458,-76.23314380055129,-56.835111102792254,-105.988414662964,-134.25119768039636,-36.53339737168389,249.6035875510327,832.4935375119073,1105.9165321314877,203.72173811708834,-952.9950714706968,-810.0928206486207,-53.77647851491083,-0.8119447370312329,-165.3967528404529,6.830331628607922,49.97740785105951,-50.1478327369377,14.96520192190124,54.11015170417317,1.0609373223642589,25.22365371440236,44.756430401549586,1.259428006105722,-9.621901310504422,-7.179443581343943,-28.965891223553584,-39.95848120992464,-45.78514182094365,-55.613302365494604,-52.70727023574358,-49.9098719289232,-53.753478282292775,-41.12687423814702,-10.124006458785875,21.207818394215863,56.173486831283725,106.18341473591586,156.30915400212868,189.939688896826,218.1531405044998,240.48372077671155,222.78685872328828,147.41026430564307,43.1904112735119,-45.22535114581059,-97.6003497459227,-126.21878557392706,-144.5109225024116,-146.2864289180531,-128.75140134404967,-105.05953575906217,-83.18840411629947,-59.320217725390705,-35.8125147708644,-23.44200495075232,-19.127774673460454,-8.553692144351796,2.843234439201062,3.119770815919992,3.8883696799856935,10.160930636120785,7.3272645869687825,0.6092036202037043,1.7410522127203052,1.011274191794719,-1.978463767662932,0.7268985155139749,-0.07708247351943065,-5.721558022437684,-7.998007739205743,-10.609123673959672,-9.16795201736355,-1.110161667931985,-3.65433696362488,-10.632177691947728,-3.115708106564302,2.0387489315390024,-3.9326930266196527,-3.0236700234010474,-2.8951411029710954,-12.133606526927611,-13.102363910659719,-9.406565368770218,-12.720262141444815,-10.85641730724688,-6.3664175707254,-9.445063963996187,-6.525539446342933,2.006348610449704,1.4028438658282063,-0.685804635509788,-2.621169431884944,-14.338441291177695,-20.82232700410505,-12.192859471348932,-6.884888565765712,-8.981551324822071,-7.4498580235879075,-5.292927613881156,-6.4971025311025326,-6.4096982700659915,-1.6754254074925914,3.7657023422045093,-1.1614648915295192,-10.790767050626325,-4.061907721170888,7.923348490440791,1.3997692714588226,-6.783120202810997,-1.2063613420152643,0.3113865052182616,-4.99309980027733,-5.920782096594863,-5.4481688060238955,-2.7110783654486745,0.36098437659810756,-6.7637998166702555,-12.792862013488968,-4.998398180747661,3.579988000563837,6.731857799706973,12.92228532118627,21.86571079932658,23.870340420935825,10.909514840790507,-13.348167773944898,-39.944013372144795,-54.903786220591044,-50.80267436672521,-62.35695573848219,-87.26434081906505,-66.01175945274699,-56.15115294620395,-112.3191319706142,-111.74590584953148,11.432793296166068,361.3080633227566,975.9355523805881,1027.5327309222616,-115.64086811916476,-1106.851546314356,-699.0747879733833,-16.366576681270587,-67.96536277852027,-120.46381422846048,93.32218001382842,59.89333428841654,-34.774204532777915,52.97236098512629,59.74743036165389,4.82625601611143,37.80234406449873,37.100808036231356,0.33407743590541195,8.040116624267121,-11.110176372639984,-53.814282617502705,-54.695695261521195,-54.924474056735235,-68.87650643497082,-62.455069240306756,-60.39229340228572,-66.17822427477202,-38.60895886862482,6.867111033036267,38.886666522990986,79.65332996880687,139.99642989488547,194.27654582873436,236.6628389269183,269.1518039411339,268.64077024478155,220.6376738083166,135.0159248922351,26.08584584773081,-76.7317033029407,-138.55301953289563,-163.21903006617686,-173.09539130271318,-165.24751979119088,-137.78559809812185,-106.4366655394717,-76.58554654541533,-51.48499274220261,-38.77311192844658,-27.255861764500132,-9.068268804340509,0.5975810097426795,-1.5621183745214324,-4.190608758366423,-4.105152632635768,0.31235090769859397,2.9386783478617033,-5.951969987377801,-10.008617725224058,2.866597937148235,7.63557204252875,-5.167139235247092,-10.487280138529382,-3.079682230481918,0.684387075436911,-1.491437734353191,-4.195555894047363,-5.987841820199874,-5.805295085437505,-5.74868296931645,-7.086131261169822,-6.007100694192861,-3.386099861346171,-4.620273974044714,-8.38699866302423,-9.706759728015374,-8.987700816773229,-7.252335396578346,-2.6209317423323775,-0.1101929474100185,-4.391868520857351,-2.270034215385948,11.030771599942517,10.170107188435885,-9.620137973382185,-15.246861999065748,-2.587318577715804,-0.4753731866331812,-9.35761604764056,-12.914056231702626,-13.290349032056278,-13.369990256836235,-12.467506561344438,-13.945837486947042,-12.84014870544441,-7.585192357203706,-8.131385638242344,-11.880991723475852,-7.134074712926935,5.776640349153036,13.803994627483128,6.643775824845153,2.2998339400894663,18.696912024547323,26.746457699235314,2.744822819439479,-33.30349685049852,-57.74549433447294,-57.826903196941586,-58.63197773417672,-81.42010233761246,-72.11947536193206,-51.06731463550494,-94.15070551913503,-109.61045325922171,-19.222409242906025,249.76662068538718,839.8875605417418,1123.1108136885873,192.85923074423698,-1010.5704596933759,-882.5092016847091,-97.6958866855635,-4.446049408811774,-141.26578606013433,43.756894274665726,81.14981773322,-33.98817287892724,29.220829576384347,69.13673295561327,-0.06690045949813417,10.836421643095807,33.84542272579276,-4.089579197263364,-7.729739706387916,0.7366145825394286,-30.100185389968665,-44.493131149817366,-32.935731961224334,-40.5507513730653,-58.116581029926664,-56.56808269206614,-43.44973093440829,-30.868899149465953,-8.278798765475422,31.14213653796041,79.82518669099267,133.9191442649933,186.00437603601918,222.1767363155279,245.06747839645737,257.2864542837646,226.6536367149175,127.89094933527798,5.940947240989587,-75.58673328519835,-121.43422929041644,-156.35529350183697,-161.02118605678103,-137.42384680297232,-124.22636294211925,-114.621337450333,-83.48607076288596,-51.52622192685676,-36.35258804237154,-27.625842077550136,-21.680562501445394,-14.33068657178168,-3.590565078434633,-0.8393180229848021,-2.507254816743078,-0.4188911326987501,-1.2099571140780192,3.0431567965570814,14.756215157094712,8.514862230659293,-7.670957304617481,-2.2218397077251897,7.583113147864313,1.8596165120125967,1.7659165128058927,5.362917574302662,-4.509505795882127,-6.448454973257647,6.427465435500713,4.4995407611301985,-7.726480254906576,-6.302338441114973,-5.050767752724973,-15.38083205858824,-19.005845595357947,-12.485542196700072,-8.76253590492216,-9.90649094221768,-13.640313677774017,-12.901867943823635,-0.7717833032755426,7.021098211928643,-1.782006960536659,-8.896970175875875,-6.529506925122785,-8.481911810548258,-10.706538786415955,-6.209613241988337,-5.958122356177963,-6.439856509882261,2.508264779115777,6.761544869591569,0.4695422722747553,0.2611053539572943,5.972121687364268,4.705357295746453,-2.1078606463282963,-7.166855417738238,-6.343109189726501,-4.416423686863775,-12.040218808845502,-17.852395788334622,-7.713649040802544,-3.791272581547874,-13.431089506042593,-7.819528655533087,2.163147510465076,-3.2942331938998892,9.426978855754706,30.47858361342771,10.096324578815215,-16.482170735975348,-18.32356491371255,-35.49938507272218,-58.21754868212684,-67.42190352198035,-75.32948818319008,-59.40657455971086,-61.67055741497826,-117.0207429904678,-119.80657469662825,1.3948611277061502,389.7016335150299,1021.979974167515,978.4606107322178,-230.204909162055,-1097.4294821478447,-566.5525857937903,54.09739728274096,-86.95137378871134,-141.89081420467014,67.55749306858235,19.782066489661347,-59.78140781775591,38.35401700722994,46.99581205709935,-0.6064381459024535,29.516200912027713,26.272900640676152,-8.027351746561123,-4.3847926992373925,-12.308046935961876,-31.75762644359726,-33.01579905525767,-43.57263851452299,-55.802848042548014,-49.38443339791668,-46.58554823500805,-47.91791250130812,-30.811721520607943,0.4678805059633966,33.41972072027931,71.83907635176438,122.29530676466842,176.87136987217787,217.30378547634956,238.4652303278629,241.68621240134462,204.96735907963688,114.52901584509127,10.075101564406975,-63.53378387639492,-109.77822491225882,-142.3618578265901,-153.8331817005698,-142.87702734733355,-122.17111286156576,-99.77949670318594,-77.93406031674118,-58.08306585148097,-39.99606584934617,-25.23686038251048,-16.86490647943728,-10.131788062310068,1.5513654882660894,10.037714575135768,7.039375303040572,3.662905696520273,7.071964826628022,7.594424228088155,4.100854745884098,3.9114330790895453,5.420286960680139,5.50996346417395,3.1458317697769793,-1.9443654088408078,-2.33602282018785,4.742130710010728,8.328229019035472,3.137656365354406,-4.774396846930397,-10.309522683957617,-11.709877047197104,-11.735944131630063,-15.056312758329955,-18.99396679059717,-17.2979907768363,-10.300046531155301,-4.549001364459041,-3.889568625138832,-4.716982122121053,-5.036917616820006,-5.707666273878306,-1.774793220608787,3.926898460777906,-1.019091310617366,-9.187052057962271,-6.307720987275914,-4.266438432057763,-12.940628399455179,-17.24133420547496,-9.571934545982918,-0.9589489572483263,0.4767542943751586,-2.578658766545594,-3.2325919526254676,-4.079250249985776,-11.23204593921364,-12.19700788386975,0.04928474523940629,4.082075542361906,-3.1894074339678165,1.4211358894025743,9.474778405935979,-0.7306579717826196,-11.595400269713696,-5.996657192211394,-1.8476376151199645,-4.402966585955845,1.8225557055651933,4.208966328792874,-10.873137916454645,-11.174320943086705,12.7825666958224,18.038792392569256,-1.421446346617845,-25.9292876787386,-54.534545546845706,-62.42549964451743,-60.498390685186166,-85.97279615539748,-84.29769973430213,-65.65347766837041,-112.55415506994409,-127.75427453474303,-23.985751639345267,262.3240286089673,859.8511450520894,1124.811366856031,175.87408511462812,-982.4238078454514,-784.3215292149197,-17.673489329754286,-1.0285832567535422,-163.75414051647087,31.41847083458302,61.99036669197142,-57.7320649921218,13.932584915196436,61.23935484358965,-2.795506161256327,1.2333601437860615,11.762939961676732,-18.339141830472645,-9.915950396545664,-2.922810023577151,-26.84400521381252,-36.222340239187645,-41.04208940105531,-49.70995485864563,-47.93484501647579,-52.034414650289804,-55.0169166856979,-36.22161912366039,-11.275468407244386,18.71376426357699,66.7634670977164,112.52037815881117,146.6475100914423,188.62991787847568,231.4432408000851,249.40335794094892,228.00274553224395,152.78334787108946,38.74365684604672,-54.6816572557686,-100.83223804417261,-129.09534029452954,-151.30106765515296,-152.1580585826667,-133.91697523252276,-107.19719724684474,-76.64791080294592,-51.19871463365632,-33.71771024589772,-19.957669949732303,-13.150791241448495,-12.427746157557465,-8.474482053842063,-0.6043343775815586,5.349646125985707,5.259467265947034,-0.6633590378487071,-3.3150733988314656,1.4546395722778875,4.8170901560434025,3.7037894854324325,1.7598348764465133,-0.9107872518257416,-1.9140640819642716,-0.2255916431674514,0.7348516302355605,1.2367405823255204,0.2874883230184295,-2.8329598448964166,-3.403392343912971,-4.169207389082354,-6.515686477251692,-1.045113664599457,4.1963742208033885,-5.851016733657453,-16.646544828578122,-14.321745245066909,-10.773114157502736,-9.983378543168953,-7.127444105222562,-8.160723505860748,-10.008190048815194,-2.6062979559510104,3.2836779154228095,-1.349198538953349,0.17447233573559284,9.205547522331603,1.7719912009382606,-11.898678597264103,-1.147453112626443,11.998213894329513,-3.9479617431778813,-18.725176350493815,-6.218279929361314,5.561463296561691,1.2258385632018207,-4.666234350531875,-11.872282724516381,-21.457726826512694,-19.63669954585374,-6.506087198955972,1.9014191233635263,-1.2796589426292915,-9.83250158824542,-12.980184900930453,-6.355910784658224,-1.457163083720621,-8.074693105598744,-12.894243148892382,-6.741593902898522,-4.253236211076897,1.1748691913703082,28.661815624088316,42.44204802383281,13.050610319169449,-16.689996060889634,-33.25953633639916,-59.84295885854561,-74.30295999118756,-79.66691136644808,-87.78344173627384,-67.44170075300251,-72.49162866499341,-124.69353892816572,-104.16335146978302,23.484944160770652,379.0472223387972,986.6694212072816,969.9379072896256,-195.24275605403548,-1062.3190497946475,-560.8933938905265,54.65234807052101,-72.90709433630282,-127.93206448202994,75.49577418575711,26.83921482998815,-52.88866479479342,44.07963376499499,42.090973831881115,-20.16287087284112,15.08792916979453,26.487034366787306,-8.795658999003045,-11.111275122183084,-18.590642559125182,-36.65484335736255,-30.54229370747445,-32.46487610463955,-50.05141908800201,-51.538688491006276,-46.893557056522866,-49.34712299551692,-37.304417389002694,-4.298214603875447,31.318254688019444,67.78374919907736,113.70269695956482,162.65885168193063,210.52808977668997,254.6260122464597,265.72534732000736,217.01340018459672,126.30159580009439,29.396324632003864,-54.42680807847873,-115.91663316034854,-150.62991500247261,-160.56900596416176,-147.4711117089817,-117.7332900561695,-90.33729199603647,-78.11533195293377,-70.39646664873753,-54.445900066498496,-36.53121785058666,-23.818121589544127,-11.079602807756515,2.1688654611268383,9.543563263761218,12.347529415285589,12.040451542624481,5.547359544426799,0.11776234695652477,0.8220243097438882,-5.655663157045513,-17.627299299364864,-12.494398697644822,0.5968406161943989,-4.9586694687908945,-13.602994706628666,-4.228763966909824,2.8641035409564033,-3.0590198080188546,-3.924102689977472,-2.1116858183971576,-8.296113117374471,-7.7231703563034255,3.564921637626391,3.754200722163551,-7.175025926642492,-6.184005975216409,4.230439191590699,2.676686438259077,-7.305013712263435,-10.159324761057022,-10.91146884515705,-12.831832176639523,-5.784766215655241,-0.5939250113538108,-12.358216898443413,-19.834546898446778,-7.932673574014267,-0.6212157161704894,-7.637029268914327,-11.162613293005212,-8.828988372921565,-6.713303948429117,0.09384090362762265,7.739093350426736,2.3615654756149187,-12.404923799814078,-13.935596696993255,1.3246456014197392,6.290652671202797,-4.7862622683350935,-8.091234158950416,-7.049901858652962,-13.567722185795661,-9.478930174490998,3.9523185779516843,4.1484687865886904,1.9569709239857302,16.108859029565732,36.88319445263487,40.7553160606978,11.801591050585191,-34.64618272124686,-65.51452973497084,-65.97554620600292,-54.887756470240205,-69.62583979139384,-84.34559046284924,-55.89804532355497,-57.45356485637784,-102.62270635493118,-74.51734168203816,75.24304149867854,488.37342919864966,1058.2508468941562,827.3886254030905,-453.3475222635378,-1163.6091377768464,-532.5929166307778,28.00054131443464,-105.05892637620678,-84.72081013970117,111.6294748236704,35.426536169632136,-15.629866437604452,79.98416293923114,46.361822216205425,-10.30025157262618,39.633982522739906,41.13460365914261,-7.554127105282788,-10.743075250448559,-11.900217988617852,-36.93636560266432,-51.54170975026604,-53.92367898273231,-53.93972746893322,-56.85063280761911,-62.54259353234349,-54.70669431695856,-26.76570135793843,8.744743757712925,47.6332874238784,99.63515348952623,160.03029249814625,207.3919000048636,244.87491125996246,284.7543852753621,288.87055821478094,215.25996779288636,95.86945555275955,-13.317966445414866,-96.21728357726397,-151.9230879048239,-178.43274761954723,-180.74669877323032,-159.06818255423508,-119.68073300434799,-88.46167923213191,-74.23766224911063,-58.66809803625941,-41.82846687867755,-34.9998025510466,-21.604366764298334,4.013972143361499,10.110100086651542,-5.576209463201643,-6.005487767232793,10.747727391456056,18.890228917552584,19.909369032142244,20.089788929382436,7.2139904736171605,-15.886888979164885,-24.260657994442546,-6.991842525455992,12.043409625831993,3.485493436891314,-17.44979079191505,-16.072110223083147,-5.588011450422446,-9.546418457628222,-8.355652188934263,-0.5553675121105535,-9.372100078139034,-11.628877026190391,6.71249642408352,4.0503846328375595,-16.851298789522236,-12.556922485494933,3.1612257712678016,3.5466054695731373,-1.6508888561356905,-9.973050158305465,-16.392430684859765,-8.803179290242904,-5.517916866266905,-15.203521558985095,-15.282696300493235,-8.346373855447625,-10.755066177006842,-12.050237737341678,-6.093694638192096,-7.25058402322237,-12.384811971102625,-1.3711901292491966,7.156883364295233,-16.33429411566738,-21.688767859660043,27.858506788816698,47.25189864956148,0.9268129854923961,-30.343624918705682,-32.93537025704456,-44.410668372949104,-60.22146088093849,-73.91717386613146,-63.57878182007464,-50.122407672023684,-88.72133935428693,-101.54282951164593,-15.504866970446045,247.14492343107725,823.4356584716721,1105.2252421714516,187.26273488236322,-1036.0586763064161,-940.5713570524629,-135.54726063534312,-0.6583573585962412,-130.20776029983227,55.52987211687053,103.44421903474975,-15.61618061630473,40.649077623416716,81.40097006941531,2.5587531058341995,1.2401191328222296,30.43006303919269,8.553049988738628,10.766627621242845,13.742360678559285,-16.50716200190567,-27.642065359027995,-35.43732834960864,-66.8315489175936,-73.79810517660007,-49.74273632051387,-41.29036706071347,-46.91551390589026,-29.262851524675874,18.741671440824717,76.48512463637637,133.56931643111062,188.63586509990182,229.31341739466768,252.5345405130089,261.08890584449995,221.8189798978716,117.46970970331587,5.250064372269236,-73.35495953629557,-135.92276044484646,-173.28390845986047,-166.62660415236607,-146.19183951233356,-127.60685379933817,-96.06038941145856,-66.3189086293076,-52.52456063404739,-38.39931373546845,-22.68139143999431,-18.05635439995774,-17.397055940471176,-6.301270505604318,11.071883397078262,13.033353480983422,-3.3011083556998173,-7.77098834592984,9.274365641565861,20.386050332371365,13.728419749449998,2.207791742605968,-1.0827647434629046,7.161837277499169,8.163442972254494,-7.1979787504155786,-9.666685544903554,3.610532285993507,-1.2716957826036595,-10.384065629536732,5.162072189231003,11.314640917669802,-13.965394399729874,-25.18586746760599,-1.3723380222044854,16.482831773663676,4.705859400294983,-13.269568804136743,-19.76355154382543,-21.5352228648734,-13.849197204421111,6.7935500469637695,6.188195208161936,-22.093755795396625,-20.464211476252903,10.41325646561882,5.643919725083093,-8.479841000214055,18.722309523973536,21.507689172921584,-24.520547050262888,-29.31065612036242,1.5136296138936647,-2.349806387740891,0.857411865291609,29.44936220824885,10.215214387129699,-33.83981604388988,-36.53533260223386,-29.10905059779025,-14.11692161457852,34.71843718543204,45.814705992914206,-1.5599624392043658,-26.08850997309932,-41.34427788187582,-78.57240155552125,-78.5338339957759,-56.49367259871251,-57.70605944741018,-58.705759212609586,-81.95061683245085,-103.55203147954926,-51.4570594113771,93.5935635911224,533.6883164994151,1103.269867873737,748.8290978351168,-583.9568793227194,-1156.9262367082267,-477.2438545262552,-20.66391114213843,-140.4621377123132,-31.727915055090193,140.5836406311242,39.38836214540149,16.234542885220154,80.3021127594806,24.205498188816666,12.644968930884685,47.90600652323461,-8.766460246398601,-34.65942661189108,5.442094159827139,-3.531613652844803,-21.95352911187591,-17.55918617807245,-48.59075722082641,-78.9630869780693,-62.85783983920452,-44.84952652926387,-44.01323854458576,-30.052645278430937,4.6061675848947985,47.03137762856733,101.63787813302712,177.6936590957991,240.08422665789803,254.6349212937472,264.10653982380995,280.18254956671643,215.26543476228395,65.77198927654459,-52.15931878677435,-105.2751494733148,-144.90529023321528,-178.51274165736652,-192.07888395197568,-175.1301446729094,-122.00089029931078,-75.86203736344501,-67.65168423100314,-60.47623542791789,-38.39800797677367,-19.305532003649933,-0.8481201833277154,3.060243162652906,-15.547001208160054,-11.782770050852356,17.850232304543955,18.789532951284905,0.6611474649021254,6.101630584677617,9.870861801594124,-6.753769224046463,-7.3483294774790195,2.4747585236433842,-7.043995060637082,-4.792697281900837,14.817959077755738,0.09098281701653477,-25.791391881053695,-9.975710698670117,5.94175183740723,-9.38094007732613,-15.899602039706895,-9.117390447845622,-7.169689612041757,0.8589119325680326,9.661280585508713,6.609437216699691,-5.309586066616717,-21.588515488747444,-20.27582449196659,-1.6407629986190928,-1.8810963261690787,-1.1171406403699864,23.252483749089542,13.212150131620525,-27.631348144621768,-22.858823388528258,-0.3301938368701336,-13.904759784602595,-13.301235261951632,21.162274543918684,28.467143955292208,5.082748115552862,-4.394897370864931,-17.135191037387838,-55.946569388801095,-70.71261972482701,-55.11536007507297,-65.69732657893456,-66.52485705451774,-44.92302422528755,-89.19023855307779,-128.94031846961798,-54.07917426624073,160.38808320978245,691.3971229994056,1174.4274027790657,551.9400154723958,-801.732281633742,-1088.8945054653102,-304.6179907518615,20.178518462908816,-133.2732941362975,-6.747895854395793,97.69443244100283,-28.421904085139495,-4.366380836548906,81.95035323941661,19.953167426035606,-2.515319182808039,43.13458312886067,20.882406258142716,-15.952443617635245,-20.077847373571366,-30.222144409315046,-39.9781640785338,-42.5082185390429,-45.182951978447115,-46.93047912388211,-51.866746461830274,-43.73994767997134,-23.249663934097907,-19.32656036677398,-0.9017210454018851,67.30458422213908,134.28657649586512,167.72555965655806,205.24511723278945,255.62813741863567,276.0657211674372,226.79098007097292,118.26033719238947,11.374236038104755,-63.04738656546433,-120.11388609074845,-150.08363549295342,-145.63885325605816,-136.34765979388644,-127.63681035709968,-108.1812931773791,-89.06654386885305,-68.27769872687557,-40.24824718086609,-24.90399845761719,-24.44843091356565,-17.119643574779026,0.12618785682584388,9.986850718755353,-1.0953184432731504,-17.4950215875827,-10.386823286168852,6.617216283812075,3.075031645635338,-4.641019958705689,7.821749596493161,22.45481091456824,16.92140956996776,4.107869089469951,8.420900636303934,19.314354297220508,5.995151285173428,-18.58574698212553,-19.664221380958804,-9.762785145680727,-11.17297673214387,-10.190748973314438,-4.116398442596079,-5.372207803788909,-3.4333144983587616,3.4579741008557345,-0.9132007851057704,-5.678690454772491,1.0875794020979015,-1.4990970554431513,-16.290305761012416,-16.44840780818175,-3.1832830852287017,-2.1411356414190124,-9.695743504837932,-0.9804434053580708,14.041900741516825,2.851906423855638,-19.282659270523176,-15.081844831811495,-0.36540962190929616,0.05748827631944664,-1.0843865575421185,-1.1631048209461525,-4.898768165648606,-5.085724415570905,-6.858354917783988,-0.6640086563563985,23.520006268260584,29.688607803347836,9.181314332466592,-11.859399317794747,-41.58713626628129,-69.0122472057061,-79.29616681911625,-90.61899197167094,-78.91541732183074,-67.86123986247947,-116.44818416613018,-136.62186259585116,-45.09371061377061,277.3454277696155,930.8930688403271,1148.6580026434626,101.52448131568624,-1042.183224044999,-775.224846481485,-13.49079413778074,-8.094268100421687,-146.61063798333734,34.54592894596821,43.27348473504318,-55.67296425848968,20.534577325825644,51.354478935541785,1.1483748348365062,23.03232013152916,27.974185606900456,-9.734600733549284,-8.209242082179461,-6.257952630116004,-23.52326311096833,-28.56096058568196,-41.23604383706901,-62.502866876015894,-68.29570169850237,-62.207834113218695,-49.22921410522582,-34.645561915129775,-20.027348565659768,14.803138845595896,72.3707341171629,125.60064551464063,159.12744260177553,182.96041386939712,214.5303324389,241.81858427282407,217.72349802142884,128.69214286742,22.197590846888705,-59.25324339972458,-110.10804118161347,-135.7467534327224,-143.2051554171722,-138.28872057395,-121.63790703195667,-100.09774847593144,-80.37998002169971,-55.95671108129672,-29.830745756121402,-21.348034637781936,-24.55166258329835,-11.71555655267272,8.630951027419233,8.526990853187785,2.082591178662689,9.641387590544028,10.845400057490808,-0.5624706391090406,2.2384648095551007,17.30521321676605,20.225792202074857,11.416348183974883,0.14340641642851182,-12.26135444434861,-19.847565017465307,-18.514266343486973,-11.54809882079815,-5.453270037895917,-8.572040215383373,-15.235912219863792,-11.384172005837932,-5.442537179055499,-8.686333072670546,-8.79418546147948,-2.4506792693526416,0.42306274248789855,3.2577884006414948,1.539468286935417,-10.609240383759664,-9.512866214072632,6.629113038464118,5.124368660293172,-7.018299685266378,-8.33832671150291,-10.40321974793907,-3.378063503821174,19.849344950308044,14.038712488157968,-19.57496494631112,-21.609536159466668,-0.2700226124594991,2.290866437784377,-1.9510141868235635,-2.6518591412679466,-8.218203261598427,-5.494506212469451,1.935801719629783,-4.8803958451882625,-9.943202430700456,-2.9645252840023915,-2.83894709806237,-5.151086351046665,-0.5475954036659996,-5.829564087649828,-14.746622488584919,-7.637556073165526,-2.4855114903299427,-7.705257472698612,-2.0211201286028313,4.89754455163351,0.9785194425444983,9.078365760099388,22.439492572058974,13.949276967067625,-9.870472627965531,-40.425404772223956,-59.9027755082294,-56.59448409148562,-72.55369879846184,-88.24655338939219,-60.791093493610425,-85.67402351081941,-155.79172780751688,-115.99620687283002,64.46860792367423,517.259671686285,1119.4237549836978,869.7247737104917,-422.065667619053,-1073.0894793875627,-420.18379166511,67.74591186917597,-123.15438243814793,-113.36353072297885,69.30121168270372,-6.167259166968449,-37.07870557394936,61.38175716305456,23.597890418004017,-29.631221046456616,14.690834650957417,10.435403410548941,-23.821743300880268,-4.9522437643503,2.329732449241469,-27.962999575706586,-49.039535839243115,-50.29039690002932,-42.494048821118504,-40.16851070396844,-47.494979326173734,-42.73226508816096,-22.851088748036858,-2.544330000804216,28.422399102761432,71.24440002069153,107.11832412684063,148.9130538987929,204.64908210690606,237.81644330226604,233.93359569728747,197.35928989484438,109.6806638825789,0.7359980770143437,-66.45233772521593,-104.2137831146178,-139.98186875411082,-148.5557923147809,-133.8079720758581,-122.29195643582125,-101.3730051235608,-71.69271790212127,-54.21339897130606,-35.60777963325984,-9.262709910621822,-0.6893664410787999,-6.099034861812708,1.4695802755250256,12.512907782303515,6.21077356757265,-2.1875356961723966,1.7800612747281725,3.9500896959937606,4.261287764128674,10.484083401765082,2.8359776993095167,-15.629444069098366,-10.919646116921838,1.7633420512837965,-7.637369473132919,-10.854789279023045,4.408551719993875,0.9008880672209525,-16.49248746098769,-12.456301292564605,-0.4979709520909008,-5.176763286852347,-12.990874206661456,-10.438765667398302,-4.464089255393915,0.1992340070583447,3.4716283890462023,2.5370431874993162,-1.004105109711107,0.19604386678359376,5.957379388183828,6.358515216588127,-0.017160818388866517,-3.5471323091963285,-5.720216221146538,-14.680224864537678,-18.046744222218926,-3.1481036458766187,7.542826221648943,-3.8366662987326006,-9.99899886735022,3.8758305527497936,8.0420243396353,-2.8974324125971744,-2.3103420452171797,2.6241340002103035,-5.229931559514673,-9.828995764030154,-8.839352313119727,-19.567312756101224,-27.85188352838348,-15.051000150376588,2.154670719935658,5.456780637516384,-0.8560536988120386,-5.0698645443217245,-3.078047278161131,0.9960710676770717,4.765712012077975,0.5977763266946265,-10.267485120713047,4.101932556447751,33.74578607954856,18.96006817804367,-23.46274037875806,-42.232926188463914,-55.76267587623579,-72.29114415207225,-78.04967459398863,-80.2221280568667,-75.71299423720751,-95.49828823045638,-136.1839749461516,-107.82612368042788,35.260152392432474,446.14984794164474,1062.370809592429,937.6657265360577,-300.69125880641786,-1080.5657510899773,-487.90783968298865,87.24640857548209,-99.97773733177013,-151.73272668562137,59.1304563624973,10.585865832229572,-54.88471146151869,50.17244147665747,50.01828895700349,-10.351633395647504,16.766359086434413,25.34767501873163,-7.720064044013959,-21.08042467643219,-22.777024051569665,-13.675374330932065,-17.74097737563821,-54.17648163122796,-65.63002267693446,-42.898666078627954,-37.1329821432933,-38.886998463092425,-24.081353258069313,-5.281188593559282,18.93420780140893,57.65183929290261,109.38035682670014,170.15576699220824,216.75723450099053,231.92065590362216,232.3614619907195,215.6550882237495,148.34668368172808,36.564668525228285,-62.100421202810686,-110.50207438684895,-136.71967819812647,-172.02284865137585,-178.91472316499335,-130.88486295871053,-89.17593372625421,-85.5289320701756,-68.05243481478831,-30.64097974877196,-15.36389423782122,-10.813587430931058,2.4937431547084117,4.6022562122232245,-5.386562721946042,-8.266485738410779,-3.154433186455421,3.0380785287845455,6.959106761345563,7.966370674303885,2.3260167659281468,-8.840234225829807,-0.7094817205029926,22.264398572280122,9.014408235601376,-24.961012455392325,-17.672620147106425,4.358270598306788,0.6860521973176059,4.120770774273186,15.328297531337409,0.8151788320168425,-17.983248395086513,-17.286405281450605,-11.589949941280425,-8.000943795407188,-6.001482787826989,-7.458835253671527,-10.412710541943365,-13.28930889251432,-8.674663343628653,0.87024220215139,-1.5692115410576104,-6.455409340355503,2.5327342633357346,8.735980504322699,2.873403981338508,-1.461110439174644,-0.8229799310447277,1.0153971393638352,-0.6236810664066521,-7.426741076114759,-10.626719484414389,-13.165530254315906,-17.18482534419739,-3.3027543369868253,14.471607675975754,0.6152111052145699,-15.560449568467511,3.776564587869121,20.88150733725515,5.046729981555298,-12.656702914795467,-12.86219675543247,-4.62365198689891,7.713739458421047,7.182890867493715,-12.3200697383664,-16.792718952341914,-13.887191101527595,-43.36382854734675,-65.75567874159114,-59.952161374559616,-77.73790983415734,-83.69897644811944,-58.280892730496205,-83.6449161015115,-109.2787311464568,-44.17458749405925,198.24872522026962,785.3527544661575,1160.2563827629365,329.04453335324285,-955.7716481254157,-974.0575167495385,-168.47086731656407,6.976736256880464,-142.47164061668906,30.552386454624305,95.42930940268414,-29.475924852936657,22.7664964109031,81.98107656503731,8.16808238728505,12.717928620073021,64.62344413973395,24.411658270312973,-32.86910835490586,-40.15808011017561,-29.357544756115786,-27.265954285739966,-41.12927169568173,-54.06635821648858,-49.10080680308222,-38.64180222694443,-38.21396414384574,-44.10056773201441,-30.914819390034573,15.834035469024187,67.28489512675282,102.7720984300228,147.50289300379828,212.14421897216062,261.3528904241278,269.68456259168704,247.85265782523993,191.90272191860024,81.0748854479188,-47.29643634586319,-123.98134121842449,-149.90262172271608,-163.5503705425575,-163.67228722911503,-141.26030501641029,-108.57392919182267,-79.13417914416867,-60.52005511797306,-47.79598570977153,-35.233054832029396,-28.9410881704621,-23.271931322447358,-12.002077487130698,-6.866908292058547,-4.101706110715476,4.433548470973779,5.195603726586354,4.068425924242245,17.885952837869922,26.80637685423177,14.755475701373022,2.5889022321342807,1.7974385361984417,-0.2655634469224033,-7.129867879759724,-11.17957835378273,-13.560114187402135,-14.227048727829644,-5.58035841117589,-1.322762774368865,-17.998114385368527,-26.681626106779024,-5.163680293927067,8.56104404326412,-7.691790551471703,-17.04758959004942,-0.010188723471571848,11.671037056201687,-2.2134243028402008,-12.468537739584674,2.6014920123289524,10.07116408362371,-10.117281031047458,-20.691347410312744,-6.361982579967915,0.1429362882023657,-9.178213900059811,-11.736662991344167,-4.59480205203587,-3.705009361511097,-10.920747522591336,-11.721863845708457,-7.514826234562198,-8.926475594906085,-3.791329443411895,3.2261056124334395,-12.636573055396937,-20.867022690677583,4.8122606048287935,14.004002269145829,-1.6571233353647825,6.457104272849489,21.522192566511755,8.893937198955099,-22.419859916797535,-54.50743438595366,-60.08814199310158,-58.51246904407684,-81.92592192026274,-73.80167405960792,-59.739292839121845,-119.128688742109,-137.11540386274856,-24.653032612315513,289.55828299639177,907.492530349781,1117.1105644760028,90.62705308252029,-1045.9872409537074,-786.6310641601764,-21.860666646729925,-8.865262964355303,-150.32785642024658,30.98283957832605,52.57305451795173,-39.774168999078455,26.199247729214456,44.76460375563526,-5.4828352594392555,27.693050770409222,42.92149458618941,4.89150816801995,1.2307871160577424,-0.383079771622306,-25.36908318853595,-42.47780400293145,-56.422925175477786,-61.983515363119714,-56.67924142780498,-59.38595615478779,-50.16801841092426,-19.970935168976,-0.8537109284614885,19.556979119409448,65.98725508557814,105.714651535108,131.92706066744057,184.41606900669657,242.86240140774092,250.72763567249467,208.43258972310792,138.92180924505163,49.892160729373394,-38.89245313253305,-108.273665723446,-149.99211013516341,-152.825139617238,-133.02536343690616,-126.16011787273736,-120.13615430044437,-84.23165588499685,-43.0769760831524,-31.12201480143308,-32.15132276223828,-23.012412168584056,-7.122753847174913,5.249632835927645,3.842322027913955,-3.788290009187712,4.506745303305788,13.294221321551309,0.28020474180257615,-3.485033753644908,14.89286156344448,16.82740224330203,3.2379005085845893,4.493629310046511,10.060621727069812,4.7463479265434465,-4.928856226841024,-15.55171918393965,-19.75770563680789,-15.820567426402278,-15.532942372667534,-11.956395241509355,0.49197257992255317,1.9385171381735038,-4.830201060855806,-3.816654086794312,-9.940738012356498,-18.036364923061008,-3.22330992036669,3.120448690068992,-18.887910595787613,-14.708190603523024,17.059766465946012,11.034305771513864,-15.542783567686117,-8.13593004292151,4.500061019408514,-3.5388256274570145,3.548880885818947,21.771198013733112,8.446636665940112,-15.973643046123533,-6.334619631912563,10.621247493167672,-7.3080707919710335,-32.5156172248826,-28.945439332900087,-15.92712292334402,-17.559179628028318,-22.510249891661246,-9.389976543719424,20.395547505606107,37.00992172348445,20.528388226712124,-7.314757710221025,-14.926078044949065,-11.956342175422161,-31.460232815165835,-58.334737196379194,-62.84001655422946,-69.80581549470187,-76.67261485518935,-68.32528724254749,-102.39444777080162,-145.1983291637932,-95.748717692685,91.91448458406916,593.9598295028196,1155.9719202655967,733.3486219062052,-598.5811263909841,-1085.0394258062292,-351.7019950960297,78.21111258029956,-110.4702854697253,-67.79258290687937,81.69934273486415,-13.848439007170484,-30.5900711953555,68.02968088653859,40.21017488246682,-8.931977551498607,10.19585338985003,11.077536998444561,-2.12325536418896,-13.423493457724383,-33.71898630401097,-34.759174828979,-28.477731272162803,-42.438048245987574,-56.573562461245345,-55.559977688602046,-42.6901486038749,-25.73384285858041,-16.810528793424428,-7.492701127084661,23.004138498638753,76.42887924420741,135.41564642057858,182.580475426708,216.9486317369489,237.51674984819576,231.31691485350066,193.24935935343413,115.1135859964526,-0.5536266790457685,-95.14514502233746,-125.96409694614667,-131.2684541090953,-138.69840286198874,-132.91422588140273,-118.90352918085313,-100.79826926729734,-69.21277361521513,-40.90561445756118,-26.11426794777541,-12.816611378642303,-12.152604496310389,-28.040232419132572,-24.433217411849228,4.560858351120199,14.75643284675721,-2.7131672880554554,-7.2410254029628955,8.803804415642265,11.659129262116409,-0.7155291036627567,-1.4725811373775848,5.576946030430388,1.6161560596286417,-7.846808707322534,-11.243851621686428,-5.527227501869376,5.657011014283691,5.902399537880653,-5.998345815062873,-6.243344598520389,1.0551177571146262,-5.104711513800023,-7.7054154532743615,0.9886589293907129,-6.184607386879,-16.812240523247162,-5.6601614172908175,-1.0432187735736527,-6.8099944625818205,9.490994908891608,15.077931911966434,-16.999491401028344,-24.227627984051516,6.657771318904998,8.020000048234506,-17.222666985424464,-20.181442262202825,-9.604287158282514,-3.2705336675989187,1.467463034964232,-0.5319358477199394,-5.463229312584669,-11.959060656036291,-21.18485952075399,-8.600615645952029,13.848079929702287,0.2899181735192471,-18.308628110983406,-1.7210159298986056,5.285676109651097,-3.208075331114024,21.798756706281154,47.039404496268006,21.468614070247487,-10.518869534291795,-3.5626743587433367,-1.8026856468652568,-44.261603373456,-71.15402163687375,-55.61091115401476,-78.51822869717336,-113.9383838876494,-82.51414511159854,-85.41488684265164,-138.0034879372829,-91.7214227983797,96.75665626218719,566.9206059287121,1133.0259266585301,767.9776282793202,-563.1642447448213,-1101.7612485363834,-371.2633192863287,79.0009795652456,-123.40895651131093,-85.39535075553434,84.0402730407028,-3.3900149667014503,-22.317533798580506,71.08185879399394,40.310190234919034,7.884869895860824,30.614747253483056,-2.1296981107068715,-24.519626335906633,-5.057338552019537,-21.126565504057464,-41.18388462622993,-28.61007906801399,-26.78229951473586,-43.13659449825511,-58.12676668033302,-61.06785721191581,-36.53985876095441,-5.733548873365377,0.7717460843407622,14.899016297180559,67.26906785975834,126.13232815186359,168.9836752018867,207.74422228929186,236.21722637817936,238.12196056138237,200.61784106820414,109.46513904688439,-2.5735428583693913,-76.75607667926934,-120.7435555050524,-159.93551170518143,-163.6704555078191,-128.26284903898238,-103.77711049405218,-95.92484733975505,-72.6374336238816,-41.5649555837317,-29.678500532702635,-31.068186186071415,-21.30624953880179,-0.427935261852749,9.453998708268923,8.297044634193263,12.885855730975287,12.496423885882276,-3.7520498626934646,-9.346661528725788,3.9768724602758443,3.870660763160613,-9.229557520474096,-5.036961196093225,3.7571047565762132,-3.155958000184377,-1.9973289401152492,9.251589090644538,-0.828418526844672,-15.406877498773841,-7.11542465487546,-6.741835086119721,-19.896934246410666,-4.897556688975854,14.853661963235172,-5.530913505839083,-21.376849754745248,-0.641580799210141,3.6974419764498982,-15.187244876738378,-7.4101647318943,12.14738597476681,4.733107034484368,-11.381876938639085,-12.95973768089636,-2.693905693243649,11.47234095102987,11.476693960034826,-5.437327845617419,-12.609974673773726,-4.964012556947623,0.19363573396418587,4.384850553475011,7.781044967046486,-0.33086648262459484,-8.231524629861276,-1.8738226313887543,1.938769993907627,-10.24644676566993,-21.233032011102434,-15.40915481715654,-3.3688310477895733,-3.1853572936986403,-14.965978287182152,-19.016720771234475,-4.309424417589131,4.908174609670326,-11.86404262976488,-19.964925207170204,10.810538981449863,38.59093452972742,23.87705094051227,-4.638138735724042,-14.703853248399863,-19.276626857371042,-33.79494739316509,-47.03815120619531,-62.51768741293327,-88.10538368704067,-77.72462528173648,-45.1489545805617,-88.73192708916099,-144.42669577019447,-98.04610058105881,60.17366868321983,530.871912202567,1126.7726746363687,775.0914359667271,-544.0323306974423,-1076.9955135651244,-366.85558376202346,74.1524143694897,-117.87684801053234,-83.98159582782414,75.80004072681206,-10.966097195860044,-29.72064825744543,62.7554617352457,28.761207032264572,-4.327470936569053,37.67275484584914,20.671783108263224,-15.49185935591757,-4.242147182382178,-9.681225447797669,-37.531409278357806,-44.65371895449861,-43.320460054813864,-46.485848146255655,-40.06869898288383,-28.3998702137492,-30.216596631308278,-31.777364669438896,-3.3099905189125955,41.233852245401046,76.59859377553269,119.27722531560265,172.11738952843993,202.5595071529588,215.4978695677737,233.5307194246807,216.97256153077635,123.35790439319481,-0.2523542654310216,-85.51534706538244,-131.3025800016556,-154.84849240943214,-150.4238733611356,-132.9119935576048,-124.17221399045582,-106.56166537225589,-69.22005563071224,-41.227572057962554,-34.044354492492594,-30.174186187296492,-23.951164671924758,-11.569271426371927,10.106603088304471,19.117715732411988,6.165463587548405,-0.27911799098714773,10.568094600932502,16.04757878165981,7.3262157997508695,-2.6449346766995383,-5.26989377720461,-4.883635232112265,-9.035276728130057,-14.153037706015024,-9.020832790831685,4.419074747636161,8.00738321175524,-4.734562775353048,-13.310849862796534,-7.917974774119887,-7.667914750107187,-12.015238581068497,-3.869498373221793,2.593577443581445,0.32126058518830014,7.943435460605182,8.970912209260042,-13.543620037357364,-23.04172419654017,-8.302713177331869,-4.994329156642378,-9.724200146637225,0.29813955593771446,5.149900147404525,-7.092653099199872,-10.295746912525653,-2.8303267219621233,-5.292372344082647,-3.2691223523989805,11.8988678012987,7.6490162946694245,-8.272634510257298,4.508762277402406,14.602851825000412,-13.117077969404768,-25.221378921113097,-0.0619533414902147,3.922783839855448,-15.415204962983694,-9.582837729238312,7.699256118174979,1.817865422477709,-13.922697111689233,-20.627731990533597,-18.742595033037645,-13.320315098583347,-13.934288860149724,-9.819101542952613,20.78885344208967,46.118826629635194,22.612775801337516,-13.117740233340907,-7.62031987947171,6.971765604917295,-25.279092235923795,-68.03646412570467,-64.34109301316292,-68.10678247028989,-98.64841876172498,-66.36632745664136,-39.0304154015736,-115.81370024887738,-137.22044114910221,-7.330320597436355,314.81063427502596,906.8674859016152,1053.7502036303808,2.774740112023551,-1055.6877159236437,-719.0746712012069,15.020788059560815,-22.346970520452324,-145.9805163133476,50.79158461115258,41.96116184675263,-62.01579444841297,29.587385293382592,58.55967004966353,-5.130245155745982,24.04866707521606,43.80198663236725,0.003119453579397913,-12.82563221031276,-14.689573685099662,-27.861984090358572,-24.99054993651672,-33.15370710301256,-52.98492162239322,-49.079468122263414,-38.96264098908445,-39.30140649956239,-29.60514035102594,-8.511706794654234,16.82047249349341,52.20626645926621,90.65808068675895,130.67159831601523,184.73406695585842,234.43827412043836,249.75325176604755,230.40698385614763,172.00128987018638,67.68423229795796,-43.83247364975189,-114.39667472211298,-143.04163620468057,-149.10889545788706,-135.4040817871577,-107.44737578180275,-91.73363965238325,-95.84519801786925,-85.18732401540917,-47.981807665017875,-22.200908327803262,-20.44637745423924,-14.738334545065797,-1.51280911010668,-1.1103776442891942,-11.569728040244208,-12.55820883560282,-0.9419138965297122,4.751497462646853,0.8023067823413204,4.679811712815526,15.557503059431102,20.02433760837367,18.90156557961062,7.165739840455496,-14.884297050324797,-18.426513957951666,-2.724707885267465,-4.423919035443355,-17.13995477589428,-7.7297135413961175,6.463803271304506,-6.939514719459316,-28.111992643082658,-20.980939525818982,-1.7496969631894377,-7.584004114429359,-17.547387816377068,1.8070681317941695,15.875520492545236,1.2748240558433501,-0.16855139524756169,11.497788734512804,-5.044097076255902,-23.691154515173,-6.702293343608753,11.225410268096281,3.383668403514182,-4.985388721430713,-6.822874310392528,-13.434541505050136,-11.669120857364867,-0.7528152135287396,-4.959367026683136,-14.778192095701776,-4.953027778421535,3.4019729069258204,-11.943451491626783,-24.470283297856405,-16.726867604711295,-10.616219004329615,-13.715333804028369,-4.643496917663853,22.10336581819775,42.03683094992442,34.30517410338307,9.678568241914713,-4.699642951665757,-14.144905029285503,-43.734426959920455,-60.63529880445559,-38.38901830306098,-45.30888590610715,-80.95887673625683,-65.70103494106272,-61.117354328045984,-105.34890701554994,-85.19264044681947,65.34895804943483,497.69302760245984,1074.5556459496763,808.9544400768909,-493.23711593139626,-1167.1646945587022,-517.540941574732,8.017018401979865,-128.26516716927904,-71.75220658190975,121.69516700743704,27.27777411882402,-7.206357021492799,93.54657820797965,42.28148990138922,-6.905526598028121,51.0976900084632,31.693922669350552,-23.043553933907454,-12.76816231531673,-14.211506829364234,-32.958804121871566,-31.821656973479833,-45.269156593181606,-58.381467850102396,-45.9734523867264,-48.841978905840946,-60.29191604491784,-34.310931853426595,5.226038707695437,38.45921663481963,103.26656541351242,177.4256825855015,200.01732429965222,209.71704882911516,258.86161880281986,286.74397168933444,230.46307986316782,118.1896638446735,-0.21170107120799742,-93.08116684054772,-145.6975240947452,-169.1632560528119,-172.1369758478752,-153.02482049212054,-129.49289217195727,-117.31456015328867,-98.65872862840585,-57.854873421206946,-22.62033587313784,-23.407375411380507,-30.970907032077953,-6.118716834996594,20.83156911238988,14.65379880208819,3.01994689892436,4.083459795718392,4.46113811615208,13.779879579720607,23.70137642414523,0.08162461044796387,-26.154504112321046,-9.565162899422987,9.455539200984571,0.23395045415759164,1.0349196865069281,8.585411167527617,-6.568236985752748,-11.218326862878463,4.125321734914527,-6.967858669440838,-25.071723957261796,-5.760643865541008,10.573291473345654,-6.012503743911287,-16.334465443140058,-14.517597609067526,-19.004352646259502,-10.361267445345455,3.73514272076709,-10.64283935388909,-22.978745316249675,3.9766640328629066,27.2916259599033,12.610041928212828,-1.906594381006391,4.014576468202199,2.7458703109169633,-8.10538616353949,-10.473565299990675,-11.506115604515982,-16.43136762348547,-18.84833468457125,-25.62417065916343,-29.026288884246853,-13.88678153457996,-5.008735511937221,-9.941945436332466,8.981634329532286,36.77949699551442,28.275660030481472,9.458197572117822,9.16844218961864,-9.54238566591332,-55.66998116906825,-69.86145003582834,-44.20306182996352,-53.80453755609606,-90.65163529037085,-81.58789645863394,-80.22880578547318,-120.05752957233508,-105.1523024191305,27.14039424240292,449.9391452870901,1074.4740634050243,916.524326579014,-348.6213025350647,-1118.3421774599306,-529.0196305950323,49.240464430355765,-82.14200487493919,-99.87546559271937,81.01128359093649,23.99127911456783,-19.42135982598646,55.3751919522281,7.07083539237826,-26.031481459688514,50.09658392790685,36.833319236648784,-25.396462249558496,-6.657034180215705,3.483317660880612,-30.009137498603792,-38.053771164836675,-36.921612917867016,-49.04091184727817,-51.8282782669266,-53.342538368940374,-53.656587597477895,-31.047111207182986,1.7022744449375473,35.55146729393872,82.35183423747696,124.87394719060919,158.0735689893261,206.17847101557524,246.69410722456766,247.0648904154685,217.3363595773106,138.70996937585426,4.69818487433961,-93.48943601664867,-109.23792854496018,-120.52104725521549,-158.7061571156944,-166.60307370567529,-132.7590394397663,-96.6328728406403,-75.66808172176252,-60.33082256493012,-35.48066041265835,-9.934794655421719,-9.346321631827688,