ECG,39.95930106678474,-310.02882159783525,-717.0868332402296,-739.6255976332885,-441.50063068379586,-328.6881358259131,-326.2793707829258,-196.07352179988396,-102.46999882942042,-94.4725973518191,-37.986349976589295,14.486241599511452,11.151873932430952,22.41683883596791,41.39884726927292,30.255283046432304,21.00577473848834,25.71442584317468,17.513285915742784,-3.223527866778948,-15.905578776557405,-17.009161759926304,-16.03842637561865,-14.418762217352539,-8.446618696788207,0.761788204220085,14.211368659961085,32.00444326822984,44.8551944553071,49.27167715968207,56.849490475017845,73.07703440283221,81.09614583734019,61.66926936828343,21.925785047712697,-14.874774215541592,-38.66868763814048,-51.82553123160614,-57.19365309093537,-57.907944998880254,-53.15443474805684,-41.55051128926196,-31.219475411874036,-27.54773430540703,-22.955829588762807,-12.891552930391928,-4.294165197337783,-3.2234745631666577,-4.859154340887205,-1.4909594761338845,2.318579206316283,0.20183428871125564,0.8762280401863283,6.233876298597664,1.8803944027672834,-8.254588497877297,-7.6796444108326405,-4.02521166809068,-7.4162222292599065,-7.583641757919548,-4.494529905311163,-8.76909540333091,-12.878011048845066,-8.639950153668911,-5.477660207782556,-7.611590071687514,-7.485693052879949,-3.982022615003153,-4.0739206516463895,-9.725646261006403,-12.485492950532283,-7.610858205570665,-6.548058167496578,-17.052384076787682,-24.967195028764394,-14.354902611935774,10.442023403044843,29.530881102993327,28.950205404189465,19.12732366653799,16.378311901008715,12.351573904728031,-2.2796585255791744,-11.027077697111288,-10.139512868495238,-20.976917623298117,-39.00046036961425,-43.93028456749079,-47.25223337830478,-59.019807469340144,-67.59490287012103,-78.80433737078592,-95.16165897855721,-109.56796572027663,-155.76791164190368,-217.57514218602705,-113.5065244813937,300.81959732895564,779.210582576341,788.6246744645506,219.74402720501934,-302.27489732532945,-294.1771151730953,-97.30471090497753,-112.64413781960337,-165.3678451323054,-97.84852250443876,-61.546540153146054,-75.11851186812663,-45.57043096928941,-18.860333709501557,-23.091071325810148,-13.306386052954297,-3.4162170137116696,-7.425459489974179,-2.342220863428903,0.6001700401769767,-8.850943163891811,-11.69013586145643,-9.524350915877879,-12.956966175198792,-14.669239304896264,-10.762312680341244,-3.047029256374852,7.261800432210162,14.621154988237151,23.655048701620885,43.69659711488181,62.044435758884546,67.33317555349066,72.39606192218622,73.7695023587884,47.190852970969694,1.2898247758701356,-33.22244796521024,-52.34320011539558,-62.50872993503022,-60.33766330368888,-52.82853563129344,-48.317286498264075,-39.528611948889974,-26.230502997190968,-17.142553006159496,-8.78396185623714,-0.18180105390342405,-0.6512670528094588,-5.395368481396076,-2.8668799568610766,2.6793717917762283,4.467102199134841,2.2101429452706522,-5.867412377027119,-14.619500677500147,-14.394579798222157,-8.875938613833021,-4.651789395456552,0.03392078584043823,0.5176979841533473,-7.60076569957347,-11.764839258165628,-4.901542895984644,0.7366570820017788,0.5243838939636696,0.8305735178677853,-1.5688803742519966,-7.1590102137809195,-5.165470977394949,1.1174854776603835,-0.9015686195636485,-5.37935548641045,-4.4586886775043055,-6.095044192861737,-10.695467564731192,-9.517808481494864,-6.663578414865635,-8.082411053122993,-10.712598688420451,-13.43903092705932,-8.893618344705448,12.940738028436177,34.336215755149425,31.96041783852941,20.9032920737546,20.837851271064256,16.801485265655668,-0.4504579387478298,-11.24410072125815,-10.651420105371422,-15.72513165784625,-27.29045176622917,-38.85863450025697,-54.99897547632974,-67.57530986559955,-71.2264580909306,-83.88124092093474,-98.14141915916747,-106.3870008301376,-158.0640786642072,-226.4627311134921,-118.61091795388754,282.8879182274381,737.5451392761593,773.3998849041936,272.1098293668218,-232.7737300881684,-274.3463915169485,-116.01597996747654,-125.11820003052938,-162.5987880606653,-93.64773683654931,-60.86438265270291,-74.08061265519555,-41.631046562111166,-12.685911753611627,-13.600847768679674,-0.2566420888815948,4.874756072275634,-10.856986930563934,-9.314394744604547,0.3042637506639547,-7.420404094720492,-16.58955637884084,-17.186476284201234,-19.363085603980444,-23.160448337780643,-22.114158346508212,-15.572477327317253,-4.208738030111142,12.452434351407378,28.429792829729376,35.91994706449066,41.97563616504664,56.3434777887307,69.88125086535327,68.86264449476283,48.92379407171196,11.9479564027543,-25.81271803457918,-44.41938767267061,-46.82385476521014,-44.4629567520726,-38.08028867964668,-32.509872732471045,-31.995861639308863,-26.70357288649251,-15.456710289705892,-9.105820600365405,-4.1835928582263,3.381995308295364,2.8022372989456734,-2.369367220947767,0.9342442272486231,1.8613285486201736,-7.571340689446487,-10.534753526516571,-6.613477184777805,-10.80428486674819,-13.389922728470866,-5.066854995524772,-0.5761404608543117,-1.838786606861639,0.7143766997292706,-0.8889801669704056,-7.33638699303371,-3.991561833046802,3.2362837748711852,1.1934145429271812,-1.2400405689124128,1.2924827462757182,0.09095390625012989,-2.09243843933952,0.1661209698675714,-0.0985494461262677,-3.156031110247276,-3.101749052360816,-4.717917643282297,-8.30197433875087,-4.743783695370909,0.919671021922662,-0.28298658994794224,0.29833826398696317,5.16746814418762,0.8442026882572957,-9.284147834935592,-10.965086379279214,-11.614692354937953,-18.10743956525675,-16.927854885213417,-9.226970905121199,-7.13668673950444,2.372965391502251,21.887903097881527,21.769920531887294,5.754819501549942,6.762493093016828,10.950579982754494,-6.090982096975992,-19.680137282837798,-17.014006996588563,-20.77064629719709,-29.285340945362744,-35.207305849018894,-51.244844641808456,-65.31588762527905,-67.62900513987458,-80.78775467604034,-95.4657877768208,-107.67252209255093,-169.35531694103827,-219.63890756235475,-36.69611529133866,434.0191084165595,830.8282491008653,686.5477246409564,84.02175606483979,-323.51237053112845,-240.83954662743145,-91.45564242987777,-141.07282112871434,-158.06705838827716,-79.9742699472147,-69.11298486323103,-80.24988739418,-36.961119817437734,-15.668446185311257,-20.10881795270638,-1.4454472177329443,3.6597185562145693,-12.209383222229444,-7.558220679386327,0.6697770073056688,-10.90296579673318,-17.070248126352283,-10.48532306413882,-10.770749471339107,-14.154704339456437,-8.887264607556485,-2.5373582969016333,3.607177940381647,18.91120153437754,35.80065052043527,45.2834064048383,57.20556429655329,73.18207647729818,80.01394876246161,73.29653389996739,52.0228280473878,14.495662856970233,-26.47162353675569,-55.75107094172637,-70.33585255402699,-67.72005457122557,-53.163949762029716,-45.66970401559117,-44.84999545679402,-32.84067243392085,-17.38149732713233,-13.311780661320249,-8.135101769112831,1.7906798711778489,0.7185654689749672,-4.470149892455973,-1.4414307754536289,-0.5729074504592759,-2.4699645760855837,0.7498507550364284,-1.5580955904901863,-9.480644238928479,-7.843654563147258,-4.553814476763675,-8.723472328530665,-5.063699445497235,5.0884831113955755,1.9268585495725628,-6.261508435317051,-2.9380955293524043,0.5825325885447761,0.6375552999426684,12.438619012360423,23.15914666535342,10.325572091491424,-9.509683166491586,-18.06900656497321,-23.279405512459732,-21.217296180771466,-8.934033527161233,-7.82594541664022,-15.807153851133698,-9.59331390180046,-0.22251326669698912,-5.009051413829512,-11.139639020531018,-12.155001073974562,-10.080439218334554,6.758414563939446,30.177860951527734,32.98559508567645,22.27657469254911,19.03019245760311,10.752338108755627,-10.15626443541618,-19.58963540447105,-14.357356725465198,-17.90870157375764,-28.933191697735385,-36.99736828830217,-51.2646697622137,-64.88943057610122,-65.5202145418941,-73.06581526662289,-89.295906831598,-98.99492062359639,-142.66251023609976,-215.14159728925605,-134.397160870055,259.7562674724146,752.32385529466,815.9476698733107,280.1735224790189,-276.69822512145186,-314.8132171939725,-115.99030413114068,-115.68892322710434,-168.4663069318367,-93.48904845161191,-51.88377392078337,-81.20823375058191,-59.366075744285325,-23.68415939821028,-27.722040360171526,-18.985636253353267,-0.7874978683946736,-5.617975876318951,-6.913938306405601,-0.17006438229660326,-8.067351806124787,-15.150181577226933,-8.946702383384421,-7.830682513243205,-13.917779879569913,-12.755211610138394,-3.069077406956091,9.27161771087918,19.123552545026314,30.028695885319838,51.265254197725206,65.6591177090815,61.43620407725313,75.22373006584115,98.27517782393494,56.914349648590914,-25.387226474574078,-54.0266222684317,-46.40127493720661,-61.58686191146231,-69.08932284233528,-47.97946520559907,-36.05111126778252,-36.33135314305833,-27.36515850624532,-16.969702618961158,-11.245999430048482,-3.534724009631603,1.9183922388554997,-0.7260316750326634,-7.06999771914689,-7.480552242347569,1.346538746567985,6.41437046465275,-1.66265267129946,-10.251313940135987,-9.04800845872116,-3.751222279327866,1.0598086476446138,4.9496511711369555,8.034077704712148,10.161226325500383,6.620276659335416,0.018962663362419363,-1.2186354930382226,-5.254803294677151,-15.018052051203176,-11.69414487649076,-1.467812923499988,-9.990781964144727,-22.434373661220842,-12.44843228123769,3.502286649653355,3.4204852675835813,-4.1062299661332595,-7.395056805555011,-8.067195703225268,-8.841827186699156,-9.366752794911186,-8.723291084415191,-6.512008256417603,-4.961458898391243,-5.326015332603005,-2.694892351973019,2.72891469885743,-0.5762567312371178,-11.374223355206006,-14.017590989766795,-10.609330936881802,-7.066455757987656,9.733497788211656,29.969808754588442,22.571223510702488,3.236056444290263,4.929056920056571,7.111886859936035,-10.224503871724274,-19.615775393654257,-14.498892207303737,-19.12756120748625,-28.09194841255205,-32.89671965504103,-48.58244286451485,-67.2357400557107,-76.95331113896222,-90.95963919377036,-100.34180926745378,-110.5512778535584,-172.58495174743865,-223.73744747343582,-53.32970275923758,398.67986616324254,805.0066322137866,704.7020266357695,130.81179194725485,-295.723543837503,-243.4433726523896,-97.73434855676825,-139.64179934071439,-158.42743158008685,-82.98321149913052,-68.927328183507,-77.12314644837258,-33.81829679339778,-15.186177761745803,-21.70635741791485,0.18030694879452014,9.152244206713801,-7.987502723074389,-6.623325812329941,-1.6770640870470075,-15.927568776684554,-21.679615363496232,-15.817409122680388,-21.36319601952928,-27.616154441256825,-20.109620616157148,-11.453350657912754,-3.765179800448961,12.574977018981738,28.998498468605874,38.84693074589058,51.10895340861725,64.62883135399308,70.73555081805247,65.78219216200229,40.99512481760412,-0.6071500101402805,-31.817672839504073,-42.83111968498392,-50.502481403201166,-54.74339404540629,-45.36986448641185,-34.247519544461746,-29.98808076703908,-21.90775308011804,-11.904482787803182,-10.406967648334696,-10.291495526127726,-7.170347691115039,-9.491976839934681,-12.464972306420968,-7.880001043989724,-4.834370005346043,-6.397469246352104,-3.1505473291316033,0.819909491449117,-1.9884098278368345,-2.4629062196320124,3.1823951911197526,3.2229095204960956,-3.333073041965225,-6.118109525326593,-6.3371087281065765,-9.388227816855096,-10.502851764122122,-7.372707689218986,-4.839725915303751,-3.5670571973572223,-3.4938004502592417,-6.756444490311058,-9.230799999449333,-6.45953404642409,-1.5960206384712041,2.1587596676093614,3.8634901770576775,3.5369718522485147,3.761240561321369,2.5346745954564947,-2.8394073089463863,-4.473540241456341,-1.393458743642089,-6.179394872723574,-14.584370348537746,-11.507199174873659,-6.002362258352914,-11.881842448986212,-17.93333791373545,-14.372715499500524,-11.938491442545914,-16.384303663735555,-18.52952034361909,-13.100352381848591,-5.630569809552343,-4.248747606456504,-11.591972535008562,-20.68540471425282,-20.86243982387766,-7.287190296501074,15.299391776497611,29.853031768326424,21.11973654263948,3.354371470371783,1.2349982716405314,4.993018114206675,-4.813693178418603,-14.986283307603017,-13.446808680766502,-14.875091244658774,-26.411243823462005,-39.5265002745155,-47.43888585984449,-51.64431381210131,-68.07693366281751,-94.9030789115896,-105.02972148366962,-126.24750077105242,-198.45234237523758,-203.98531448806972,55.891281893967914,537.1459758240005,831.6768134592526,563.2082003410923,-33.30206725929683,-323.13775194280373,-194.96367974473597,-95.08527392065388,-150.88185077598888,-139.32544366213745,-76.6218716956272,-75.33108620557866,-65.9935184313259,-28.628401099915862,-22.37591818398876,-18.45084010423374,-0.01140639846413194,-2.157489645900961,-10.029882317321386,-4.303329958264669,-1.1363926615562665,-1.866143106147419,-4.577470380796466,-12.631092225829148,-14.675643907472821,-10.45581610117566,-9.053293520384877,-1.6624921463702256,11.53907895090281,15.594827457955553,20.038381551308674,39.934266085178756,57.65390186377045,59.82418165114399,63.487829177164166,65.45447763324272,37.53719515254408,-7.9220655590210995,-32.234975829443286,-38.33735776179867,-46.254575855596045,-49.91402268287298,-48.87489235824036,-52.33277199280148,-46.72513835845965,-25.059042749836543,-11.001058763455859,-13.783675328557315,-15.064601400193876,-9.255362301808965,-5.940620415379112,-4.633979105778895,-1.7136955230620163,-2.241229852325482,-6.644406868073901,-6.914517149383052,-2.3234735501491706,0.48404330123709727,-0.4632147132206992,-3.936137882367497,-7.39822694650211,-5.42238922721779,-0.15210333153831535,-0.2945799299552938,-3.262221138271414,-2.6964124215019183,-4.734660214684055,-12.329961317852337,-16.17427826835597,-12.67078219259849,-7.016975821524037,-4.236569536507311,-6.438722479946819,-7.604630450823592,-3.595114721581263,-3.77874490797209,-8.321888556520175,-4.3348468613302185,2.0457417589329303,-1.7206824185679608,-5.519067080054791,-1.9626679274937935,-0.6193292952961986,-2.874207008097887,-3.142314933460357,-2.5087548992590243,-3.0576006303566743,-5.5066503947803245,-7.3786961455903946,-5.188842924532457,-6.629252391515205,-17.305490747593367,-22.36299634119743,-9.108899196041836,12.226534532322523,24.617603375190637,23.997846565505505,20.326407610806037,18.616600942992186,7.082881301239185,-16.2215826439058,-30.18693274275082,-27.747166341547633,-24.987036132913005,-27.399615824869784,-32.45934262123308,-43.50349877745836,-56.79991864021625,-71.23167203627867,-88.51706077854487,-96.19639491813746,-115.227710788739,-185.0418454973593,-207.82520444793323,28.890672685490017,522.0535880066011,856.7458850580538,604.2213916344239,-19.700378527720822,-338.06341881493677,-203.7541029631871,-89.56424861404054,-152.662610352436,-146.0755573939329,-70.58107544336625,-67.07141394063883,-71.32097647844408,-37.29771072798506,-25.249735897403664,-22.383565622644284,-4.229663309353663,1.695846959990094,-2.5792659215210847,-5.076518080025689,-11.330984168651488,-12.58073275886678,-8.136008613803734,-8.835580226232144,-9.88550660137325,-10.956778346862412,-14.87394086247394,-8.001601346529707,9.786905060377451,21.76986287557776,31.336636076166535,46.85224252171804,57.8914692848586,62.4477903469687,70.07529007575481,70.39001545747071,45.75593432340817,4.859953561175237,-27.8562601281515,-42.240637865879116,-47.09809403241029,-51.04623919624145,-49.86720964419709,-40.454087416367926,-31.36919519969441,-26.522032632420586,-18.74336796034745,-6.3835972038489395,1.9579255517668965,-0.224297980961925,-8.679037976343484,-14.036058996377694,-14.809602977696185,-14.82247822963448,-12.608618442782141,-8.042638143579945,-4.5540405145325416,0.6184084707450985,6.018845317194822,1.1692267362132185,-8.867312567196318,-8.473351890993463,-3.490871144814763,-6.975649109669819,-12.094647187730555,-11.42382549126184,-10.099655796460706,-8.97987272208921,-5.682199804697268,-1.744418144495004,2.6641579502563637,2.7359898685405053,-7.072157455262836,-15.801177728605207,-12.723822583649216,-5.93366020459359,-2.7303282907488615,-2.8609459829942736,-6.749313463574678,-7.045233340470416,-0.7528429269883166,-0.9078134813053129,-5.226775987126553,0.27228976958530104,1.8971433292837467,-11.769791140057379,-17.532064775770984,-7.969172927385619,-5.23605285047503,-10.637241027568317,-13.607296015016383,-20.218746290213737,-23.17321028792822,-3.294814212441617,24.50486009214141,29.47582847127663,15.863918229235033,7.886750515184172,7.588678866202185,1.9133819720466079,-7.542040287471954,-12.50402016530165,-17.25302750356288,-23.019979186904067,-26.101975613076092,-36.24341240822136,-52.250028490622896,-59.57938389561599,-70.41361709121215,-89.92233036582087,-100.78929957925993,-134.65038939076624,-201.06176779365123,-147.85515801837406,190.49674191302262,667.6623095411516,814.7805383021022,384.61810573987646,-180.14695852543252,-308.45889702977263,-141.01027380707524,-112.14720388233637,-167.08048473674148,-115.80329320466709,-69.55236285137819,-82.86942201134306,-57.639743751694056,-20.713858568414565,-21.14846307596401,-12.199425778207523,6.304665453354456,3.5114356684211643,-1.6726565135558005,-1.191821139998849,-4.659756838577637,-4.511591711553962,-3.5941114594108328,-11.354675947199484,-19.574552899601546,-19.929953542955175,-13.690137819491303,-3.650015307007529,6.4386346458228,15.419407951009863,26.24055988564018,39.659128761143826,53.73346063857701,67.02109637170219,72.62517837520946,55.560926556634996,15.602319456820162,-21.004200874167523,-38.199081777267224,-46.123757642974354,-47.309727402495994,-39.81635753849527,-37.757893761636865,-39.806340258686255,-28.411488791226052,-12.950633152767626,-7.242024393489915,-0.8343563638980687,4.070682434425841,-3.313848520655206,-8.036907689097333,-2.457142807841162,-2.3381563812008785,-7.316163341678488,-8.179814149156103,-10.9072405297185,-15.721904165023778,-15.027818077562747,-11.143693570297934,-7.184307917596023,-4.137870912301127,-5.182244891838781,-6.110363540144871,-3.861428828400655,-4.82447281570553,-6.38921156278958,-2.4033256427780945,-2.8493328382852017,-13.099891874428906,-18.7246436248176,-11.969642630499362,-3.195622377537717,-1.0159173889267947,-2.232345235833158,-0.9533554724003857,1.7850200615400347,1.2860846052606014,-1.320931515187148,-1.1742007253146216,1.0708518728613026,0.08049228358372318,-4.7901821307239985,-7.994152398468316,-8.23557386437924,-9.571342662820431,-10.911617380588062,-11.64550105903591,-17.290209487402944,-21.58668163078698,-9.718091032429122,11.812705192786105,22.11498160393832,17.805803693012493,11.902526074367312,10.204391726935526,4.200799642385071,-9.716279306503234,-19.445128185528077,-20.60265243407612,-21.866843682917818,-24.039445792426708,-30.93289298604353,-48.72021401185981,-62.93570193848335,-69.55209109408403,-81.76546807942049,-91.61485405152311,-116.35120583319174,-187.9263950828731,-196.6109324632254,60.84836556402962,546.348225218605,836.4579213252357,547.3378450694065,-61.77247507653607,-335.81432799246346,-183.57632688044976,-81.17450491465954,-146.74322761797845,-133.54728702217514,-68.58888244526423,-79.4719952388013,-76.21142488855608,-26.835616591060628,-14.558450978748297,-19.853180684120684,-6.90582775928447,-5.695203158853943,-10.09925037873391,-2.3151989093037635,-0.10884272396210015,-4.969527469399434,-8.910814492202602,-18.440820301448753,-27.336475065360947,-24.145904478492433,-13.557980359521522,-2.658892601169013,8.00495997648023,20.584912068179037,35.671450233790274,49.711508730912506,62.98241071714848,77.58071552581283,84.40169325102644,72.78562882983145,43.315116819587885,1.8742967864302678,-37.94777861172706,-57.65584549630644,-58.59140391866927,-58.58680729845622,-60.052026366655866,-51.79079047899631,-34.29133560935843,-20.511745088612123,-18.321222529453777,-19.622252140719638,-12.31284789780537,-2.5751847412739615,-2.6252246653843976,-5.044625713200968,-2.8903118134751296,-6.680632215571162,-13.176636472798242,-6.879393708053556,1.7402371855262455,-2.6824993435538644,-7.74702684568515,-5.963367830813084,-6.513053674043796,-5.067183119931132,-0.6623243580584308,-7.75341394859627,-17.354513922505383,-11.340121824510767,-2.74238096217651,-1.9023601212029355,1.0287059012372026,1.5687299756578241,-4.050780875396679,-3.8162425399302276,-2.941894473521293,-9.092224682281925,-7.971272241235097,-1.5722993887032573,-8.021218839122662,-20.17923908457933,-24.719984904395286,-23.97838930080577,-13.766157683563998,8.392864666518948,24.69790817362161,23.935510829752786,17.742656328286902,16.193736690734855,14.297091891139372,4.724461364310237,-11.025763673026514,-24.85589651241,-29.609211275507025,-24.29974801389875,-19.672164846884105,-30.47895374461084,-49.27277302593531,-59.32565413764451,-73.06766210735398,-94.40198074501936,-96.58006993486565,-110.23323574072882,-185.53967732077166,-205.6307947524183,47.64813580727227,544.8339120477873,857.121835033943,573.8127568786267,-60.622142374669124,-360.3659643626022,-202.61905889226801,-83.0791211453244,-148.81972501114527,-139.27712799751492,-62.67725056903689,-62.27891228702355,-62.76890129471889,-21.32674002623801,-12.0092739817267,-18.71381104491696,-6.904020253269824,-3.225738181205548,-2.5220699476726125,1.2711800055807068,-14.936348159964501,-28.860043154436834,-14.618403579397082,-4.43438333917546,-14.14107968157489,-16.93483715517269,-7.775994380563126,0.6390330009648912,11.227668816689643,25.86389337957379,39.058478608606805,49.77447179236317,59.19433628026316,70.58696234009139,79.88893825812617,68.77997868368234,34.19189960690777,-3.9098614294805323,-35.473514438999544,-58.776302172268345,-66.25709878455169,-62.05174166495261,-55.329728101012975,-41.864707936188445,-25.662327315882905,-19.83405815334542,-17.023215182292155,-7.2400801447552325,-0.1396783248593767,3.6271533391692348,11.839648656486602,9.578645324000995,-11.302411189371941,-24.096838038254813,-16.04159244604256,-8.116406142064482,-8.09560910927332,-6.064006097135014,-3.7171899933685886,-4.672761621468137,-4.546765317108971,-0.8630226522671869,7.010625296763125,12.267991596443043,5.524278735665083,-0.6283568636713541,5.771706594189618,6.413633409279902,-3.6581176484968996,-3.758260794814211,-2.354849209309309,-16.831951936490736,-25.13614523857595,-14.08233451626656,-6.874669928860463,-9.251202427035683,-7.022056918274183,-3.6044768494962334,-5.3219727239892975,-5.160948009838288,-0.7568327055593613,0.16856414412509402,-6.936642769595327,-14.759023560584437,-13.206931914851927,-6.493711486887081,-5.992842593419905,-11.85405771313681,-16.35535005659601,-12.312077999996935,2.284854147280199,16.662719457342632,18.25466282505497,12.14238975921492,11.49736306766498,14.830869544980235,9.7451349061986,-2.6855041096511663,-9.874385233080133,-15.671417952443964,-29.657278282509065,-41.00452516616262,-44.22663217489814,-52.19544392282633,-66.95717008710878,-81.38034987786834,-88.4085811208898,-91.99266409015661,-133.6134122600409,-208.4154930713939,-153.91526640091303,191.79395407605767,667.2111658807845,798.752404559043,365.0594130059808,-176.29304049793615,-283.48737955923445,-120.39759208737742,-106.51470081820703,-171.38378365104063,-121.93245457051363,-66.5371388369226,-70.45034103899427,-51.39314136856916,-26.676719414910174,-29.938650160758964,-20.61752501916842,-2.0075886832227265,2.983307576521854,5.070734319608512,-0.5186218831222966,-13.02356166138556,-12.88430117533807,-8.922475334780234,-13.324470313428753,-15.334974835995734,-14.93703615255091,-15.9043960404353,-7.853357280758624,9.159748025012046,24.583726271261355,36.4591126932188,44.13107972911318,47.940659497919306,54.09210908968782,58.67338654455987,49.65395849836864,27.137251785776627,-2.5584963842961894,-34.23987227491574,-54.40794668904981,-53.61609583762647,-42.93135539527048,-36.08539780790077,-32.22440865153827,-26.082727965141732,-18.971195908399494,-15.21453145132412,-12.791094232770963,-5.105367640360454,4.73899315961714,6.955403486312743,3.628684916879415,2.7974374977579473,1.2879561968812272,-4.949411511885961,-8.43906879658665,-6.177643970496803,-8.77509660125305,-18.099642853638677,-18.49059438917037,-5.73599967049922,2.7584761398450635,-0.03272942794854394,-1.6266274536901513,1.5056711884644987,1.0314312267542487,-2.1443243188717673,-1.8544357365165682,0.8482514865938606,4.2288160831077475,8.019059347959601,5.607575742535347,-7.851571350889028,-21.715062285989635,-22.277049123788657,-14.080660058309334,-10.358731346991078,-11.645502373455185,-11.801920734797598,-9.850073605721605,-4.963537306224371,1.720567993837376,4.206610595890535,3.532011575194966,3.3370531647741295,-2.685049449956157,-13.550055639194124,-14.885225946960256,-7.107651430874675,-6.048662000228614,-14.216965244222886,-17.199180289991794,-3.1639912959246486,18.30668352840184,23.196729207574585,11.834932625217451,8.146414018599003,9.942103961846367,-2.5142228582792114,-18.528665441814884,-19.217368341016126,-13.898757785153599,-17.312695538276696,-32.677046263692546,-52.900674623231154,-59.89983196807474,-58.44930841842764,-73.13842588117012,-88.72203070643357,-95.60067343615249,-145.31965545219145,-211.93551815213763,-113.1601130161075,265.4276577343713,705.0858287363195,750.6321359994205,271.196729982709,-223.8970814571698,-271.44782248527747,-115.14121948939378,-117.49615747553713,-156.75543399247647,-96.57558846600769,-64.45332090080831,-74.61535748504329,-43.11961928614143,-17.68210324024624,-25.257727711141595,-14.450329787559744,0.18621340128698094,-6.705451591380584,-7.253996776220767,0.3021174689128454,-0.704561017839044,-0.38175983732139684,1.2403119123140076,-6.2490151368335125,-12.553561010381207,-11.998121362884884,-13.028277119505193,-7.6794845133827545,10.537166939061217,21.900724938078508,21.826271580367372,32.70762248204167,53.17544678094187,63.70044317029327,64.93674027642273,54.557295141241674,20.299905044911466,-20.712818656447652,-41.87703400244572,-48.82155088440256,-51.521111637169454,-44.27404922623443,-34.46124715118842,-33.72825289619986,-31.176509651582784,-19.99915379414597,-12.981223882439227,-10.25168573661007,-2.7233216540184344,0.5616375487293936,-4.972175583795726,-5.37914129300054,-0.612645665804898,-0.8504418026274791,-0.4952226442607124,0.6651623471741956,-8.285692810687472,-16.573122822127637,-9.127691690165639,-0.037277365296846554,-1.844138914239215,-4.978117720858924,-6.377942767807973,-9.400266813835891,-8.66723815367215,-3.6421403502010783,1.9614565682525953,6.992782364243805,3.634236780769898,-6.124982027082725,-6.332051081241289,-2.489020078362609,-7.211034556992164,-8.761815514360135,-5.475830420518509,-11.684756454677661,-17.97048152088293,-12.474152056223634,-6.583131411274735,-5.988117852210124,-7.163758853925422,-12.386318328957483,-19.074740272811344,-19.02290243908304,-5.719164001927315,18.354424593018162,31.032451819204155,20.865073522572743,13.420756894362107,19.595897886710006,11.212361804008378,-14.75716464638841,-24.424144204799923,-15.478697884710765,-18.609758588415765,-35.321833446145625,-45.74465584606311,-51.8582127689544,-59.454265850699045,-65.61955589228002,-76.50806067171294,-90.61143773522053,-113.36785778689661,-176.35897650177242,-217.5169693210557,-32.37407773586423,436.39889737182784,819.5246183968848,643.9689400471852,35.083329365340205,-336.26240472885524,-226.98131239411953,-80.98450244296612,-130.88116258632422,-142.93062743299228,-70.72584095439623,-65.85398289361818,-78.21413352284183,-38.05752943649303,-15.703060209599496,-17.641514832710367,-4.908749194968422,-1.234128473978945,-7.399874373598749,-0.9892617154861547,1.8010391209529892,-4.854166674074952,-6.741113147492694,-9.285766171327975,-15.796875809947837,-14.853389373455343,-4.5301498147157915,5.96066699238514,9.19580458465282,9.949038480624512,21.906649045201362,42.83574044338177,56.4098600199807,64.12110239582528,73.73816178167874,68.38731806967037,35.79087154421074,-3.2005227728848835,-30.951358782281197,-49.45462802423243,-54.897448879969005,-48.29700490468872,-45.094088823819554,-43.978866546079146,-32.7984161878387,-18.56807485648605,-10.402837674410897,-5.664763899166989,-3.629868258490651,-1.5346416128772784,1.6629352955288201,-4.16300354168424,-14.952043332854046,-12.505861226577132,-3.7657328876263136,-6.681191225264065,-11.345768633134904,-2.606404254368501,9.007913304178128,7.02023918490103,-5.675120474098842,-13.477174192914667,-9.807613451741599,-3.679551143902364,-4.461926543545662,-10.089775324395887,-11.810499716750657,-5.9789400960250205,-1.3264333083349307,-5.456362170889905,-9.045747230343437,-4.4765854493412185,-0.7516847344616586,-0.1410536179014521,4.087236234280153,4.036719626163439,-5.84166545335998,-10.517169361873446,-6.083250479966704,-6.716735434162279,-10.652390741034731,-8.562949381188695,-9.081946408104127,-17.586883121025213,-22.205654250639544,-15.934176596921088,-1.3482436311836654,16.535875641884587,25.699607051001845,19.925433499424578,12.416035387062056,12.040224153952849,6.728641442685046,-9.808608691216637,-23.627552043728773,-27.497763072515177,-29.790009201171557,-31.29670517134134,-30.116114782042082,-36.38182545167752,-52.60612300406049,-71.78965443484876,-89.5371684072775,-93.91687932613343,-100.40002788395618,-157.81058551962218,-212.54347520708825,-71.36001901421287,348.6403883279785,766.6904974777876,717.2892551190209,172.3317420251413,-276.1906715630182,-249.66556888273138,-95.69545407916999,-125.6836969928815,-151.9417919846928,-80.45311618329025,-63.247166451592946,-80.27755634913655,-46.96037579168899,-22.810485686310525,-23.215232363193415,-5.362881153333813,4.23326384581549,-6.746645823332241,-10.88764384470523,-14.067300467101896,-18.89756311619751,-12.895659759093519,-9.750414079250248,-15.698763817280494,-15.30756109045894,-11.450733560624379,-11.971228947759293,-5.796755558516911,11.197242818530555,27.366015401473128,37.471627231800895,44.991483385568415,52.86838803376705,61.51034504501288,62.658802343058866,44.49474391677366,12.261671420623625,-16.807817179325646,-36.56730206096147,-47.75899921627857,-48.2932360350415,-42.09720772412054,-35.11855122627893,-25.500858556427307,-14.431469784597079,-9.102215579507291,-9.511561742170514,-9.865405853966305,-7.934969585516969,-6.100139428236986,-8.302176206433948,-12.175721027915454,-10.297467240485261,-5.581280718767065,-6.715897057685208,-9.480094180052308,-6.140177752755974,-1.9090696908152474,-3.3194323504597882,-6.357726917890556,-5.716187933375124,-2.465829553477821,0.0875367477905975,0.18115170125247104,-2.2631454594489373,-4.502288649486569,-2.9658977396745874,0.5768017075820362,2.809087312110284,6.991623665335258,12.69811054356602,9.351903393406182,-2.197567645108407,-5.842115874928942,-1.010089938682805,-4.099259919714841,-16.172258568123947,-22.341273101469923,-17.91609638740472,-12.006286217350048,-11.778470501963847,-14.026294580475122,-12.968713785694533,-10.967238701084014,-11.216701505811695,-9.7437305801331,-7.050705867198795,-8.04619521018227,-7.968805908009831,-3.878641584191392,-5.169723315585307,-11.67417516137985,-12.499730502876995,-11.157679151516811,-10.61100445456296,4.688637494472792,28.127765474375007,25.59522206165623,4.336679232363478,4.423721594769115,15.583534080027924,3.8950521365968296,-13.442038842790756,-15.117216358764445,-20.2003430984175,-30.258466594959447,-29.472158202139894,-33.02133872861601,-48.1206789926699,-58.571621188091605,-70.23982874782004,-85.93028898700435,-104.1950741657055,-161.32487590634904,-223.08627804217863,-107.47805800813964,289.5133083404863,725.7032351717719,744.2540217404849,246.2621629220654,-239.5614723174355,-267.6866161795056,-105.78348756478252,-117.0750220044202,-163.89098532874237,-100.97980002849714,-63.19529426449988,-74.03160319557719,-45.004543963805034,-16.68187125181183,-23.29980489902797,-17.396224786882648,-0.7466203520397414,1.5154888720108435,1.1631609185998855,1.9370878364321094,-1.5765802305970382,-3.688406248829626,-4.9293887428985315,-6.952615027707792,-3.5046229811096783,1.432588729554909,-3.090582488477099,-9.375191535185536,-1.9737102594811278,12.893136721020188,24.34154413291391,38.12752842563239,50.98147594823127,50.45867777597896,45.14941129960831,40.249807830761696,18.902993114871435,-12.903239354097748,-29.884074749194323,-37.72042238837324,-49.85616662627724,-52.96703558786956,-41.12089754850542,-27.70736543563564,-17.351829639458852,-10.432756278766593,-9.444237030683542,-6.763261777840368,0.6810842049206531,1.796861840140993,-3.9102954460005446,-5.709126436800684,-5.535909940646402,-9.37803648170827,-10.471388102867968,-5.110401588037449,-1.4572982566571007,-0.49859927494093625,3.6825257945752687,5.807909483740767,0.5811872915506502,-2.8615776130356725,0.23164361818097579,2.2211345423956415,0.37513167370534717,-3.9474101871269713,-11.286856633451022,-14.977547086246549,-10.47981077156033,-7.54473861341207,-9.561226820949928,-7.468570186749973,-4.210979483420953,-7.749638388174214,-9.446029863184021,-3.50722408082542,-1.3017569460175942,-6.607805135772576,-9.63179929744932,-7.953444885666361,-6.292053980895989,-5.092509117740743,-3.256736309895583,-0.9739918350650676,0.3778353744247891,-2.5692813938873975,-7.532658492505066,-6.6661381792530765,-2.613341454421091,-2.228431290311054,2.415782522974262,12.27534498573042,5.567693911947677,-17.9298142930219,-25.84157433223251,-12.916329596893892,-7.940333106215043,-17.897734587250092,-23.183259972407477,-12.038817124937026,10.002953970948765,24.829509848471595,21.27717984502331,15.039069207252528,18.455950016697557,12.353002079353075,-11.161750351004688,-25.208458485039554,-20.153420411922923,-16.68560345786893,-22.67551348670261,-35.152694981674315,-52.99841141362625,-64.46457106638549,-68.68557945127212,-77.47379713331719,-89.45294654299624,-127.15736339830481,-202.30453862772134,-176.35303866772392,139.17932914983106,628.6428068175331,819.8827868430477,429.85906634710693,-147.31949345466788,-323.00880145312436,-157.8698195123502,-94.23447419475397,-150.62429068367064,-115.34124584450018,-55.128275123939204,-65.35265028086286,-62.89007586567223,-30.43745471793138,-19.121336177905068,-9.156482420532114,6.70270696852821,0.8161434076464253,-12.624012992306067,-12.369997196587878,-7.159890206460963,-6.27216977544067,-9.973730194160346,-14.74835365021949,-16.71577543200405,-15.61826588727685,-9.518973661810792,2.1900850025790213,13.986351896896423,23.70139197758705,33.73809059981415,44.15503821251136,54.45121755295486,64.05977578717611,69.22286491425913,64.30692617309322,45.676669064613456,14.612831608270024,-23.340761182869947,-56.71336891848119,-68.43721988926995,-57.21546733520732,-47.12782010604232,-49.90662660126343,-47.730975887305426,-33.548890580121785,-21.84652143536521,-15.647032831715084,-9.0102653448054,-5.793934327581674,-6.7251244217390855,-5.5551884451161175,-3.5805219177923835,-3.332936991313428,0.18028041367508685,7.422756188545388,9.753068734668954,4.542156580110862,0.9062831617714817,1.7886845364952073,-1.9434261708715361,-8.649706197436299,-7.16207936495894,-3.506504376808401,-7.207188595248944,-9.126371828417131,-4.6520816849044735,-2.5997958219117088,-4.283840321426096,-7.310198035441335,-11.79570414396681,-13.89319098173235,-14.583430689651264,-15.941934001191973,-10.535821987226281,-2.0717544148607523,-4.384755920609807,-10.21238623376253,-6.42202424239089,-0.6484131415202175,0.5306932560430049,1.7709813192308985,0.5177345663694517,-5.06271410546952,-5.913036374906813,-1.3857479512896251,-1.1123002210672492,-3.6220116621591556,-3.174022084818551,-5.074268936309381,-8.674549756456784,-5.1939133268477935,-1.884476614402077,-6.895414952579028,-9.17107534612234,-4.8436598660678065,2.227665589307773,18.44256446327728,32.2044272718112,24.741264435889203,15.524382292527115,16.95309217936103,4.036212026640463,-17.996087411926357,-22.988727449686074,-24.317697586052812,-33.53997425987171,-40.71988296004371,-54.07866142993947,-72.2580752875695,-80.76258322254466,-90.30136904139732,-100.59574224581183,-113.28001517189112,-168.36422484305334,-206.63704087812437,-24.857873540547416,426.4126582940173,800.8460386769422,652.4703400811622,71.6028566954885,-312.0184806016229,-230.51292216474513,-93.53030723668573,-140.6064660568252,-149.8383211567699,-72.0384007723397,-59.09301592936254,-67.4804690322243,-32.55941199583112,-21.186467665980345,-27.25620026294189,-6.797038348653691,3.4674428547604403,-8.107507760883312,-9.874639622368086,-6.730870882444314,-9.690268121751679,-9.667302503325118,-6.4581666014336125,-6.796573899974085,-11.353947853093754,-13.56942921432801,-5.645531732266791,10.079409534377707,27.515476920260134,43.585893234821405,50.21110175937041,44.615807643094186,40.52487987874715,47.44862781509329,54.816262843686474,45.28923155496546,14.033077293667226,-23.873911697413988,-47.73856123376089,-53.399726217778564,-50.192466956995226,-43.43777906588002,-33.72165054454939,-24.025002243445822,-17.40286815310968,-11.52643011348302,-2.5419366530047824,4.0000671129303775,-0.9715367652634086,-10.761458607257971,-11.782450595951612,-7.19445691150019,-8.192339822229801,-15.254147828640136,-19.61157073775629,-13.052708526018515,-3.456419976869917,-8.812674527693623,-20.39056422247988,-14.547173313920517,-1.414327241492332,-1.5255581532346838,-5.552040723750466,-5.001223217082467,-6.578492591915612,-6.342981903582965,-2.50475703156253,-4.281321602464644,-6.816744706897248,-2.8802179320781516,-2.1763280796634703,-6.853280216305887,-6.759758786119626,-3.8165814547658137,-4.71131288799889,-4.87689906774065,-0.7876710462397121,1.5417306065371328,-1.0747932220509018,-3.4620234544059834,-3.3805965054246236,-4.664801481958367,-7.050921000437803,-8.651981133144321,-11.50351136561214,-12.190984671051725,-7.183655891929066,-5.122844636532527,-10.27727786319371,-15.21125841125638,-16.286176240075612,-8.273392244322315,12.541634749098986,27.614091476093936,23.17917786093669,17.238035244139656,18.551664327063264,9.99293005335437,-7.737145352914805,-16.332338390127447,-17.58382474604887,-22.009941300644094,-27.190367017241318,-34.304718231327556,-46.82873861811149,-56.522577830749604,-64.89867481929883,-79.00052483875821,-90.58894040890004,-118.569982402298,-184.51217069570123,-180.50264473953382,76.29812481443452,541.294448474672,810.0260036210759,524.5336569875935,-55.39219161362496,-310.06558193953776,-169.92212678072303,-87.67470841927955,-159.99129212872595,-146.14945620129927,-76.38771544322455,-77.2409722480767,-69.64891863962235,-27.02709693666155,-20.782817509308323,-23.51889428981592,-6.519827167120825,-4.714118621599029,-7.469674313435249,1.619235976297917,0.2354625234714085,-5.06334571052367,-2.140026426491442,-7.62683872223867,-14.522947870029913,-7.362189167616399,-4.0366020276723305,-7.949707190393861,3.0050104692547963,21.60423230355374,29.182841780892534,35.34698606921717,46.64794019615323,53.799015687478196,57.18345355504482,54.95336635253559,35.826395447641445,3.5310924301914657,-26.81384446390717,-44.89335213162794,-46.502377650637456,-40.827176671769934,-40.86126001928757,-41.96105690055744,-35.729399214063456,-26.873462788301794,-19.68297277146977,-12.078029113541222,-5.2854759358217684,-4.679337529384803,-11.140559958405014,-16.314399950120738,-13.448588676812838,-6.882843846331644,-2.614407591962685,-2.9778317174844897,-7.3459541472908665,-7.644988332060217,-1.0093842820413936,1.845365552181459,-0.6747154150921144,0.22488092537847493,1.7759992320540086,-0.7239894166312997,-2.486282625292688,-1.4406812298301777,0.5444363796280793,0.13731810188668447,-6.049991994860267,-10.455688985912282,-5.50682936107256,1.127450803458304,3.245528547240747,0.16153268927293496,-11.452501064939812,-21.998877856913527,-18.426331468664248,-10.999083918518256,-10.781854988817019,-9.893962710545331,-5.791461815999051,-5.412429389154331,-7.610890184877519,-6.497805130908942,-1.5748786169171982,0.4981388800090869,-4.5831461887827665,-8.212468465415895,-4.825174029908906,-3.894640186745683,-7.084023672812149,-4.216948190986913,2.30546418181895,2.1725303990144944,-3.777612994476991,-10.118915223376007,-15.464195894406803,-15.249931827451494,-1.9086876665258812,17.849932266398717,22.838900639792783,11.418425132834752,5.73518634293651,6.226991056298649,-4.935001460815796,-17.000057279445905,-14.42695653518421,-13.633451381867566,-24.14128001055491,-34.924185465263434,-45.79038278928694,-55.85297292522556,-63.194040280790816,-78.60932799236437,-92.78715753130223,-105.0997970827402,-160.11289966391956,-213.42611653497613,-72.41391819999355,345.8538260261232,758.7776189861489,711.5111458424816,178.08511607003615,-269.03274273041785,-252.51386224829082,-98.66074832938381,-121.81327693636167,-152.1882762870058,-87.66180536369248,-67.06834140062873,-78.36569587946882,-42.60079829102569,-15.882506114993305,-18.7095167370777,-9.476952899121702,-2.0070311796170603,-3.315052285373964,6.666493398238851,13.184632128480626,2.1990882839803874,-14.3142448063233,-27.306744844396146,-30.147458249351352,-22.257047329965342,-14.471887083385138,-10.644010905413868,-7.53414690990647,-2.269783277362145,10.758713234218636,30.334947939955466,46.584061307916556,56.76655959614503,64.97172428032277,67.58145409009903,53.34922519180454,23.548126523338606,-3.038556392199042,-20.758011101548394,-41.335592327103434,-57.452292461764024,-54.42922010148047,-45.100140821455184,-41.33039357826256,-34.00405365803808,-24.664484338944938,-21.053101686578355,-16.46719961938721,-10.123621539469603,-8.532563643049578,-7.5215417094675985,-5.685350875044971,-7.089778758693427,-7.475963627980999,-5.769947902163949,-6.073019743848512,-5.091537043690959,-2.6492318581950975,-2.16040335991379,0.5488309897821431,2.173335610745097,-4.93045688450054,-9.602153748993192,-4.2863806692215505,-2.4454790420462196,-5.737966783086726,-3.847609056669624,-2.9755507954576093,-7.910653280193667,-8.246089200995097,-3.9605837134266224,-2.9287830030939546,-1.783360690014291,-0.3872592202696463,-6.176600322828607,-13.055702621606638,-10.37846262021037,-4.061859445366521,-1.5508374350629612,-0.43257771869805595,-2.7242192255307582,-8.489246102135795,-8.105446604974738,-4.5118129909468045,-8.092873852297087,-10.849864238365786,-4.549861941418298,4.438025731189708,12.28448428280667,13.864451955991326,7.379701865571906,9.03517448310286,15.637516184782712,1.07393753571532,-20.947206071838607,-21.393248986147995,-17.469004237129205,-25.294432628832954,-32.05909063561391,-41.644080981979286,-58.38592855170006,-70.66188492386839,-81.68641322439976,-89.2654859750698,-98.94475367118116,-156.6156692270959,-214.96705333268625,-63.78526224728698,384.74430382480784,802.5568206272662,700.1494320397796,109.27664063056474,-326.87621843544986,-264.4936717508253,-95.6186183947749,-123.55852975047374,-147.6718946538783,-77.16861585966772,-58.90585420426051,-71.90146217422168,-39.53877527834632,-18.252857149125386,-21.107395760749352,-8.986314489392097,-1.2768180216271503,-7.01343845902613,-7.436112179079592,-7.811074905163013,-9.963714040537042,-8.822053727396302,-9.492405767386494,-8.869344083084487,-7.7612957570041,-13.368051763098883,-12.88964841820074,2.006964614120944,17.802483122947834,31.69209267837347,46.88194475330969,55.958230993917056,62.94068783472938,74.26464801726999,74.16039802797549,50.56390420795378,13.262099349971237,-23.86561207213892,-48.55637225993337,-57.149383405750314,-60.68002771264267,-59.40049162700966,-41.67273448612768,-21.413086315648272,-22.54087164319081,-31.905417350869925,-25.26984822492012,-11.800701757019297,-5.659846479924713,-0.6220369341812475,2.365492822212927,-3.521785874296935,-9.22887488781528,-10.195013491647206,-12.830107449127487,-12.356456861747398,-6.814391958059325,-6.023122310860812,-6.292582089877342,0.640402396412064,7.625355147075545,8.643308716583313,3.8245072314142377,-5.2051010506017406,-8.688085413520763,-6.245820912245868,-9.938332238470426,-12.436493886126827,-3.7952160256828993,-0.8118206604539893,-9.010390088147794,-9.432865258443032,-2.579510408685474,-2.034694723181449,-3.583739593933906,-3.63015384366512,-6.441615279858944,-5.574686322652365,0.43340373141693256,-2.4893780152073486,-13.987215483817975,-18.97803026515317,-18.20180697286405,-15.531797393541673,0.15348481939440362,22.425071688421273,24.765135181598296,12.314094246429669,11.901895676838315,15.667570366260472,4.057230547670946,-8.981695363026244,-10.595092943741399,-13.55792146791412,-21.552147991751436,-30.643476193450958,-46.68769591367456,-61.32982272642644,-65.82409092423559,-75.67402716283883,-86.87650342863026,-93.27601228276293,-142.61202877057752,-220.56631338711207,-147.4560605580059,221.56124784064343,697.1933612317262,804.1287655979199,345.6892572002702,-195.04273862956074,-290.38503904056785,-133.53023343528088,-126.22065992467257,-173.72861927586737,-109.67578139836579,-63.83325680266546,-79.1508431080778,-58.00853975883186,-26.567438344245115,-24.421285263225794,-12.631775343799342,1.789923992488852,-3.0308495889220524,-6.469880118584161,-4.088005052375442,-3.998090253661548,-4.03794180150655,-9.816318904492256,-19.18401070875117,-20.486351404056137,-16.011322367339737,-9.652163541925642,2.041667840000478,16.496069331069776,26.631826580106214,31.1238897942168,38.01068828597626,52.29953222762284,62.895802131238675,61.146066173308526,50.12675218788456,24.075001926968746,-16.064453960156605,-43.21082971762439,-47.3200804678805,-49.042185716924465,-50.144942487131736,-39.41413471020253,-29.726504758148298,-28.131850656375146,-20.353911830958538,-10.717232771695485,-10.93161185266112,-9.083353378106175,-3.1891580951536955,-7.714551180630046,-11.30373143969186,-1.0894360395154017,1.9217605688946762,-9.931662419881452,-13.924852958110696,-8.042275904890579,-6.289229532508202,-3.0403289364876738,5.675530505835088,8.300785539980172,2.6525437701083963,-3.002062159062959,-4.149956656772375,-2.311936233664639,-4.2930428272636245,-8.658900652071843,-4.835515045858337,0.8877016249881571,-2.8575069663857313,-5.317314435760943,-3.7072357273715593,-13.079576222286798,-23.21081029624505,-16.498682004312812,-9.560584379188104,-13.628920805814195,-11.916914097062726,-5.295109962037635,-7.618100996840145,-9.411396414929591,-3.9300749402125774,-4.005669250603418,-8.074688644965372,-5.428974390094595,-5.520702734925589,-15.005231715477528,-20.076587717595785,-14.369845159264784,-2.011617563260433,15.102534361559137,23.304591650854597,14.453389875114969,10.649047182017018,16.146553542405453,2.834072315865768,-20.690346578631996,-22.819257616190853,-16.929926163653246,-21.803892332959727,-26.594651358927102,-36.35204898539229,-57.09251525427214,-70.34738274567181,-76.78533962411584,-85.86208507510783,-98.18636120815982,-144.7501469948491,-208.54622942346668,-123.34563049829919,248.32648030119276,704.0652239761151,765.9217494160421,284.8503968329374,-219.9236444298645,-270.60266409765956,-110.35044788262934,-112.89917730449608,-160.3645014093314,-103.69223310159322,-65.83164231976488,-76.19228784060412,-53.293337197565826,-27.275423154064015,-24.964814120381803,-11.36387184164639,0.44080011379140593,-6.466340852530145,-9.180658709861792,-5.241262521448489,-5.016705687776861,-4.493103782308232,-3.484810991126915,-4.777881805401437,-7.997965310587306,-10.06915344158922,-3.9008071393597112,4.99004002185549,5.703733121561504,9.874226143962257,26.661883457339687,39.79838351392551,44.7377239042235,54.22360518630808,61.93560314864888,51.65969192776092,22.826014947861847,-13.37578243460743,-39.650372067276905,-47.36945160543445,-48.92557964996638,-51.27453540787182,-45.27292367202687,-32.802677768486774,-23.487136646301025,-17.22046937807191,-13.605442301377758,-10.98518427713908,-3.9321239038691225,1.0237225311575173,-3.421238622883724,-8.49756772953397,-9.249245672233155,-10.348207903550495,-9.415500007153955,-4.57852627212209,-1.724926641911841,-2.69227891806557,-4.266679845644747,-3.4731669337650786,0.959085308435446,5.803453935890733,8.007086430821428,7.9516863686633386,4.804470724993953,-0.2202569178262479,-3.208402820011976,-4.56740283735636,-5.604817473066515,-6.2843212066563385,-8.149293366913,-9.629209077335112,-10.050277544670797,-13.021431791672136,-13.698258845415406,-7.998689062988433,-7.552206251483383,-13.889968256479198,-11.68055192698477,-3.701273550044167,-3.5854517005455513,-6.040514095993876,-5.64160667638841,-8.96146558505215,-11.066831083514401,-4.1980643640361155,0.7716423644314112,-2.4150238819079206,-2.462844289338344,0.28533798499826446,-4.373787007520512,-7.222966906030377,0.20552871388569116,0.40215439264016517,-13.330532031590966,-20.661751129825532,-18.458796113575627,-21.427524401419554,-21.498226336076492,-4.42379432070843,17.712922180789818,26.801603941538076,21.325902179896488,11.081676685198211,5.351867004574469,0.5329764646988941,-10.39020686584206,-19.87596078749948,-22.564113705883443,-25.555788765272215,-30.990996294635824,-40.38047971897249,-56.18046875121482,-69.78369478767442,-78.93426645913,-88.44560323683254,-100.12893698851104,-140.6579887293668,-206.25284856601934,-150.15478396381505,192.1817255028744,670.8504512414978,804.9139330792439,363.6795756532989,-190.60676147638594,-305.87790640488447,-134.84975545595114,-101.64673752522509,-157.79167419549378,-114.57827292630758,-66.60899076783414,-73.54233826588487,-50.49877100406549,-14.81492147308315,-10.61348496399918,-4.192918631345485,0.4772161144411502,-14.022762201160013,-16.57459926850037,-4.843683055924892,-3.0783242610791532,-8.118794680005358,-16.27220386136507,-24.890931471657343,-21.06236637777883,-13.229433480321614,-12.558791913403905,-4.821454023534819,10.0462606858557,16.116948012974433,22.515425138308483,40.308521624517546,56.97823608720584,66.46275586337667,71.31327842003354,62.834632249295495,37.900692071626096,6.866230893683062,-22.980505373024975,-47.058444917553715,-61.26530734506785,-66.06741539736069,-59.85237447115091,-43.278925606356,-28.893323759254134,-23.76283905260734,-18.487213297730847,-10.00924559281647,-8.815631336440887,-14.446424330463813,-13.377511610690366,-4.507902095699251,-0.9523088275198219,-7.658568566974051,-13.846355615577107,-8.514222596624958,0.5026203799428242,-2.6713035534214775,-10.053411794351899,-4.769692218308833,1.9420396559047113,-1.4859166500610854,-0.3728449156023501,6.101124678541414,1.9136349500028604,-5.619901281176798,-6.24360500712284,-9.252238342246564,-12.815343570109052,-9.312288119435552,-9.604709496072815,-15.326787584959067,-12.17678653227592,-4.501010798492008,-4.582149677723436,-6.515987383907067,-4.876986433904161,-4.533036453406792,-4.785727923040806,-3.085816141687255,-2.1935046509305547,-3.745164340237997,-9.806880405458436,-20.174732630300678,-23.258316497307572,-9.600048425603557,11.720105749001617,23.368834051906703,18.587612916046808,8.609718592782073,6.597059475140922,5.092225160773628,-5.418827561735295,-14.012160652792257,-16.905113403093104,-23.352767320680222,-28.149467568592133,-30.912313707717153,-42.7261256498426,-54.91243677868039,-65.07865494483553,-84.47365399969509,-96.8627768884586,-113.06772524600598,-178.63465888180676,-203.9262323764376,30.419142058640233,525.925747429364,850.0737919132173,565.2591673037548,-73.89890061801134,-361.19895998633217,-194.8649952406656,-88.4906530026108,-161.96134431734367,-139.35749275311633,-55.48377395316505,-63.69615228324054,-67.78602674007303,-23.227893428090585,-17.136889075476205,-23.805229753079264,-1.4641247509756,2.6913360120633527,-10.064722911030081,-4.952799267050736,-2.8094259860539967,-13.443275102819026,-13.326220795640522,-7.349533814122717,-9.592705592040398,-10.670710490206462,-8.056993912913136,-7.316981397604797,1.938412499507776,22.756474028499632,38.996862671870815,49.03644859572732,62.48350187436832,72.70716916766234,73.19770806761414,65.8399102952969,42.82895912711068,4.83874500597347,-28.095547513571233,-49.89444236663488,-65.46871411811202,-66.15327202727272,-53.047757069027085,-42.629418799655255,-33.98072103152897,-20.94151388670231,-13.41204904353135,-12.275869140647835,-7.589496197565911,-3.4375157744601026,-4.486005878560185,-3.666722580727013,-1.536088316650357,-4.726527116978055,-9.673547476739289,-9.41608947440393,-2.9475434494358623,4.474282810417124,4.028625377721113,-2.4704361333875227,-1.7612059697035463,6.575977998059797,11.484999789382456,12.877868630936783,11.502269788025302,0.17532200062547432,-13.920403329865565,-15.92858114706199,-11.173577041667624,-9.979154576461472,-8.234341356634106,-5.70054195168267,-10.26922583714218,-18.123209487672966,-19.026236737755724,-14.700746287387933,-10.938638237503193,-6.363040025829111,-3.9688587678647202,-11.406034274040934,-22.054323907096737,-22.056345511296062,-9.552737647362932,10.84020673763203,28.454687922027254,26.51511148043467,11.600629718975341,8.76730899676032,12.380582464842236,0.42012746387070266,-14.765057927655384,-15.553681711062758,-17.6299626396677,-30.395193638644812,-40.35140818516905,-46.275620676049485,-54.22587313675026,-66.38537114048124,-86.93320216530711,-100.75244581794286,-107.8566929096653,-159.32933938434746,-218.16042203816374,-81.38894035745489,351.5726859350507,784.57060780781,734.3356639699296,181.25931420363892,-275.5432915224906,-256.6468084952159,-103.8276056336405,-133.49584052872686,-164.096462560512,-90.69087043922981,-65.06551248274639,-79.92629244908821,-44.82659141180137,-15.303752304522032,-20.627737594640728,-12.855901805751492,-1.8145545160131302,-5.720478197679068,-4.304473601320158,-0.5017743132877577,-3.6535396732124017,-4.23794557741461,-6.346210366685272,-12.819713038154738,-8.309906793535612,2.8919081763665817,0.8310975154889375,-6.855960594930782,0.2020819050154996,18.834354059261948,35.3924369434693,46.87257368773445,54.75055934485249,58.466743365180925,55.2468451462829,38.741752566782665,7.059901776664956,-25.836862484433183,-42.110951427631605,-45.35618993199604,-50.88570106208717,-54.32703408002121,-43.36785444455663,-25.7350656489079,-13.499105184607792,-6.742236543911755,-4.280702557420582,-2.06859335539945,3.1728138984806336,0.34471079758918677,-12.87004095554467,-17.65342986494139,-12.240418098425728,-12.940626268237223,-16.157593982104558,-12.047416536504937,-7.616980906361974,-4.680353084892639,1.0313431770843184,1.1737723109772205,-4.177620422744118,0.2338539251588525,9.395334799371637,6.0702933961051455,-1.6654486060361542,-1.9087338062895363,-4.265741620922819,-8.987678240354157,-5.52717677046285,-4.777371453934524,-13.421299002138653,-13.269158994538476,-5.364230003304382,-7.472795625262652,-10.943447727101207,-6.789301641654273,-6.564463864523493,-7.86311354947995,-5.719187767965652,-12.869146812397105,-23.868435577567976,-19.615781026927998,-3.9887809126213014,13.628543797722736,27.079808590599818,22.870990143090097,10.06758274656714,11.203865208287997,11.893849005895976,-4.232074896376588,-13.034368583170817,-7.881285937413832,-14.265493441357986,-26.30864732748092,-29.718487235516868,-43.40855868047954,-64.47761107843675,-71.9081567112701,-83.1557603932236,-103.00705742002378,-116.65778115342391,-160.13633145592368,-212.42881945269616,-88.72471951797931,323.7530941661131,758.7864473784787,736.9810145427241,205.18317784139697,-258.66799317441576,-253.5708665723627,-98.90760690351009,-122.27762619012138,-157.29491916538092,-88.41479284551008,-55.852493035452476,-68.07897077809267,-48.632878863497865,-34.373260809474885,-37.47606302864416,-21.899353977015615,-7.435134380266566,-8.309898629882685,-4.349631311364661,0.7714468163401342,-3.279829462357977,-10.270504960718815,-15.665387688267886,-17.658246256412212,-14.714484386747689,-8.449505620867829,-3.0649793297910612,-3.243046006442304,-2.1905686284658796,12.955052576582787,35.69043757410223,50.07755155772706,58.15683450570282,66.31009772701584,64.3928397871512,43.05365545709276,11.000112746169187,-19.10760463284089,-41.56536101014477,-51.5716636587455,-50.665565814800914,-49.32154699854667,-47.506039839834756,-36.918785964019435,-24.12624106505408,-18.83146178285422,-15.942830278749033,-11.321311640204774,-7.012788513985987,-2.2558124736856264,0.14164596872667445,-0.855001622313436,2.1798277834722217,6.253219523079183,2.5023801064031534,-1.9969112481687592,-2.6002776678730317,-7.795445301881365,-13.47477117292291,-10.040226378822545,-6.238343551931486,-9.393407434138226,-9.57694828600206,-2.2323399659985306,2.428006528319333,-2.5046219595964256,-10.515672480861603,-11.029958018435018,-4.17302181321393,0.44031960381942525,0.7986514079550613,3.408279236229726,6.711279144025461,3.8547336750419348,-2.0556002592440237,-4.369813904189856,-5.280310422040973,-10.423653638481435,-20.861477125704887,-29.862121071439734,-24.61388911590299,-3.459123878480039,15.352809652271652,18.158516965659782,13.70185256901194,13.06500313772959,10.176899031621645,-3.036595704307434,-16.97043948424841,-20.870655296796848,-22.699122583286687,-29.953961916052464,-39.00683603203112,-49.371657869176275,-57.5083591655297,-62.902278735283375,-77.6226475929429,-91.71923652034073,-100.55517819284563,-153.10368312897347,-222.3806025222832,-109.80899116510116,311.1134663462383,776.4489735736678,774.7118016230047,214.20526481682072,-299.59493211854794,-297.8165981943795,-105.26767670951773,-112.68220354206068,-159.30755003476077,-95.20923432096421,-61.84435417170684,-73.04772529367168,-40.67737254605089,-12.304874222890742,-15.764226901112838,-6.7360656596788235,1.4531884947202762,-7.333226011054229,-10.193610923884767,-10.086507919929659,-14.749344118961893,-14.443025597834415,-14.80579992633449,-20.008009844782435,-18.271493058860063,-10.673079575535743,-4.639956471934802,6.3749196658245335,22.8276479610719,33.518777036583145,42.01141910212517,57.766892950827895,71.83625251085753,76.96598435009993,76.15183195970751,57.04719935291475,13.21410688980127,-27.469442450508915,-46.91883552946172,-58.119063266885405,-61.61025658419666,-50.56274170972584,-42.217392194167715,-44.94462321821982,-40.43754659022452,-25.849483421318656,-16.081191126881464,-9.937177564746033,-1.7825989313534158,-0.08845819655825693,-6.495563802326931,-8.894574492381942,-4.783481994118226,-2.9563460288187944,-4.45496698259946,-4.761313720233911,-6.147103313263848,-9.578777734746865,-7.4498129462082865,1.798585254328822,7.6536616482620055,4.225008798466862,-1.7891624473774517,-2.7561806245331484,-0.3391875248847196,-0.2843471951229173,-0.45349043200183203,2.355857404069299,-1.5785452710693235,-14.704400048412685,-17.01342959236018,-4.2016079413532115,0.6462035309652077,-7.200978751751464,-14.065299954083327,-18.635442405248206,-13.522234857606957,10.038996051379772,26.527737191492676,18.499553621655707,13.796660794912487,20.000020143985097,7.45483232006948,-17.22964268311219,-20.536240917127618,-10.53827144572209,-13.356821955253466,-24.77698401265752,-35.21956214774475,-46.49581460966161,-54.62765607893633,-64.21773582672105,-83.42551763383965,-98.30324880977736,-122.47462963707295,-193.62347183211398,-225.9764410265763,-13.780148206686334,469.7875764967762,847.6665700905384,656.9932809413929,31.81008261097503,-341.3401648568989,-224.30062462283053,-84.66342878364253,-144.43098706512131,-149.22173874834138,-70.48704093724615,-72.25928173197204,-86.18182018951093,-41.279423653382864,-20.904024421177812,-22.272289310337918,-1.7404930969938732,-1.8401727504296268,-22.12867623382617,-16.84149498495947,-4.906423156039779,-9.555827914285608,-11.247071630763049,-8.912044529424406,-15.142723058686176,-19.136090806743667,-11.388128049557082,0.5306368291059083,12.329078320873469,25.343269071048116,36.32730919824713,43.41841771024283,52.05391447510157,65.3427474709562,74.42341600075581,64.68729339114755,32.5355253265713,-8.132114473386928,-40.00685455314612,-56.82297515109816,-59.35313174156493,-50.27049624608671,-39.57335385936585,-36.63623724867455,-34.6044542800993,-24.57371765909278,-13.880210412987681,-8.690110341469552,-4.3335273313296145,-2.5915245705014502,-6.3195234744203095,-7.617656577049374,-4.1025296274557395,-1.3837342762031284,0.21062824799969881,-1.2973037112611703,-7.617903021545715,-9.43808043915243,-4.282481517130522,-2.2369718585974177,-2.0894276440361264,2.4268096940070842,3.2786430293487614,-3.712519980244277,-7.160511932888503,-2.7593514837965376,0.31945732367899016,-1.8560859145461484,-4.580280863505679,-5.637318746610462,-5.4384880100217305,-2.848049131112189,0.11050491811736407,0.055221853263032195,1.074067452843944,5.107377704850878,3.075357695055878,-5.098150601331353,-6.089773424696185,-0.6676530596484591,-1.348341263527086,-7.321023982800881,-11.809647428273758,-14.184554190431053,-14.08496695735122,-16.02975003978655,-23.55787785284913,-20.7386847703264,2.412278096581356,21.26921295468123,16.863630695991386,8.465768179881959,12.356541679909624,14.875362078109529,5.181801713996219,-8.136718305431572,-17.491041692475438,-21.910043869836052,-22.006470668831394,-26.66336167661128,-40.784872906463995,-53.59869159130128,-68.38911610359762,-94.07379528565828,-105.79756499046293,-108.69862554727221,-163.88136136436603,-223.74702241246177,-84.55675905861716,343.8605318932374,777.8251292938944,741.3990046274757,195.80237138668807,-265.7449376383568,-255.63457043405995,-114.48981716783469,-147.86497175399074,-169.5455720592725,-94.351203049834,-72.93852816187217,-80.2536358380509,-41.86711962119511,-23.961527396545137,-30.077343787707495,-10.24529313612325,4.600278031554273,0.4129856435330588,0.3415377194041618,-7.296851492018117,-17.85312885840768,-11.451932537185325,-8.402396124575324,-17.884328699777384,-17.752355868063578,-10.143848049592199,-7.796591929815288,-2.0934990981850197,11.784926161800936,27.202132974763913,42.78806395416677,57.607386388977815,67.01641910642688,67.95957720742118,57.19307390265067,33.59264241242953,3.3621906568978233,-25.73252296915684,-48.88891680724828,-60.37942518970619,-57.50194868516405,-48.17017888062979,-40.561090518721656,-32.12297124471361,-22.33579480687598,-18.127378393264966,-17.792254511530068,-13.713975561815266,-7.1024547428496305,-1.7099541148783963,1.1533871995319913,-0.6518354605357164,-3.859341277974405,-3.9517493054788595,-4.07748745774852,-4.255049333332648,-0.78435637108152,0.8588507482349872,-3.828838913255911,-8.029683753582994,-6.638912541857762,-2.5837003369207174,0.1881531819038269,0.7341229300201757,0.34840362898490795,-1.3035689335134997,-3.997215522549544,-3.996820604676265,-2.9553942542218774,-5.368309784357017,-6.768979071827808,-5.473372011688701,-7.617577732762587,-9.438711705518603,-5.517149793901364,-2.713098408679146,-2.208326930336188,0.38087811405874206,-2.0724763301927798,-10.503882522947231,-10.989739717002784,-3.13849413243938,-1.3231422535904915,-7.990647282154352,-12.841928868360451,-9.777930421028717,-4.284878650680859,-4.033465934818391,-3.8019933300160957,1.5888816161678605,0.11517509349588018,-10.607166765107895,-13.011591286428878,-6.763225905921937,-1.2911599531323938,13.631027496495124,32.62047464020812,28.119522280650752,9.750055133247525,6.174604138696605,3.390466336023504,-16.25924758334339,-30.866007713557348,-30.721795316666938,-34.78493332533119,-41.71363467885766,-42.118154867754676,-48.33259977678527,-61.26154318096334,-71.54583584216797,-87.29933746571834,-102.39859324905397,-115.07988794305481,-166.50237791812233,-212.1497284116295,-51.85645488016144,393.48024382748895,798.2453701632145,693.8161672435319,126.00180640359176,-290.14953300904625,-241.62147066493304,-100.02647845493144,-138.70588164359623,-161.8035543588988,-88.33652126956878,-65.53381105605648,-74.40857822442172,-36.68450483967774,-11.701494767700837,-18.971865138997977,-10.238683592354102,-0.6658826920448462,-10.05560506346038,-12.961344175091973,-6.641369085904117,-9.694400599012194,-19.18037207206204,-22.860688040384797,-20.859458469643442,-18.900176036318825,-14.988480883647114,-6.323180257929036,1.2941037977049774,7.7852017389329315,20.95012928776821,37.753280450414344,51.73375280927267,64.0926738741746,69.34524327929728,61.144022663109546,44.42913958232849,17.548183999535876,-18.972999843224024,-42.83813594761551,-48.1224379890694,-53.94251167172395,-55.026706173557734,-40.95458164767402,-30.735322376787177,-26.701204835307173,-13.943544174419028,-6.595957113834309,-10.310648629746751,-5.170211834371404,-0.5702519581498393,-10.094237891471732,-12.499056947426144,-7.125623585136978,-14.190763364549602,-18.607103306553594,-7.697128049596023,-2.2093221143547233,-4.35494917561841,-1.3643718342077147,-2.9933333462379466,-10.626819959097844,-6.891143763032865,3.473562426863092,3.5756178419129707,-1.6621412963848545,-2.1755011958257775,-2.3405000515321746,-6.160043130082785,-9.02730180885574,-7.5413254157822704,-3.341207384302159,-1.454374433173978,-6.108689581797059,-10.593997698633652,-5.334927610081708,0.7328924528288674,-3.219778635447021,-5.412462252877601,0.7585123502212774,2.177802316504879,-0.4385636836939426,1.468191059483095,-1.331373494243456,-8.68683694894393,-7.267902874000143,-7.259465160785039,-18.434823769550064,-20.795117802189033,-10.731581956063387,-12.016456584922944,-21.240546689836453,-14.10727311882051,5.9929786854832985,18.708729935222955,18.815339671488864,14.500165828340748,12.39935667284064,6.832948051102047,-8.55974358594813,-21.43699630539231,-22.85735725021374,-24.714099191598006,-29.77885821307256,-32.01875856210434,-41.292316649349424,-62.86170978731947,-84.59062757503837,-94.05596808335372,-93.30215310413634,-120.82215642969683,-195.10285709560517,-186.57915786660607,106.45335905020187,619.6034868498593,878.757009037807,504.74915368428424,-144.16604674938975,-376.65927411246275,-191.50375087983713,-100.3880903526373,-165.21538568862564,-134.87243699976295,-63.18358848602992,-66.29759378313659,-61.55897894400333,-30.84690140045415,-27.668221147919166,-21.63183338625906,-1.6878962329895764,-0.32347202339502346,-6.420206122661103,-7.433295578165236,-11.176861845746314,-11.343646098129978,-9.298829897638907,-13.563542039752354,-16.061260083788945,-12.93552302128173,-9.643449398499108,-2.042866316256534,13.003535658416213,28.443907996753325,42.00947760437581,55.993662394085575,65.31054332465857,67.89002527758512,68.9650225359387,60.25128742916569,29.795293785872047,-9.128528589992865,-38.08726009687386,-55.77953953569739,-60.89344376896908,-55.203074497218495,-49.828261759495014,-42.11564303844772,-27.6166776831578,-20.095623391985285,-19.216164018029787,-10.330185900595112,-2.3336180886893274,-4.8577902086443,-5.204071247877417,-2.8945744710137973,-7.426786662219328,-9.54153918724047,-3.480307532509732,0.23434536393864924,-0.668956985338701,-2.10430513978503,-4.653152007340324,-5.814369946055118,-4.157676709962805,-3.0817177123734982,-1.4504281905374112,2.3159875594200345,4.591135508958995,2.7888182501297365,-2.018935874952268,-3.103680800608844,4.507046485024128,9.027395368788994,0.1420791772471297,-9.507769789716601,-10.51236628368514,-11.290089468078664,-13.467114937333672,-12.039621637918376,-10.265866316955837,-10.76216666900091,-12.415625980679527,-15.285046703606273,-16.35257910763827,-14.560700261178503,-14.918903403594188,-16.678588504141807,-10.764057062004218,6.273097399404394,21.29628603581606,19.191904883381838,11.879291591862597,17.5137043381225,17.07131110405951,-6.372995348755342,-22.909429614629303,-17.033402881890396,-17.210713825651872,-29.24743564334691,-36.47567361182794,-45.834336852587015,-61.25385520091232,-74.94516192544575,-89.71222203091325,-98.93839917402488,-115.48581118917397,-182.38162514887557,-225.51016256014879,-30.446311864179535,446.1626832981626,835.3743143737994,679.2339872834333,86.11357690312835,-303.0737722136191,-230.6779547377816,-100.87760756004204,-143.86070541516426,-151.11257454875565,-77.63749531887784,-65.88658511038325,-76.98228613659688,-44.80897513229117,-25.392430626958117,-24.437235051682343,-8.693741800838739,0.12163763083262324,-5.3532409106496175,-6.282092794710351,-6.711144131385737,-10.571539214048903,-10.03716179643816,-6.087216101032476,-6.0592170272074295,-11.346799413280813,-13.387801119998176,-6.144559445648454,5.690344487958884,19.889772619699432,34.24236066596761,40.39342693810752,42.72550900057228,52.020000071673714,59.90086893455764,54.260871213071596,36.48439242403751,7.430901081884197,-28.68954140873319,-53.307972159933215,-56.153688428726554,-49.048572244114666,-42.32202762924993,-34.031193964050416,-26.199400903605632,-23.236414986008594,-18.833505790578847,-8.94636835360464,-1.4868341977264201,0.3347609975595667,-0.9902502105025484,-6.352693992554489,-9.478241784364913,-3.7576731613329013,1.3200819564042021,0.11433431028896734,-1.076436024594713,-5.327613210353487,-13.907435220667587,-14.665432022876017,-7.203779968963406,-1.0822593748705298,3.9917057030846044,5.48026821532304,-1.4951964041220194,-6.8260079263252695,-3.479605628178076,-1.5575822621390092,-6.0526474166048985,-10.057287090408133,-10.792337540130116,-11.285260732919259,-11.943399026048537,-10.181080622608688,-6.37119343374324,-5.194030134920627,-7.96529213539106,-9.25737102074725,-5.455429608713047,-1.1299476489197868,-2.5448383629504843,-7.98177958739587,-11.880979408836208,-13.590847096850862,-9.082157453107877,9.16755284075324,28.511700315792424,26.841091060669754,13.587738196838108,10.112844118976854,5.085859815205037,-12.907180036835426,-22.350191331098586,-16.837437275903312,-17.80520184620783,-25.075323067057543,-30.8541142780157,-46.258892208183795,-65.59457410997831,-77.29114914030625,-90.91921715439582,-101.49357084702172,-118.0192567500264,-180.593276726117,-213.37999717368734,-11.171801434371247,453.7292528369911,817.6717170680425,646.4125260927538,60.82685196409359,-307.1886201395948,-221.7682037839714,-97.36224246130672,-146.89045916732528,-149.41163052116596,-74.19258147013124,-67.68034826375512,-74.90629993569465,-31.777768534531624,-10.852414248271995,-16.678064481445624,-6.231417018553097,-1.946335466108593,-12.520091578809783,-14.464909414817356,-10.852391881951878,-10.067077343526867,-8.895522425640186,-10.22449607855944,-15.875385571809048,-19.347975148522742,-16.109425128877326,-8.19690568508447,4.112575493272295,22.686374552758753,38.0356133378041,40.37468643074022,42.08480916054923,55.781136783830846,68.57105384093194,63.15494131616457,37.50402116441798,0.11078281357872033,-32.53972664817911,-47.316505853782765,-49.727031610955024,-50.40564514519313,-47.42918056606508,-37.91019590923332,-27.977969516719725,-20.61535267161181,-12.917464893822306,-7.679694033874572,-8.852266619036703,-10.328713230722627,-6.0569569005143045,-0.9021560908317436,0.04383636389821888,-1.4527668261374451,-3.664414216717823,-4.1679509872728016,0.5415255618941934,4.29677127627593,-2.6752249036624107,-14.17025640842084,-16.19192199693755,-9.776822486901096,-6.420078580632206,-8.355443447892789,-7.854562154964391,-2.9510298039301546,-0.0815897010305644,0.6737292501665006,3.7074264815145543,3.049980718582944,-5.87732385518766,-12.894205638339754,-10.931711576103208,-5.21518913483661,-1.9612225994410046,-5.227185161052766,-11.896277515510167,-11.514339236582723,-5.973761668057701,-6.853404187671332,-11.316268168187447,-11.660370233924905,-14.008708736095613,-21.727037262270734,-22.64236056336034,-8.103196486581037,12.865616187548445,24.715011286274397,22.131730044252446,13.438815299996884,6.759302328510071,-1.901946681377055,-14.087160215042598,-17.60557919054859,-12.356015157418767,-16.807895344203356,-32.252841887402,-43.70370102770394,-50.75819932139596,-61.15541136872265,-74.810594274225,-85.12792458254403,-94.43497453209488,-134.38557785642578,-207.29350452844486,-180.70311578932473,129.38714042693013,638.2665087826944,863.0351805167428,457.51862150232853,-166.06597581507484,-343.6297453628113,-154.50470889790572,-96.4302547910251,-164.2366212125208,-122.8215069578942,-63.95318560873499,-77.512772693522,-61.352976048850685,-21.071959021723803,-18.55139461103836,-11.62004168607408,6.708582535130332,-2.6619187072320614,-14.808133490253923,-8.641374513545657,-8.897234530360166,-17.217379375958384,-18.962310216882543,-18.624947226866148,-18.134776921436757,-11.983546153751284,-4.387050448111671,1.6781579408385976,11.940283804483187,25.901456564744777,39.09337346284583,52.80825263603104,65.48245658050945,74.19204731372349,78.24805545368649,65.77623146954562,29.61670035764641,-10.567480899167576,-39.388008310709864,-60.07496087602287,-66.82210213832488,-58.39373294521789,-51.62139883510856,-46.57951104083825,-33.58352966694618,-22.87491502901488,-16.985925923792394,-6.043894805169582,-1.1483413239478182,-9.215928217023992,-11.694357452708939,-6.6587022125981505,-8.77040031028664,-11.10389802004223,-4.652647353636297,-0.5522504861758488,-2.542339712021521,-0.8857169466779542,3.9517440594065576,6.09942898236052,7.977012493221881,8.55448435260161,1.4660895177310564,-6.859577669829335,-5.464688051940019,-0.3489377699778302,-1.073943411358453,-4.272339353103439,-5.466573620853508,-5.269719685195792,-6.073866867616495,-10.802242612336865,-13.949421937045008,-9.387686791747717,-7.7922156094268775,-15.560359208792264,-17.21782755986098,-3.043075799220399,17.72166628885744,31.21873534776573,27.389025487698518,14.59066421253239,11.415164319519786,7.000363823211215,-16.076161909480913,-31.873420380731368,-22.313538934660528,-20.616299795980705,-37.71648182859589,-45.341371426285576,-46.84299551427166,-56.81732423988256,-65.11797534750656,-77.66136202664455,-98.60342712919787,-114.92711198288013,-156.55840503038723,-215.77455002288337,-116.58076837431838,292.29722583977303,775.7587186530706,805.2089269090117,254.63129519062588,-276.73980739855904,-297.1347507888213,-113.46238489441447,-123.23150732205465,-172.0091908608357,-103.64035800642606,-65.80497853413569,-81.50624400674221,-51.44135696918645,-19.088334719548538,-24.57904949337285,-18.232787730254838,-2.03945881097931,-3.9174469749714795,-8.38906034136647,-6.34025915808218,-6.5723057312799895,-10.262271248884748,-13.951885036261405,-12.958958292427415,-8.964076236334,-8.261106662500454,-5.655400415950422,5.199425809722719,17.996444231371697,28.60799966329488,41.46795625804492,56.47917802232348,68.46708361882646,75.4708687485995,72.19202432456544,46.1409960157818,-0.6092655204528779,-41.60598706214995,-56.9128543335173,-54.836919766259435,-52.345758640747825,-52.49555207718955,-47.26268288894943,-33.984062678097814,-19.945918034837657,-9.805704796459032,-2.758928797347483,0.6054752136107062,1.4830842828815562,-0.7583166757599535,-10.581694841076207,-18.785996661695332,-13.485257992076662,-7.199213978639156,-10.693667032775899,-11.343549390450736,-5.506728672806268,-2.5825226337578293,-1.0508468970949227,0.7636957339508719,-0.6259421891439061,-1.6001887960876342,-1.0745851825484785,-2.7468606181147894,-4.0069934456568586,-3.3803619800162803,-2.8832173574247246,-1.7022404064481993,-2.113193792036631,-5.471601597669681,-5.241059708047812,-0.6203084083332744,-0.09360083753403003,-4.670169595374573,-5.441126973472884,-1.087463009746937,-3.2143943294167556,-14.60180587825738,-21.916510518714635,-19.57486170047386,-9.749612726269707,9.156215239859797,22.8156951715724,15.97845439925173,10.284826296168738,19.542449364226336,14.790336515364693,-7.578196488225913,-14.852844102200535,-11.10853153975892,-17.206703547794056,-22.094703268773586,-27.591129375131054,-49.26954033374262,-68.13813742241186,-76.33173080889227,-93.36063422784844,-107.0600316420273,-124.5158565507882,-188.41959644834287,-211.22371888519734,16.215790384276517,496.1346082524353,832.256053913531,605.3016650078005,6.275365950874484,-314.6432531765491,-199.7960874517773,-96.9456084806082,-157.94543119786096,-144.06726205449365,-65.29955824732384,-65.50001467095004,-69.85844071867716,-28.908985668239147,-19.12337838682197,-28.13049029445422,-13.501987249956077,-7.201887318848321,-16.70760171899227,-15.711768065446464,-9.511757744500477,-9.160617431986406,-9.09325209678862,-7.736990817901841,-10.009777130169098,-14.769209421714065,-13.367053633150224,-3.361673438802934,9.34500178780447,22.735407126925786,34.37907603568675,39.5404754650774,43.73421233926396,54.069149417697055,63.36139810750757,57.36417802057142,29.432615529384307,-9.777483323229736,-38.56172079277748,-47.96257173608825,-47.03505788075671,-44.172542606224226,-39.406427995302224,-32.04351116941832,-25.273671037605546,-21.080712662045023,-16.620499107479603,-11.464044835837374,-7.888491504688966,-3.6692033706477964,0.6901191097025432,0.2222519793370381,-1.9756929211410554,-1.7797886719717617,-2.931699376536681,-3.831688431724972,-0.6781727032525069,-0.20825377417231472,-4.611664274580345,-5.535605775707132,-2.1190632041647,1.1683865091507641,3.0527334435888704,-0.88468608803033,-9.50226072299538,-11.748959027526706,-8.496608611912372,-8.561366827185326,-7.058154340372532,-1.39009883177647,-1.3778702677088237,-5.507379366569422,-5.050364609145385,-3.652629623988517,-2.6149567069815296,2.6389372049055115,2.3004922497519313,-10.165064128844607,-14.81662955188639,0.7587540546442142,16.744467666775705,17.144180476725477,10.67277693180105,7.896870306996318,8.615651800361068,3.7953222277787244,-12.348857656373953,-23.131690133834415,-15.996280969449392,-13.37410691305561,-27.153506202825994,-37.21166592445169,-41.411924107791776,-50.87701848179087,-60.83177672810935,-73.63455706355158,-93.23759658557007,-119.4511662700867,-172.9757702179824,-215.3091878444406,-72.56331357580719,355.0042911374393,779.3240108823368,705.6166402090614,136.07913008811823,-296.73306582492893,-248.19183598696492,-98.3403707918771,-134.3194445344263,-159.58592332871694,-91.21036528455664,-69.37688280455707,-73.90017947821161,-36.450448111515705,-12.133444617963846,-16.105866126640578,-14.799709249161307,-15.999801317113388,-16.333946960680326,-7.421180241877924,-6.070374206284438,-8.87781549109796,-8.43508600961194,-13.989256077135915,-14.93448434020136,-5.6992781086935285,-5.5016843176522805,-9.22227667479535,-0.23118053623042156,10.99858171831744,21.45982948177224,40.17725313180073,53.912798075673734,56.58114250886432,63.03249812701918,62.73813433126282,35.51703569485147,-2.5337330267162326,-29.86012068536982,-46.78681788756941,-51.47453270748973,-44.00631589121505,-38.33229151006787,-37.265695353518325,-30.00388838891517,-18.657624334342103,-14.762612709839484,-18.172912702787997,-18.565607918604083,-12.529991131675885,-8.206546180563986,-9.422100038829315,-8.447172105738055,-2.3668930501008365,0.80304889556845,-2.42574665023621,-5.259150118251004,-2.566364419663895,1.337670290286919,1.0137461571453361,-1.7770021694173597,-5.452822020477253,-10.839757701685809,-12.014536263485722,-5.70679081357115,-1.3404708631396733,-2.618865577924682,-2.966256426416507,-4.865379342526714,-12.068515363882367,-15.037722756277557,-10.089739845396117,-6.903740698671838,-7.983059027354322,-10.755304770756474,-15.399873622149698,-8.950424245548659,17.4294179471828,36.45206062226688,28.42767843397332,18.77770818824451,18.679942646285483,5.8338539262911215,-12.480944636739467,-11.875230598204334,-6.880080645445036,-17.14428556190331,-30.450111753043338,-37.80021098082846,-44.19826122471352,-49.26359795440888,-61.12141463767114,-85.20620020155117,-97.29829855039026,-103.77701264975593,-161.20254060566745,-227.81912822723245,-103.30382373431044,330.6438411788786,803.6428373693136,785.3121850991378,192.28413509226147,-322.9514442507199,-295.11754121759594,-99.60679077083779,-119.36997961091213,-157.86050494690693,-85.39227434942015,-63.71832716029899,-82.32695389251383,-44.66429404523021,-14.985395723463384,-23.750462809107805,-22.037483530653745,-17.47860556939716,-18.954400278705997,-12.176705653310254,-9.397225082401846,-11.340211994238055,-8.962545467346374,-12.695923567485936,-17.46302640799926,-13.190145237073908,-12.74886961068305,-13.117238529853473,3.8248200473126137,26.499674077517945,35.920871791872344,41.838594860442576,56.47069196040146,71.55558189919807,76.50240165339324,67.01162622832129,38.735591564970534,-3.054230723451848,-39.12504418847016,-56.31612130877932,-57.9697831995883,-52.721985138340926,-47.181628291103,-43.71889092427466,-37.643227174254676,-25.829271306622907,-15.265162343620851,-11.864642265849998,-11.067989148021208,-8.296857534298635,-5.034425406623253,-2.2540612786803607,-0.5101870297540856,-1.2103571185098563,-2.2928381388889925,-2.7854131132541013,-4.962761916894479,-4.67716127914942,1.330277754532128,2.9547513737559967,-3.9855118264303897,-7.06975552815322,-3.8722724853273576,-4.4792683527417285,-5.631983489487615,-0.7071200573391856,1.2538329538874375,-4.115573530611497,-7.1225963630944005,-6.475253308576732,-7.705111253572477,-6.707539432398678,-1.4264972496388681,0.2922059632976506,-3.1679691839000554,-5.543731305615782,-4.85054090569723,-4.195288447687492,-8.224627337745286,-14.400758462355402,-8.996858185384884,8.563807100632356,17.867564121322008,13.628593044635048,11.601249233399463,15.210972741746286,14.354116794177859,4.694878441754556,-7.379495661977039,-11.245324897271267,-12.32661081880413,-24.13984257427017,-35.94607624693046,-38.2475038341598,-47.59482576613904,-66.6178859700523,-82.45882325915454,-93.35204032067216,-101.49605493444608,-134.66470831885724,-208.79556884834307,-194.24753918073137,108.76395454540321,621.2466901146458,868.8542237159145,504.4482019334656,-106.06388566899028,-319.4066586593841,-161.45369807178474,-103.37886631650706,-172.31093875260268,-136.46992644959286,-71.33857289785169,-82.29715630658384,-73.24926473026181,-32.648423213160726,-26.232609771068756,-22.956836944220576,-3.638576878070701,0.42362044883143923,-2.953668964366667,-2.6784396473197383,-8.372870805851957,-13.351633548448547,-13.398016942855246,-14.124306625651537,-13.476385969016226,-13.392587747493577,-14.931147894903782,-8.929626344138669,5.897210754184405,23.909971128781738,42.19717312891452,52.9588809869576,54.11043895106705,57.902204070485794,63.75037449072541,51.830373507899054,18.516062317294214,-16.239163143474613,-40.28635174558992,-54.80293335818949,-56.03371671364048,-43.63209776966399,-30.860434848695387,-24.357579638881234,-19.79645399368536,-19.510256752257483,-23.09444525850563,-18.7800723955229,-6.251565155144419,1.1182887551732037,0.14163808180259885,-1.7155816002672886,-0.6519445549860645,-0.5805867663752551,-7.7953176613590465,-16.740301040795757,-13.350844880206456,-3.0012839503315494,-4.226713454411065,-11.947716811266487,-8.774218702543328,-0.5379675296203921,0.2809464413092577,-0.037220567564586915,3.0685049844772196,0.8964759051449018,-6.3199800868646285,-8.286774961402482,-4.7839567767095055,-3.207322153633206,-3.7088297930223373,-1.430049108826375,1.2215387245275693,-3.2786947676106806,-10.290100898959746,-6.637643746681647,2.4635871781649756,-0.13372870060874753,-10.28830050449265,-11.355516325978162,-4.535693822180886,-0.20282503397669327,1.376236889726349,2.681501927937717,1.4633290839693522,-2.1360483061049234,-4.355714843949276,-4.314734917984262,-2.577369868385393,0.35652091751446946,-1.6021763197314574,-10.32096739941039,-13.147186377815789,-7.475080734767694,-9.46834117257058,-17.810602395006587,-13.255189056276503,3.9727703660292573,17.76987148975492,18.942662176151956,10.996548547809432,10.877993568872173,21.400186853644314,16.00815772393182,-7.394060821216414,-15.647162127449985,-9.024828248538718,-14.253319643340731,-27.1611149924586,-36.35298921754331,-49.72567501980855,-71.2918498826156,-95.0723611254774,-106.96165823426793,-111.82454536979274,-157.2622999397201,-224.34573519656772,-138.94018363552954,237.83863050266137,710.751541043726,800.2496733414334,324.54633848888506,-212.03462301521205,-289.7708279536418,-125.45554928728814,-120.58955963831846,-167.5896539243812,-102.23828453586437,-59.97310577008798,-79.94454143931324,-60.30661607362575,-27.48621648000491,-24.486772375874967,-14.825189100929803,-0.9828517961481218,-1.2424322440152586,-2.3850852854298097,-5.947822039793566,-11.75846863619229,-8.649373604045039,-6.4554863070779955,-10.567390365902718,-11.49875163474036,-11.967090295901073,-11.87037861460442,-2.6014625073227884,10.373026659082404,21.15064881155093,34.50293749107301,46.6942060165744,51.458071523835926,54.67647444968116,58.02339021998556,49.62440585733532,22.210570354264807,-14.005520818151284,-40.543750425565904,-49.80676909210663,-49.412710493097165,-45.6282525412154,-37.0687511152517,-27.25078865856974,-23.23649701441624,-22.086935196905554,-16.747081637157567,-8.754273833552983,-2.105948912510028,3.0864136910300264,4.151973696013878,-1.4907645573187267,-7.332988213466216,-6.106079941620399,-0.708693653212288,3.4660084776044116,5.688962319237566,4.193910422677538,-3.8643878827900533,-14.157904971399372,-16.481603312179185,-8.230493323220951,-1.5897206356650173,-7.551777747764504,-16.360109420387474,-12.761369109561493,-3.302025082770017,-1.3910737810938745,-1.547073622891201,2.487462665231172,1.6456074223352992,-4.873323754400786,-5.246286204679636,0.028665382578520138,1.7588180644175235,-1.1375646977406024,-6.960130244324596,-12.751648888538206,-12.506498487165624,-8.57311383803832,-7.594111986188022,-6.9380054756691365,-4.553192093508374,-5.345723725098107,-8.05903100783601,-7.073752523701678,-3.73022784615622,-0.7041599993100682,2.2455886263844427,2.2278953220211886,-1.5188079993409183,-2.928016593777052,-2.5720015800251232,-6.84423013958968,-9.98845330637498,-6.7164052743979195,-8.496158163831959,-16.41405053981606,-15.764600616502506,-12.627440495380988,-18.876733710620215,-15.394136934989266,8.98999046355015,24.30815370645705,12.654180142729825,-0.9335000878793025,0.9969094373219907,1.9766388130420367,-7.973107591206258,-16.419915485843628,-20.70078656973756,-28.382053282123106,-35.676543324713776,-41.49465965993821,-51.59240922017113,-64.41842350987936,-79.85929317809979,-91.43603400509988,-96.33915944900465,-137.62261311743077,-212.0576841050975,-143.5665223782567,236.34134608980628,732.8112289356377,829.5491645170434,327.421363449153,-243.0815690193615,-324.04897512674233,-134.69176653618547,-118.01725646524272,-176.01753278728546,-115.1525407884423,-65.86197276184046,-79.20595066292049,-51.85168599762671,-17.862132761645597,-25.83396214329186,-21.69060745665165,-3.61321976458901,-2.3667697398877934,-1.4343195535840216,-1.2745805041196334,-12.153143065317963,-16.351298109753944,-13.071384983924403,-13.648672513054493,-9.63954514787131,-2.1000643140007798,-4.827025148592774,-9.850376317678453,1.605046953986224,26.270095812600474,44.923317678531234,52.65339113195413,60.819555645589745,69.71871177299262,68.11066450030438,55.251614906972506,32.68892715060414,-3.891350957441256,-42.340219566198144,-59.98589189984441,-57.47904670180854,-52.12756133885109,-49.72410543842464,-44.76043976693412,-32.4381022855612,-16.22479134723673,-8.227319947229876,-11.575130998421002,-13.070094420009854,-6.4811270665601874,-0.7222739699937399,-0.029509553619863738,-1.550479555579873,-5.46287131524905,-9.81114976951065,-10.488232401112644,-8.382898744401945,-3.838179796197597,2.719198770565054,4.945031355981856,2.35889348588101,2.016327373640981,4.122723651060362,7.162961125471366,11.664931899934967,11.182627820863718,5.165292474661981,2.360009937128229,-2.351626220370566,-15.10235447488095,-21.470475781873127,-17.18860278362386,-18.89976771592824,-25.302274853228027,-20.94161400885438,-11.655703740436582,-9.840488167859847,-10.845453603547494,-11.221896386841019,-15.244851002315954,-18.828633664932532,-16.824398263726334,-8.404434956486043,11.441574940536047,31.682999344728785,27.207798865815924,10.408150483370692,11.516378623939591,12.857465516625062,-6.289387031773394,-17.743461383219156,-13.424470999554948,-21.684385382049506,-34.66149258985474,-35.24259908520949,-41.689000135782166,-54.50979728413818,-64.07454568432604,-85.54488913223594,-102.72703325343574,-106.68110687542134,-159.9497775786212,-217.30423374381047,-42.08515102366232,438.15684244545196,835.6172224223998,666.7156344894227,53.36979752465444,-333.7460056900937,-236.4400212764208,-91.07558991361049,-141.63085808959974,-154.54730220826963,-74.17019248207652,-60.23441149854243,-72.08751151559925,-33.06881198323295,-12.834047356433942,-23.463939439846268,-14.47736611886816,-2.179238006900299,-4.0309009035494014,-3.552921842222972,-2.598269820969927,-7.369153584060653,-11.77264145882047,-13.599058232267563,-14.227236419757801,-13.114775456031381,-6.882498484967186,4.277230398992156,14.52735742366643,26.029762074547723,40.662155467517394,47.53479883734574,48.55215793806863,59.28730261511123,71.35895367633391,61.67183078932187,29.707451268003254,-7.269478825649692,-35.6280103467608,-50.93975810828318,-56.176576626579866,-55.16378449144847,-49.44241171502682,-40.95370236088781,-30.41690708681041,-17.938162701713185,-7.548427110429319,-4.447853932114974,-8.865328176592552,-14.990780122845932,-15.871131994037261,-9.947910078021252,-2.374468105123526,-1.3475028689809214,-8.709610982744145,-13.906908930922043,-9.623185566132378,-2.19826782301614,5.347090945651013,12.943011794720077,11.013284340541986,1.3881240494999716,0.2401419940185523,3.8391292632734224,-1.3634312620939042,-8.116866314130949,-9.560379485726578,-13.517176633465894,-17.810687724022674,-13.66910766969212,-6.785946790804553,-5.372741236894264,-7.225228361605918,-9.487936555697178,-10.930227716593482,-8.702114827666431,-5.48825073023437,-6.348685050018833,-7.40057920535652,-5.38651113866441,-6.110463662865007,-8.417954077633848,-4.429512042960562,0.8096385816915443,-0.6332068502391976,-3.9400048561815257,-6.7319363681440105,-11.031933212192248,-11.100889045246124,-8.161017250450541,-8.23609705366415,2.200306141135396,27.03899172268832,35.125328222168434,18.237039264675204,9.634300616732096,11.335723248252219,-5.513475861793516,-28.730187109032396,-30.530341006539953,-25.648060547243468,-30.74361835304311,-36.539447767208586,-43.76136342202285,-54.259167308654696,-62.27060673082051,-78.15129952813871,-97.53021732692827,-110.96631978623842,-158.54559420175062,-219.00967188584576,-110.27744387233116,289.38616345222954,746.0863736049674,783.3746331385171,276.53590909196214,-238.00890096840544,-281.33252779346486,-115.24727537481937,-124.69380272478965,-173.51962398406513,-105.87616273290081,-63.927504582074754,-75.9187187125723,-45.18562232653028,-13.145842785292874,-19.892181700993397,-16.484212681135325,-3.7631992470823956,-5.81712235299862,-5.8646421522970265,-1.7622125540552709,-7.44904672872762,-16.631357970866954,-18.851662530283427,-14.589482071132094,-9.127388571704007,-5.851257271886523,-4.285145255745008,-2.652713036436815,3.612355600377946,18.38567773869274,36.8219799208209,51.51065567682691,60.65842185978637,65.93253558027253,65.94080182450728,50.75731624704311,16.94201067324928,-15.546904039972034,-31.426328278609276,-44.688191397745065,-62.59101215575453,-65.26596513224902,-47.29173265230281,-30.632253805571473,-22.760777843016662,-11.859045249896273,-2.786508085680314,-6.685762070635011,-9.063407654043257,2.0468902567263996,6.988253110361448,-5.481695469447093,-16.18939707241135,-15.789944276871005,-14.855574768522484,-15.597322503754228,-13.403319584431902,-9.359762365888855,-6.374718916173331,-7.018005897143254,-8.84438990309181,-5.766383408351759,-2.150193837661085,-3.7802561627232834,-4.160176182539127,-2.6066764652588326,-6.083948489468547,-8.714517839215242,-5.000602113809643,-3.8081124039573524,-7.525323852586652,-8.51446186884067,-6.552563500993703,-5.506592553934,-5.177833366389892,-4.6857969415639555,-2.765159013650109,1.8675006178587843,5.730828882520525,2.2286876055046054,-7.572476628886486,-12.419771426469676,-8.627085846615792,-5.742251988081904,-5.293186361764288,-2.2410295414111996,-3.1366601248368333,-9.218661595387339,-7.770845213841467,-0.40272501907992897,-0.08431266221654532,-5.153046232148673,-8.716032286359276,-10.985071422184106,-12.412144698714208,-13.823617467592797,-13.08184889851892,-1.9835752087434804,16.744408868830277,25.382287121585698,17.553800109105925,10.459046660284692,15.880845180800174,16.344192926428004,-2.442289598325136,-21.62653389673639,-24.884505438244577,-22.955331465799475,-27.54439486327602,-39.53693507933357,-51.888069102514635,-60.17475966152979,-74.74504915579152,-88.90005743751776,-92.37005985349708,-131.82786146282197,-205.0633009975345,-136.14988852446805,225.39153430906885,686.7163113944022,777.2978979246086,316.92957420735166,-211.32890981283938,-292.69099921743384,-128.8619251753434,-124.55891688315596,-177.45887866006737,-111.0937801900995,-59.84324108610696,-74.56540597818258,-55.63006708281075,-26.47351380049067,-25.486838201503232,-12.42256632364681,2.5770619602060485,-1.9848106842098687,-2.034788093871075,-1.7143244660415,-12.76309325232564,-15.713247923067723,-11.871299283596867,-15.563014306863032,-16.3880109989989,-11.018093515922871,-10.542935356022493,-8.309919207642942,6.089603347824064,24.79815469971099,39.37962348136034,50.49466104155047,58.0839039826545,63.36328517488579,67.19170438231644,57.52240787582572,24.142635729731026,-15.796850879745797,-40.38301031142706,-54.20620374319616,-63.61547613368086,-58.928843203810814,-43.8901910151294,-33.07586820099135,-25.01389825950108,-17.92977881024037,-16.221884414801504,-11.779136572999672,-2.311123043671822,0.8642767093775792,1.5152133894058117,4.851840305595745,-0.6041079176311008,-10.823903439659524,-10.249402357072277,-5.501575527927233,-4.285956689905765,-1.505634014073376,-3.972363153488647,-15.23229137585178,-18.142682300063242,-7.913898623469333,1.7615213144929989,5.242143195152039,-0.45539256297354314,-16.183995469156258,-24.506064832542748,-14.997238781066287,-5.296012742006823,-5.3459104847598375,-3.656599351052952,-0.2532972590328857,-4.463479230101978,-8.909019222764348,-4.797121963103592,0.2140316749281208,-0.4605913089337559,-5.417753012596327,-13.375612328131712,-16.54788953518578,-8.700386241634021,-3.3477827933486406,-11.46982707618232,-18.955931768091492,-11.299526803969151,7.694329666746189,25.300222428559323,28.73588218477067,20.191002987929423,14.29704671084856,6.553283063055893,-12.984626634210798,-25.286340406643504,-20.332945739203673,-20.968592306242023,-31.115247639621085,-36.959124226302826,-46.40657328233323,-61.878056547263625,-73.16595248643162,-83.83569059133993,-92.5543543854169,-113.82695897161985,-181.94111983394706,-206.92727330109278,31.938677913630215,538.1018631468619,866.7035085269848,575.7207002647959,-71.80054579772826,-366.509607881983,-198.77454794578728,-78.3940273634962,-146.8103861375017,-138.81683386259718,-63.97953835937482,-62.38314867537845,-59.884066624192386,-22.896771783484283,-20.370818869263523,-21.45365346133635,0.9862655958384057,2.1733715960817896,-8.619691312323656,-6.46113287027595,-10.346362256464952,-16.951638611978492,-11.717567653470741,-7.559757544834142,-10.941665609789851,-16.516768958632895,-19.43852395632816,-9.429104606427192,10.859235227054395,26.928826437930457,39.400956461866436,51.912737201616764,60.19703450053139,68.45635678134332,76.9338861026054,68.80523978285589,36.63479399883949,-5.15763264885789,-39.48064416909639,-58.84994924955355,-63.90956767598411,-57.89882770626143,-45.44765762834735,-34.94558981027211,-30.177119040829698,-24.576586017951847,-13.325167298418451,-1.0468784739443677,4.225443210790372,-0.22765025722257448,-7.189561904327036,-9.593833532057893,-10.329861316961829,-12.196975884828312,-13.170904375528574,-12.789321098421269,-9.768553090831702,-5.28364037823275,-5.238344484983177,-6.274015234555186,-2.304761839177406,-0.09441671398446694,-1.3773752912819894,1.8628323519994439,5.287011236177138,3.094628906516566,1.877257454327177,1.2304769994381974,-3.0310721820951994,-4.159758883272513,-3.0931990511565406,-8.318019032112822,-12.662111192583694,-9.712654044507946,-8.782203587162007,-9.475074619808055,-4.050708096390334,-2.4745036818720916,-11.056909962013043,-13.697888245573987,-7.1050702224551845,-10.46771582635318,-20.9272289577576,-12.151078261732696,12.602217725938207,21.5402946514179,11.642714913373954,9.892356425529695,20.08571836373851,18.329796762034345,-2.121413459145444,-21.296908019366978,-28.005057467924487,-31.085128550323553,-34.32618088682463,-36.50746133625452,-45.38964325737132,-61.80427501290312,-78.82798152352737,-93.27367526571953,-98.5886192995624,-116.77166241781322,-184.87674760563883,-212.15536923987554,11.018029270967787,496.3466985853574,848.9500027446227,633.6534458574886,22.781542530726085,-325.2709745078817,-217.56106009046238,-96.7766662855059,-149.55962915046402,-145.79506557306485,-73.0044299528386,-71.66010984538607,-77.51171342493804,-38.48665393231289,-22.74079249201914,-21.16333462125462,-4.4583996169397455,-3.5028552572439082,-10.643930819809611,-5.001129071281245,-6.186560834018973,-13.459936944610988,-11.377571264168576,-10.057157056275575,-13.767151387516272,-13.690483848891905,-10.609929416606846,-5.333885484902206,4.643388615419738,17.098574514424293,31.705220743803565,47.25028852241202,57.99958256235855,66.17116134289995,73.07325758852693,63.543498471459415,31.88542999513811,-2.9254954174922903,-29.48944454480252,-50.27542256104418,-58.664280307984086,-52.82971921078257,-46.950374691176854,-43.13690002056826,-32.41697940183282,-21.97186305296517,-18.6328674091733,-11.23756975525307,0.34144810370352907,3.0325288780252944,3.1969424904070234,8.439997803275473,2.718993591832639,-14.801590279382662,-19.97775364497937,-11.84898254277072,-7.377305399881614,-5.771463807935962,-4.6176388430103295,-8.650049563179458,-10.908522611674899,-5.946402311258705,-1.0982268813130176,0.9421368261865588,1.3148579521165278,-0.7199608680709115,-0.911115775088005,0.7620464427114015,-0.4187762858889723,0.41607186420039355,3.1681517629822196,-2.4828637809939167,-10.830328474918002,-11.437597745545322,-11.468161728657908,-11.790890075357694,-5.9948662910405695,-5.392344499687605,-13.759061766094174,-13.083052140816175,-3.4528160168676276,-1.447973970755628,-4.87738068717967,-6.177249846648628,-8.748427415027116,-10.262888109934247,-6.938825820761858,-5.779328102132062,-7.659402226018301,-4.8465730555920405,-2.4895871336864186,-10.200891501084993,-19.363098664636777,-15.938680914893517,0.25203528453667534,19.991741858618557,28.26648179899244,16.727248922438335,4.833703544950308,9.667423387530652,9.856170250888942,-6.727470187801281,-14.832349204606462,-11.330175669175027,-18.30604722104632,-32.64699595564986,-45.782983081268206,-60.036195616511,-69.7447864898105,-79.52428376640418,-93.46296956666401,-103.86409342273232,-142.6586902805049,-210.33190452821964,-145.07311856794968,215.87398211966732,699.5268970848214,818.8662115282655,356.0840769896246,-207.120727480542,-310.0282023302083,-129.8784011064992,-108.67711711892987,-171.75720766084083,-115.87883373134609,-61.65668564596632,-78.08427755071584,-58.59268648742693,-16.47761629796544,-15.430653070570074,-20.21558490785863,-10.052773573493484,-5.416067068887401,-3.090610275034507,0.081545415878022,-1.2118715148368437,-4.0033064261555165,-9.473008645192417,-17.567839540206876,-20.401316002840012,-16.3909991886421,-10.115589809685844,-4.312202029566695,2.3874486376774566,14.955977154611308,32.32280701247993,46.78415599344244,57.75615958851519,67.02519255735359,66.09850829549394,48.132005279077305,19.526134800689768,-9.45790372038186,-31.069575316901663,-41.75199093986305,-46.66494538084887,-50.795536225452445,-49.168091665056636,-38.0171083537116,-23.676340218155577,-13.914448793374117,-10.226326056266458,-9.353093218535102,-8.594824416958414,-6.784768321511793,-2.8716978399065862,-0.5485448443637218,-3.3231987455834258,-4.43565813369039,-1.8030506382167015,-4.834277399306986,-10.468469278340564,-7.2285883931600505,0.2820399288354807,2.472840560160215,-0.9083952016819463,-5.676942071279454,-4.060098068921696,4.4517815334262085,7.515754994296277,2.4848132686930358,-0.8093696065345277,-0.9662770808598289,-3.838939315854022,-11.721539694670458,-19.93122018681164,-20.103351396615643,-15.001441007875247,-14.535101118021519,-14.826222941089544,-9.432229911892938,-5.865238383056756,-7.477604933579862,-5.9422606664806565,-1.536852450422824,-3.6169811543010972,-9.257190815003858,-7.3043924349206435,-2.7717050002298578,-5.857790616139415,-6.786260219791016,0.8415231821038063,1.888503799664143,-5.881655646760374,-8.016390863328159,-6.042215665309492,-6.023138226724303,-3.18257205388878,-1.4882621034071555,-6.97980263678034,-10.842898970040784,-8.377916814936363,-5.39085665960606,-2.798914751140117,-1.9970996988089773,-6.257257167985951,-7.976314066946642,-1.4384548431277668,3.177982952440468,-0.271824783596502,-3.784995429276359,-4.5334627158726235,-8.072884807075853,-13.366617157069106,-14.60512170535385,-10.653681513950856,-5.646025139999983,-7.139384156284063,-14.3575118929833,-9.960763227658603,12.515587579130818,29.35756524030934,24.909514705706936,16.34121788238732,13.900939626782906,3.543867104419947,-13.945529049210784,-19.936185686349553,-15.937454552525786,-18.814513996216263,-33.823568511429016,-52.86687611920735,-61.40828761999733,-61.709249239669234,-73.46415510455783,-86.9688008377609,-96.64541827696956,-149.54651346573976,-212.7288708038126,-100.78421476861902,288.82171815123115,725.0164928188459,757.3960475925809,257.494727892604,-256.72024749713427,-295.55449163343076,-114.52466748897676,-118.15297452497967,-170.99692798752633,-101.543416329286,-56.95330434521473,-72.68761434183907,-45.7017224659288,-15.317654254264717,-19.698035107172018,-8.252181370793169,6.167790907100107,-5.121563064823498,-11.860418243040488,-6.978183143445785,-8.897161972485302,-12.481457975379364,-12.663847845003506,-13.338882231479179,-13.648896064534668,-13.34960782891246,-9.90923372645885,0.3320778340889079,13.264910792891849,25.164914217184393,35.97154952226059,43.663390571020095,50.55238383202958,60.91533481142094,67.19931369858203,55.932646001162254,25.5014066869632,-11.01656855960454,-38.336798926992344,-51.28632313611844,-52.85097182469423,-47.29239978961977,-41.4156416642326,-38.42951551543492,-30.628558637297317,-15.565488768845178,-4.376294197146301,-2.045367464718865,-4.816550963815047,-12.441561149244869,-19.993742737478797,-19.734696007661633,-16.12174803346974,-12.336517073866315,-4.171408915363266,-0.739658879684697,-9.902383224713844,-16.00397637380798,-10.568711139209721,-6.138111966967527,-4.446313905613216,0.8920558182366136,3.8484651257589597,1.227453685896446,-2.926606160181521,-10.142753998711814,-15.871382813544077,-11.403952911091494,-6.735732561403561,-11.9873782050691,-12.61819105343699,-1.3738968383404941,2.5090041784968875,-6.196119351278728,-8.56627295991333,-3.550955272810853,-5.590301280299485,-8.358424356148895,-2.3150924357091576,-0.06423267970816404,-7.306351881799284,-11.175593027743396,-9.720332727082436,-9.31293917439698,-6.174360620906647,0.11690077606142424,1.9600650097394183,-1.1257768613934651,-5.025065942655242,-7.404501369091001,-8.148697226137784,-12.970736039086798,-20.886767307897866,-19.18790652655577,-8.393128248968006,2.1700327377133055,16.23479758350161,27.34319047272087,19.907902261971206,10.343468394174709,14.833454789108387,9.18231327057267,-12.211595932024183,-19.552348026365383,-16.15483893297558,-24.904306853651118,-36.612835193115274,-42.40012685063722,-53.18405190518872,-69.98618256910007,-81.8957866145117,-81.1745366953924,-92.34355717658633,-161.5674675986316,-230.78193426074523,-98.42965775895644,337.80958184621136,794.8860552552005,760.9655857900553,177.38336016757626,-318.1658465794227,-288.5991751201722,-102.50152699644696,-122.2136286537449,-152.40976851519227,-74.26648992142316,-53.386226392522474,-76.05444817790548,-39.41796327798195,-9.484409476471516,-20.448177619181127,-15.749707627641618,-4.781824916365377,-11.086818246399012,-14.298122381120264,-11.916899591928019,-10.987676192312765,-8.437984380028219,-11.383613537910739,-18.361161174900115,-16.839577089823614,-12.221707707270905,-9.50711910926895,2.8668773200406825,20.782658841170566,29.122735157542216,36.18761793865146,50.05093493009119,59.71860766922461,69.85785355457013,84.42842879091651,70.82066622634044,19.242165632362273,-24.780716535826286,-41.32405436072955,-56.18184246924676,-69.74944656848018,-62.36021051912628,-46.959032759214345,-42.71339710506313,-36.664572800624484,-18.676794068118028,-8.57555453392478,-14.23121296511078,-11.662005032415593,2.784356435394482,1.5886515956701892,-10.887187006413761,-5.603279917890145,3.887549400301584,-4.966393012611064,-7.721857354291329,7.340699544305843,9.795247365651077,-3.2073975840799953,-8.887380932330299,-10.370428532118167,-12.134776267057413,-7.430550823276064,-5.512314740507918,-8.920054510775577,-5.813211944344943,-3.3972906579442377,-7.075630622828308,-4.368890554063066,-1.3904505899247184,-7.053522522317623,-7.045493259768593,-3.7530214917354883,-8.70160053617843,-3.3475322971882147,12.72999989668089,9.836897866728139,0.41966072833120993,7.140553899893677,0.5562957404046802,-23.191249743904077,-20.115718381633144,-2.896861554315839,-13.33041152024027,-26.810479084670312,-17.667724810570473,-12.406356232978595,-10.86799844369251,12.60038909715416,36.1436913955569,29.247864218626887,12.68124072658193,12.710588916176656,14.474655809881861,-1.342072316715301,-20.119083647643834,-23.670515446984762,-22.327648714928564,-26.77790853208782,-32.13704505260798,-38.92345932551499,-48.126595045635696,-61.32883514364427,-84.81681599953708,-101.67402148146586,-112.1423803931907,-165.08414694848423,-208.06160557867355,-37.914952379241726,404.7305732952579,790.7517764842173,674.2562588801583,107.7044313884175,-301.81028868532184,-241.88827623898004,-89.54066825561131,-124.15518745201364,-146.4358699641399,-76.51445983103628,-59.42950257645421,-65.70698327142014,-24.23059998428582,-6.120279968591255,-18.499114811446148,-4.481564920213907,7.114910659308992,-8.535770216491276,-16.65827710004421,-12.676395374481046,-16.663963492610584,-22.201116185626656,-19.93625354760275,-16.46326919319008,-13.657257961113851,-6.518404579122661,0.6700005667485427,3.2764172205288333,10.968307420297503,30.284190003714976,50.88378565789274,62.75306890218984,67.49082287150593,69.43250541035874,65.5628471408505,45.348249339043356,6.141381748762648,-34.550393175502265,-56.81386731146945,-62.41117681902408,-64.31731509064325,-63.05619074203222,-53.07922843718801,-37.62424517301331,-22.09378580210549,-10.513151456632677,-6.896553336763191,-6.961060889312808,-6.529564843404909,-9.931809873308161,-11.603794477872642,-4.911061413707774,-4.6173254660000005,-15.02908368556187,-15.626445607222072,-5.49024524495313,-1.262270557997379,-0.13527599750508656,3.2221330533572594,1.05758340809429,-5.122588879902386,-7.191248644135706,-5.212141304371556,-0.8427019183880304,1.0983989410364838,-5.67069463208488,-12.098885673058916,-7.529529360415715,-2.2185533610798203,-5.285181206151213,-7.771509024393085,-5.82482529394956,-5.070197296689109,-3.4232007241251328,0.6658325304948676,1.3298814325146964,-0.2830377684341858,0.061321752826906106,-1.6343511431570192,-5.465704106115746,-5.864985916289003,-6.381747985962145,-10.628517898899307,-11.401402545980869,-7.667761331260007,-7.771970696091497,-10.78600931680037,-11.419610925881726,-12.94337357508925,-13.634866592693232,-1.4232837336202304,21.63740751059902,31.813717347922214,18.31385989777401,6.1376665067074505,15.432188631728138,22.227110646908535,3.2397426572639247,-20.647629884588234,-27.63007515272792,-25.776014016090436,-27.988159378100065,-41.55043604333897,-59.602832702947246,-68.24531164251297,-81.73452117641672,-104.5344598601065,-109.28747229579943,-126.93167547254549,-190.93328518031353,-162.86670123804475,140.0146661684338,605.2345520791032,794.0819206507726,426.25786317,-138.0385186613091,-313.1624590879653,-147.95120026916084,-92.79179015811039,-161.51736722797585,-129.3639938446213,-65.97541807175816,-64.1593604597395,-45.9908487992442,-21.809251262031236,-36.28615147314494,-31.60643266927756,-2.7009758185419805,0.6297481489781482,-3.207322054731975,2.3522394857584636,-6.555854311446453,-21.875293772389522,-22.65359774933762,-16.822933379654028,-16.05607385165958,-19.739152684033677,-18.299740647509708,-4.845534641120423,9.257856920165437,17.232375773254375,32.67670029629379,53.725679256376026,63.317572457471464,67.56885867798358,75.13972698650714,69.47363374937493,40.03585729722346,-2.4838510260676987,-42.659823535274136,-64.63301480213555,-65.60816383174213,-59.96201140896918,-52.759170905705744,-41.76962234071407,-34.84164635207613,-33.035555578101395,-27.049465917480347,-17.26625873795186,-9.500505066261987,-5.27850679852946,-4.62334317132721,-4.462415988233921,-1.807387606617251,1.678944408325787,4.125317691926892,2.9953563488362978,-3.767233348928052,-11.733252284488362,-16.531270975030292,-18.453940106521195,-16.442303205960044,-11.705365803253688,-9.237471584378774,-7.430340647226274,-2.6150433497125967,-0.16904017323639664,-3.4990098968733534,-5.813823172909949,-4.938552212236708,-6.258841674946725,-8.443955935695103,-7.651590511323485,-7.335880922084021,-8.785028428719707,-8.539845776550846,-6.818574247539711,-3.6723638941533494,0.23675814743631385,-3.88020435636016,-18.53112244795261,-25.814723427630106,-7.8828778240715955,23.636606536421006,35.194077576896056,17.54865383217791,1.6577291197636708,3.944714131102746,0.3030384716608836,-15.113631241190665,-16.6023368906907,-9.2444276260887,-18.03422519378451,-32.79749301954995,-39.42525833135352,-48.093429696615885,-58.91988744848695,-68.36903230948143,-80.94626754251303,-92.7326467492856,-127.00279614680124,-203.22151661614825,-194.5729155267398,105.37623459266257,624.4030580922494,870.9751652334185,475.9272393769951,-168.0827212599794,-369.2065574966158,-165.27205210325872,-80.00244126268858,-151.29571820089973,-122.6039903727211,-58.73138662758926,-68.25807509214332,-59.27382532242357,-22.80892935660803,-19.689108359680624,-15.370585811408537,2.5997078706370313,0.5812182795547187,-3.937581541896975,3.7928009722682674,-0.052205729671939594,-17.702182318228964,-28.2152478036335,-25.415086105872632,-20.898609249110415,-19.593615243584413,-11.005041148671703,4.069004347521087,13.31233369590612,21.316452050508424,35.52094819863871,49.914178369611314,64.71406239080878,81.60572127485429,86.29281726678782,65.03598518735984,22.68917390107176,-21.11676940634545,-48.21300413159443,-57.927738073704326,-59.02082497832714,-54.881022426274,-49.63884693243175,-47.27477461057785,-41.20669635875119,-25.801417320986015,-9.390603726721167,-2.9905891556268216,-5.345090733346744,-6.753682418956782,-4.793633852632972,-3.909031044563413,-2.732225586779208,-1.3765422232167452,-5.976952250329212,-11.373993408084164,-8.335970429195733,-2.185701815615884,2.934336017436756,8.304486294377945,4.107384238404206,-10.80642545559306,-16.160083958108416,-6.733524069261,0.04361641200781108,0.5613588511176815,4.6564454347351845,7.320143473073913,-0.3265885193334874,-7.952826807649508,-6.5704116194886755,-6.6876207642612435,-12.008777986548775,-13.8023678619238,-16.47601862418324,-25.26625102998936,-27.675166455870674,-14.536035356633302,7.47867687093428,22.606454984369325,19.1611172684374,10.3677630357267,12.82946342327604,12.497635152660495,0.2841727198035606,-6.936611909546087,-10.876443545475151,-24.40232816265708,-34.296399814518146,-34.778521796221305,-42.419803927507424,-54.85781882613238,-65.49758019486259,-85.37478385842687,-102.73582063621075,-110.67272321001839,-156.63137589192345,-220.26897983134245,-113.84345559033517,297.328072747523,766.8543388191456,781.8974139370174,235.72951372788486,-278.65349313782986,-290.9277497580908,-109.67960377316933,-119.55749725875776,-167.78038962989206,-103.76528646716149,-67.85990404011554,-78.97822243969065,-44.66318529054841,-13.091993916156227,-22.585462550123914,-19.440426450833442,-3.118270725495673,-2.2385644839695296,-3.8179154412823024,-1.5165229799690447,-3.896469767099358,-8.60181373937165,-12.99823287818962,-15.119787536544903,-12.467143647803137,-9.279893397335423,-6.649991953653104,0.9315116292281825,13.853309475343774,27.696635692151588,40.13773416426056,51.69376280329101,63.05434881998764,69.21434818333881,60.79497433037515,35.46605597330683,0.8576712714949606,-30.731611275983035,-48.04251009096707,-52.197018432223274,-53.977786840348315,-52.89647461444462,-41.810403638395506,-26.843491547575017,-16.8736640280761,-11.688247811344384,-10.419504809084085,-9.103236807581808,-2.0433253514153886,5.445006809153908,8.453976766197052,10.432349891861957,6.598556084861359,-6.670738539549207,-15.299769572361145,-10.94646554838311,-4.2293630389907815,-3.7344860138989073,-7.860111449255411,-11.357373933541535,-9.948180732764431,-5.58666182564264,-2.0640598029279875,0.7550565635889548,2.1055638605033344,0.9645102377788213,-1.2580180945576345,-3.417029497040768,-3.339067791952811,-1.9191522769626808,-4.605953020295281,-8.299732282746689,-7.579984559722604,-8.974072540364608,-13.18468447283944,-10.909345895345206,-6.666530194258129,-8.954680598075214,-12.01098873988366,-10.942468718525483,-3.793439317477394,13.757741329061485,30.23193773704968,29.82149929672159,22.618318612231846,21.217173764978796,15.462755934491241,0.6840330220536863,-11.615360950284964,-19.78908297592806,-28.785960334253076,-32.44944518450127,-31.20324805680198,-40.347608471430526,-56.96132864072928,-64.72052206840993,-73.55042248437023,-89.6592884299202,-97.92163750806637,-128.99916200457827,-205.38362157239305,-193.33282649357898,92.57981354548957,572.4774459385912,817.9899700685846,494.74479316766497,-90.44246093464693,-318.40157807405194,-167.48672207661198,-92.00980379813863,-152.13693496214745,-123.36482058279739,-64.0758541711811,-76.51714915719285,-65.24474297517588,-19.66094809664993,-11.217079967415039,-7.2230825421481555,9.229914460124157,-1.8934673203280994,-19.091797506403186,-14.496810098720033,-12.91116535976392,-19.693456698783457,-19.769970878470787,-20.891270402754877,-25.48604125819969,-20.18450870325424,-8.095150398480744,-0.36807377877982894,7.573507639092597,20.375619000479144,32.52054805610972,44.09673325901416,57.296622241878644,66.2759470425454,66.64031994947932,53.830275511772165,20.683521310710233,-21.449996155990004,-46.182215914678245,-47.15133255802452,-42.12770324667669,-45.348857240920005,-51.961872776827505,-47.775891395561985,-32.989478574486455,-22.6859456609902,-17.772135194825097,-7.672713087447487,0.20226067476535903,-2.4952668409959813,-1.9540011383459834,4.638399707992562,1.6731317559140262,-3.9827010105050604,0.39611637147719847,-2.0072067187034435,-17.05613167951568,-20.3118581710414,-9.347016303833971,-5.164504379389051,-6.567341151211384,-2.349573606234584,-0.26412749801435353,-8.016496408286898,-15.158459320389913,-10.68122694153757,-0.589700830854694,2.61773438191679,-1.3805800061035605,-5.220518040333836,-6.997165162949695,-5.864676222520854,0.3090654845847691,6.187829114110554,5.165104716219474,-0.031618717682146524,-5.330299419911251,-9.59942857226904,-9.06277886139983,-3.936770320195434,-1.4232248820607687,-3.3758116953762585,-4.599331172523627,-1.3210736558260887,5.008585153007125,8.240052785611862,8.195848241284775,11.111325450521097,9.440873170910098,-6.194884119767469,-19.195319636899672,-16.2567693045567,-13.242576436416282,-20.489024605473354,-33.9106616358102,-53.05998156954661,-66.3073904154271,-67.35435819500586,-76.9452265086715,-92.25234933485575,-100.50596856037751,-144.70310001547566,-216.3909955198341,-138.3093662289525,245.96812706734607,738.8574127756744,820.4821258238333,292.1342154718436,-279.91312839905316,-323.811183743701,-108.76394273767954,-100.35600546936996,-164.14008203351264,-96.32535141117982,-49.65993313581559,-75.11607867692467,-55.89600154693939,-23.028223862524225,-27.244754366978267,-18.713063178876176,-0.6154491867692382,-4.677025399656895,-8.86273086005734,-6.914674723371327,-11.955242435070994,-12.832082744906327,-8.867721301138607,-13.085003981444409,-17.514369956518642,-12.934147539116955,-7.115151145202201,0.3965844647038388,18.372241397410196,38.808950614431325,49.657613250383626,57.220047046785346,69.29469087892889,80.24081877392764,80.310020812539,58.85718178491774,14.714192198522316,-29.53988438084437,-52.3577377495536,-58.68848408442501,-58.254584477217065,-50.004153414724975,-37.24786373208657,-27.566857179390386,-23.019450291629447,-23.6555693660244,-25.1944907345483,-18.747128655797688,-7.721477647901562,-5.885896811118176,-11.74310872530124,-11.924954923221163,-7.711576398184707,-7.728811721834802,-6.644545593596996,-0.5771634550876925,-0.0999242394677502,-6.431555412207324,-6.721110483377484,0.9354033131161907,7.483098325949798,7.249157726579897,-1.083905026509683,-9.890544323893293,-7.446850902292308,1.9889431742006352,4.985859260181424,1.02016014226135,-3.27051159527067,-5.985690605010745,-5.745255184157145,-2.7598113110622817,-2.52627265706745,-5.536629938424557,-5.581999100473377,-5.243234445235418,-10.730093753818844,-15.565637995933688,-14.393987414980577,-9.171025717584856,6.468426265462658,27.117573281981137,27.99350349457695,14.226615379026319,13.054373019451509,14.759711729550958,-0.3043095631303725,-14.82537183571475,-14.567399218100977,-15.24755155785487,-23.96746070023068,-31.57717778728169,-39.5763291808985,-50.09894985482246,-56.91861582783851,-67.83528683672411,-84.7967541288049,-91.44719026314748,-117.96663845942265,-197.1465829734768,-203.948459375605,67.34911377271104,567.8163498314309,861.4249638769604,558.4642580959437,-67.17272336224957,-342.1742804526354,-184.92693193172707,-87.36763734817433,-158.71518314863124,-143.1174912652648,-74.98413836043605,-83.84428824498548,-78.23269646657828,-32.77357337824232,-27.08083811128868,-28.20368887676999,-3.8857903643814407,0.4346651146344058,-9.646591122239954,-5.4766280749978264,-4.786043792205888,-14.270239544603843,-17.969683623574692,-15.857527845174673,-12.956957791719717,-7.567678061293817,-3.096198813313646,-3.0804969517097014,1.827669625410298,19.660181392695634,40.112963488074506,53.900347185281916,65.52788967295963,73.6821777473132,70.92613286389667,55.789489629124,27.333117913281452,-8.021632706233415,-34.69250525389444,-51.45033255600019,-64.13877139266341,-64.29129359691964,-50.868586360715184,-37.96427783564062,-26.353470530571975,-13.451407345761545,-12.166781094812269,-19.96306074391964,-15.413022850806623,-2.135127108397242,1.0392586205637553,-1.498031804123137,-2.0019931106368247,-6.022774863717437,-8.310268754448233,-2.6513787071661863,-0.5992568289167473,-3.5908555197029255,-0.15198936538431695,2.3358335066788776,-4.907409437294568,-8.076660674019422,-1.918164900351801,0.6376785114303631,-0.49205425100028677,0.981479091983056,-0.25348057024835313,-2.214428597933871,2.947509134560378,6.988599016257765,3.437210179892377,0.07274624614015934,-3.34523101163599,-7.953337545950893,-4.681402838710893,-1.0419536881553402,-10.349143088680583,-17.746076776300107,-12.173226463143365,-9.768934766159514,-13.055770796023104,-9.149730875362312,-3.0140959155633453,-1.2449762989497373,1.4052100128261156,0.84915533790371,-8.251804735362049,-17.277559490800684,-21.12572434380936,-18.963076188826605,-3.1195619753567323,18.87416864034485,22.65813801269117,10.582568580698993,9.104696017511925,16.37229433849244,9.545007441259429,-5.266963328064767,-9.342479360437881,-10.778016510449046,-18.241376087141575,-22.587639036024807,-28.434780548084216,-46.37413289171785,-70.04464411393826,-94.53090509023792,-109.91088953187342,-110.61053916829725,-142.44174788728216,-212.31889234586464,-161.454794410805,177.10253368368302,656.4339998104871,809.9410242761993,391.41883333143505,-166.0404733218871,-298.50438359680044,-137.4507234296685,-111.47511004699925,-170.24992043790806,-119.10311387087572,-65.43617077036171,-75.24024842543898,-55.895136646357486,-25.73659053488418,-29.046696814192046,-19.86138401213292,0.5773297297944442,-1.6820134087677587,-6.227778889257966,-2.037211251654732,-5.304740469978178,-10.36384732173675,-6.953007895074709,-3.143953994650623,-6.5481258363553785,-10.530497163461629,-8.271366320187546,-4.370184190852177,4.385115058919521,24.996436973881607,39.465865839227135,36.82973672227379,41.18755351109206,58.51101957871853,61.82013870809764,41.99836759133782,11.001047229560609,-20.551393837315146,-41.84775971679712,-50.24953807385484,-52.51476530407541,-49.642561523097925,-41.803879746635005,-32.877241985170926,-23.966321407438137,-18.2369863885012,-16.447648427578798,-11.136647195637314,-3.7158410123331933,-1.9887863579264824,-0.7076963248620682,3.641801760871136,2.440604506668345,-2.5078572478333125,-2.316322814054974,-2.1134862346922283,-6.957154353909816,-9.61930130517529,-8.759305654761704,-10.730039273464964,-13.127451947798834,-10.121098609466403,-5.061157770446162,-2.9584094786463027,-2.5311788037459095,-3.3040270223121873,-6.120708010785062,-5.606475919672249,