ECG,12.25482144888268,31.953957985533066,34.01753835573646,10.426686450085029,-26.642885873834054,-60.044565205817634,-85.11066396909852,-102.35205548863566,-111.37865369182357,-111.11837367535139,-99.5494752121697,-81.34505909097199,-64.4259352202828,-48.29042908396999,-32.83897203376983,-21.941012971079864,-11.551045748632063,0.9343252766420491,8.349061631580238,10.345966363118496,13.065400930665405,14.657450416882721,12.465487897196354,9.91584394839983,8.486855626129937,7.014478810284839,5.733618002745648,3.943083871041976,-0.10720069746049354,-4.103692204055056,-3.3375815186883653,-0.8263387128990693,-3.570163175077081,-7.6566003271204615,-6.547756102943113,-4.3953469407208505,-3.514907384838855,-2.447540234489754,-7.1812068081541565,-16.582642786541413,-17.88406714720174,-9.625296900597927,0.590750546410471,6.745147064972445,-3.499350358773592,-30.198235683421487,-46.373116065438154,-42.4295830925914,-41.13499763546944,-44.976343130710966,-39.25557286708215,-33.617290740090446,-28.57145118253679,5.56084465400194,128.3866367421319,438.62381397092514,785.5342376389558,571.6560992104066,-374.502998366246,-1074.4520065886013,-737.369207116116,-56.79243931005398,93.96991582061627,-15.615364699922644,46.21260448146879,100.20838458008724,49.89731580887393,51.45328719736155,71.97908032305497,39.4344767426647,22.211622429896423,28.367128097613328,14.362512727878817,-0.47014069888794996,-5.451694039203842,-14.200930102925984,-16.51949350250619,-9.615800855189562,-3.664318282969365,7.405430989019791,25.993631769674437,39.4165559851906,47.28167198270448,62.10953761288303,83.63200513174672,100.82749281624172,111.10800867900062,117.5829115165908,118.66864083442869,108.73471075539949,80.1140013752017,31.746337828234715,-22.080871562821873,-65.72509034223816,-96.36224800222205,-114.46349978475523,-117.7518031619961,-109.85489256143708,-98.39527996736106,-83.7618478557703,-63.792054824090016,-44.70722767607239,-31.34136827049549,-18.621087192352853,-6.9063752690712334,-2.982172398395484,-1.8049570973739222,4.55725457616148,10.69553103283365,11.158215903406788,9.358513396237297,7.443606856532539,4.915267825174176,3.130472977032806,3.3329139171586206,3.325046453126445,-0.6534266330502856,-6.224755900773712,-6.780117403550632,-2.9199167037403715,0.24295815522312658,0.80462305233557,-1.3602243643451253,-2.77077400255574,-0.792875014234685,-1.7793007773398113,-8.497403241317773,-14.634231838129061,-18.171891674399667,-15.79957975638564,-2.386331102875509,6.376738112025563,-9.87609522678738,-36.470915477103986,-45.34965012105452,-42.22992183164053,-46.37778311905445,-49.34666685404187,-41.80847467108261,-35.461396831500444,-25.41126862062748,20.400648242832332,187.886385339638,556.1067325908889,814.1768514246367,343.33051271784586,-671.9799473492178,-1079.1455922237017,-511.7107157819121,52.153066883986256,62.141006236733816,-3.0298535465862813,85.34713324261125,93.15295819986062,46.901184612246176,66.37029361033402,70.59617784124545,38.63365794576055,24.0192093050471,7.635039752523452,-11.444935843359161,-11.931131725597922,-13.928407216095682,-20.178479677682756,-16.925692719165422,-12.242881567605624,-4.69449678275058,11.023879327746922,26.751094591141044,44.75315509520807,66.67884253890146,82.84667806220925,96.5881425918131,111.92660992531798,118.14826706720933,116.38663136672366,114.56960978192824,99.55737267697518,61.40542646365497,16.021554601981776,-24.41917720083621,-61.948421314265325,-91.70601847619275,-108.55796909400443,-114.84781908055221,-107.09990615685457,-87.65444390607425,-72.2930727822151,-61.729029409721065,-45.395673989355124,-28.62458780027854,-15.485503233377539,-0.6697892799412699,6.242914815015286,-1.9731868872708027,-7.2921261694984665,1.1277708621135183,10.066246153478762,11.300625122910752,10.741719410168537,10.607901793840355,5.681824223174857,-2.751159703548156,-4.890077389687809,-2.6360507838657252,-8.268548638205417,-15.704501538194421,-10.820842746401052,-2.591885407214809,-3.633876908072965,-6.576770450136774,-5.083783759103216,-5.071864416112369,-10.635911823168318,-18.559835806349398,-20.49893854214009,-12.20147413318028,-0.06101686154576935,9.65369228583372,9.335695121717407,-11.490233830231068,-37.456992145553684,-41.25081294459386,-34.08157519847135,-34.437324324663564,-29.05290408018873,-15.674653095769457,-3.6252067808362014,13.804472232308541,73.44064435789369,307.3677693390795,704.4256836500998,709.5156102312515,-121.17391398006836,-1041.2635125897789,-990.5904399180273,-282.2476818088791,82.29833433127604,42.25579405728733,57.31790587309244,116.21212199047551,84.93266024634244,62.616787328116956,76.20072337300172,63.264768412679906,39.55818815154512,24.82901250535071,11.961052627326568,4.005166933092717,-5.725050011641375,-15.636506362784147,-15.680568466399626,-15.206358009813659,-13.032728390469906,1.2543017764854554,18.0817422745991,37.531375931177706,68.20321553087152,93.14086192782949,102.00921228492786,110.44383131700951,120.39777590017033,122.25877955078403,121.40506961099143,117.33511914614175,92.22446551772231,42.567995726051606,-12.576975901938614,-58.22824250056006,-91.00224825720153,-108.47494263019175,-113.01863999203849,-112.67800102271988,-105.6934363525821,-85.55500217050226,-62.177539084564586,-49.06785596767657,-39.99495011114248,-25.105435856333138,-10.308702376713129,-4.655670821447497,-6.153233794281711,-4.331540709697709,5.279083749233958,12.516069657796493,11.738613869985684,10.79710909522218,8.811349265986165,2.6806071007248935,4.437739650037479,12.407814435390751,7.208100832937907,-5.407448777329991,-5.425632313835424,1.8600845547762184,4.936693132414048,6.309380214116539,2.2865101294609165,-11.049762902117878,-19.21139856651729,-16.741729149336834,-19.572039383675374,-26.46969017024896,-21.176063856646202,-10.003398118012147,-4.641107565202759,-3.9623063434015755,-14.690804107205967,-32.98687672814128,-36.698438581811985,-31.646029767674218,-31.481506920322,-22.111100544258996,-8.25068271482857,0.7245274920032863,37.93516748057666,146.78004440446446,380.8319490972117,644.9465305254652,475.2307619351813,-351.81206138544195,-1059.0559025678187,-827.8183918819733,-134.3136404732041,133.2678849260352,55.33674604961771,73.13019799918007,124.16199910084207,86.32169966870852,68.23193910669437,78.05793810243424,53.612488799780564,30.077684826445893,22.382979207058945,5.0928100397756975,-8.582600853757441,-11.969304262399142,-17.804843688721345,-19.367997945264555,-13.924464776983738,-9.844486050472248,-0.6342626140458663,20.45541932038038,44.8618316555048,66.03328477804386,84.97406340746647,100.01732922246369,109.61373933480866,116.67415469224815,120.52862547911387,115.3764270612138,97.36575858678053,64.44400442032824,19.518840230898714,-24.106798963460882,-56.72775885602125,-81.97711337236473,-100.54366577174196,-105.94952527961055,-99.05505462738783,-85.75500086090376,-70.02270708560779,-56.75458295478506,-45.66330124766038,-31.157532860991346,-14.853214723931366,-0.2167531320441114,11.97556647175146,12.24519290126451,-2.075822409705431,-10.436507205717096,-2.7722323563289404,3.227483387180621,-0.7877389836135134,-3.512414030671845,-2.3684144096554824,-3.3291441169688127,-3.587291833138714,0.06966880865661551,0.8200957329820273,-4.80810462653994,-8.728485762175904,-6.757532948221147,-4.4829306361951495,-3.7028757065341313,-2.7183372884416546,-3.732897033515645,-5.415859849004596,-2.8838128679171637,2.8991647179259825,7.609920739513456,6.935559606813242,-1.5243509253063703,-13.286642419697152,-23.042925297244683,-27.094705585137476,-19.1605754209485,-4.674020892489326,-0.3705169612312167,-8.682864328612895,-22.450077830730216,-36.42422999875249,-40.247987098563385,-36.13176273329367,-36.746778252944914,-34.782458991769644,-26.497518881881483,-16.485971054630305,23.564096621343197,143.67955541914552,397.47128536543124,682.9590692743557,536.5673390358204,-286.27426975829883,-1021.8685848104209,-815.0628234351578,-131.87709316303048,109.52299122504441,13.036332589101377,49.96423756966419,117.80580195263408,73.49621040051693,57.552958532427105,79.44568926976153,58.77106806902786,37.58524280080732,31.875372773961402,9.013571422419583,-8.849786723329455,-10.276638108155115,-16.175309701566345,-20.17983230635818,-14.046834063733408,-7.876544079064942,-0.673599316522214,14.268337136877214,34.521087514690876,56.75814806136081,78.01073146384863,93.21550166194353,101.08761605717145,105.15114447820044,109.68219926041299,115.76949316988363,112.38970824478166,81.1923147234675,26.32062956718012,-23.065255690526,-53.42631703650878,-75.49335266949697,-92.70241228985594,-99.78761433109398,-98.9021149277429,-90.78758439144113,-72.64679115438001,-51.56739018917943,-38.08570395455808,-33.084284794518126,-31.4163417564442,-26.943832002196448,-16.133041484060108,-4.119183498814941,1.6579634423953564,2.391538916833312,3.283808287653212,5.176021648685694,6.075671333872949,5.490124653111998,5.22277613692375,5.232803874090121,2.8810417249525333,0.19071435726116448,0.6758706913474182,0.13803666280518634,-3.944170607962901,-6.479306592484399,-7.403117060296216,-9.128657524473333,-7.5953994873272475,-3.7021517667869563,-3.9570125851640494,-6.365252831472157,-6.066137026209786,-3.870499273924371,-1.153351873429644,-0.03939769005583926,-2.0671270576257363,-2.9064431389660434,-0.047239594881448355,1.8668549537297743,-1.6071086681785935,-10.575435211583176,-19.583249297190033,-20.96435423868345,-14.503363927778755,-4.861877070137767,3.9883230805036973,1.6383734872947562,-18.740655851959996,-39.693440264887414,-43.20553653476577,-41.671475268284645,-45.33637059645866,-41.81187719609997,-34.72471221632055,-29.119903626582186,5.297981836717547,119.0777834734821,393.1881382693091,749.0445629842956,665.6070440324123,-191.6510305167962,-1035.10818421207,-887.9927784299357,-177.99724509972518,99.57726055512786,4.878850944871061,38.327882632638726,111.99668279008644,71.73774585278622,59.16091896231465,85.29037557596362,63.55905038503719,37.21302584558386,29.873895334143096,12.885530237374065,-0.8261340417906435,-12.239516296533495,-29.90187296657993,-29.890432827123984,-17.607282938409078,-14.66678557641582,-6.103328225242748,12.744897639016713,25.916105563689662,42.43006095932353,70.11373217320826,90.69609671918064,97.20504334888508,101.40710307824436,108.29417222243967,113.90483185151254,110.86021574970232,91.08953264622,53.551569884733,7.2190057146047035,-34.16416941400348,-64.30051726664385,-88.08575328102015,-105.95824773236603,-110.63466461655031,-102.04969981080711,-87.09496343372783,-71.75309988835707,-59.16661576470946,-46.72751630359858,-33.41057063568443,-23.903177182753545,-15.296602668265038,-2.913516449356326,5.353040543959807,6.157690453515741,8.138588474068543,11.771206351468503,12.034391807117249,11.275915074554913,10.339682282270868,7.327785529947568,5.614779751457418,5.8643516483446705,2.976755231921125,-2.2001215223061923,-4.585311582608552,-5.395180074595984,-7.497341846560549,-8.994149746695278,-8.759415962731609,-7.691535551144595,-5.7559936031481955,-5.504343434359352,-8.03596236457038,-6.783682111195084,-0.14966356666931713,3.4867191781901123,2.7664934709235265,2.9413412499533447,2.816490706645002,2.541375681846729,6.6032828201491665,10.67848106115258,6.427659967180597,-6.819468854221332,-24.451731733357484,-35.34869856762448,-28.524060229110884,-13.603137657910096,-7.123551562831845,-3.5406684168726503,-0.2470476843344862,-17.018804932213104,-46.032406463117795,-51.948837082262756,-44.606564159655164,-51.42856279764251,-53.73533343830847,-43.751121392343755,-36.867279559015,-10.763872954542549,81.7145780390521,347.88127909932496,791.7598108219152,876.5758875211225,54.36045770546863,-999.7562651754256,-1082.6608726387954,-376.97346135896976,40.67971487664046,21.1966289915258,41.92214849206486,106.08250749713307,73.85524685412027,55.2615997511093,71.0646009918664,52.62930870153029,37.060354719264,38.760169922850224,20.24850444633137,-2.1848972766612764,-7.069017496327947,-6.942807143301165,-6.569559769499875,-6.155043729440948,-7.9146492494701945,-4.684007158927837,6.489084988740643,22.288867221015686,44.35680122614643,68.57483741394658,84.67458191140446,94.35130160598041,104.03817096878691,110.996020097856,113.753394807418,113.0583180517995,100.84321148111724,69.30423069918183,23.022638918660366,-22.82453407190833,-53.70947770404316,-73.5667363582672,-96.3311760592269,-115.87039607248742,-115.126882482163,-96.43084128148976,-77.00645783960995,-67.3764152452319,-61.0398262420339,-46.45844229729505,-29.538699767494716,-19.268827489090185,-7.017821065942989,7.250659386406493,10.952146958956348,10.42136667219589,15.491305910407027,20.83526912696314,24.854682497910346,21.789986265913676,3.999328806383728,-8.099365489532143,-1.3842573463253096,0.5790210634660724,-6.84557840986243,-6.091749153805871,-6.7535910883228745,-15.383100782731766,-12.7239918947432,-2.0256321065476275,-3.439500483958428,-9.859128866361063,-7.365018199003572,-3.8143822809670453,-7.441802769161756,-10.225210646249602,-6.20152591531512,-4.010600771097401,-8.202594314316494,-9.763578868797936,-7.125161261300338,-7.359299819480677,-6.858994532956599,-1.2483052139078339,2.141706042975761,0.5049933301856075,0.6964282638514572,2.765579505965982,-2.954145725244098,-17.163888066595078,-22.722046576911445,-10.099035201737541,5.470183507115832,8.939733421495173,-2.308888698312477,-25.409932012599292,-42.17467860046018,-40.95681608471817,-39.943492466632904,-41.818002290882696,-33.50501395275401,-29.064520247707968,-21.897760273808057,30.255250472627452,185.40070349215642,525.4481919499477,848.1180787878612,531.9218237570224,-486.8895973516603,-1152.2372862223363,-784.5795261917175,-126.00213653216392,63.217292548757044,25.994308134320825,72.97690568384029,89.17190022264973,62.107292337140606,77.6381947926645,77.58149424764638,46.13819068263292,37.24711684241289,30.091159596785428,7.189637388523833,-6.325635060150691,-14.256514398405077,-21.078101068596048,-16.5141810910721,-10.053961251822603,-5.669688879643118,4.689824312718571,14.795265025209702,25.701753375352105,49.3700372301536,77.49040191929981,97.15916003147457,112.07949035618816,122.86019240335798,123.8099059907395,117.41168570767258,106.56361960493338,85.40889482931783,47.967521015389295,-0.38440990812176956,-44.71793403395829,-75.97171337868016,-96.04063955957534,-107.29801054578469,-109.47577417636234,-103.08503550236193,-90.60454291878726,-76.25470506914351,-61.338255967287616,-46.407842821289286,-35.719040406195276,-26.737211790799766,-13.497922830730928,-2.6709025168899956,1.290009588207326,6.009766373918868,10.508569256106314,10.413704448167927,11.987843715268777,14.948211247363465,13.273118865539729,11.322617695162851,11.329500302291617,8.802047844087786,5.808524846899828,4.983425954127046,3.049427900983753,-1.9243705889685758,-8.232906649799268,-11.149417826474059,-8.120368269618204,-4.374177718018495,-4.019288932405448,-4.840618384694601,-3.9635474764360037,-0.2496163084523504,0.5423955860068101,-7.628979378959047,-13.92889448637018,-8.867906668957598,-4.763593885287229,-7.793626296955059,-6.70147494447664,-0.8233129202391423,1.018270924077103,-1.0796288375894694,-2.291386589159214,-0.4404563662666785,-0.677362054721149,-9.510444494057834,-16.500860180801954,-9.290181937251111,1.9072706849244836,7.489402556441418,8.90173090156824,-4.3270390044751235,-30.438142280158278,-39.44377138624683,-30.899061433326736,-31.877032590916027,-32.65757614023814,-21.020874151946312,-13.729075251642971,9.974357664199289,107.98816454437382,334.339087922356,632.4892303584649,601.7612173100347,-123.87100624716913,-972.0412139747601,-953.7192377682079,-259.5823035497207,111.19962314212263,36.273294081989974,35.446338983416275,117.10737234403611,87.70003291733752,60.66778426357469,83.86799388524733,65.0793346987194,34.845454357418944,30.13970517688443,13.266903509167545,-5.023030166864251,-6.321094529821993,-13.501397899370547,-24.278306499082106,-23.43503556204118,-17.30363409093608,-6.687833500062851,10.805440414234504,26.95457434102888,41.11206055626976,60.85233307361005,85.4580881292134,106.51483523419003,118.03549885420068,122.02692343147214,122.79664495792233,117.87753677962417,101.64505603476539,70.31818124429246,21.706114864377078,-35.14387892835619,-78.803349915388,-99.42269455127467,-106.13766666752105,-105.48789904573636,-97.57310298339249,-86.89972494568522,-74.9646915021238,-58.64974994165359,-42.402529270153835,-30.72274094248448,-20.586644420525083,-13.340928560840371,-10.275323454470843,-4.422793924761066,4.225257015213678,9.389534037483998,12.3263029102086,13.817482478659741,13.156902328559545,13.482272026469893,11.977754012862357,8.785283350980185,11.056135354378442,7.943741508593467,-9.662737213026011,-18.87466378972392,-9.765628059106458,-4.822389521186375,-7.999706724870114,-6.582542912606056,-5.560923312738327,-8.004204829163157,-5.527831871751716,-1.9300883127327833,-5.179518750122552,-9.907320142563002,-9.569314917618968,-6.528617043905131,-3.5907681189905576,0.12910395285144727,2.2777376228212276,-0.6500539478683596,-3.439261991994073,-0.6907363822851149,2.587065563474921,2.4825615362130193,0.27060997985744883,-4.694358481843199,-8.635617591005332,-5.508588071941114,0.060271436148709334,0.2781322349737323,-4.248397012015911,-8.946574718303005,-12.435635196238668,-17.408176472004058,-20.787264717154983,-13.120896733803086,0.7474616335904365,6.672946473070681,4.4990774191342755,-5.795724095745371,-26.541117483512124,-38.48905116846868,-34.678433619934665,-40.91188598556276,-51.203819071202396,-38.58587159879961,-22.732368343689977,-10.551660726080073,49.70533803389843,222.49284978637954,537.3281222215454,744.73274259637,317.2978568571148,-641.0245923255812,-1088.5827009535303,-576.0849697617194,18.090373213729862,73.47900504661155,6.14976535414354,92.28046701615777,111.54208172141664,59.835506619880945,69.77623153720168,73.3137194924314,39.3232912717375,30.964199641263313,26.02401024060696,0.05196747806676161,-12.320126479084298,-11.192029225831565,-16.467463977262057,-20.538873662378577,-17.52433334877478,-12.03963488390464,-3.8934834356898236,11.074552719422037,34.073484532045136,57.52978089355301,75.65992198976706,93.3937904582015,110.41626092997467,120.52852777973942,125.67503175569738,123.01286266538838,102.10431131805608,68.89806014007769,36.629398543733714,2.4635449778801704,-35.72973924421619,-67.53693404353841,-88.70994053068645,-100.87612075360741,-100.80729582734442,-91.24677351046748,-81.3053008814033,-71.21228931073793,-57.91423197730414,-45.24284834974917,-34.63571749995995,-22.808440760882633,-11.827083874936886,-5.6971428849726955,-1.7334323531155356,4.1160447410212395,10.52685818050124,14.684397290267743,16.83291174850121,16.769388982347742,11.005514914784033,1.1783004623939703,-2.7373109835549334,0.7457631893897325,0.6144081924587947,-3.9635465832046943,-3.215783064850328,0.33843984241148917,-0.9209679734686933,-2.533783687097392,-0.9486869672096088,-0.6819308340455414,-1.7429200069291078,-1.9492142264844272,-3.207021279953185,-5.065238166607925,-6.215665388967251,-9.310731880109461,-14.492143179014441,-17.151304059170418,-14.974749917852106,-10.857358981466147,-8.452840533045524,-7.8776206710121475,-7.813923453639832,-7.0911826990331,-3.9435041550344483,-1.3004111929592526,-3.683680667031341,-6.089375018682768,-4.026653906287208,-2.643361768631828,-2.1594219493611497,0.588088345170668,1.531804128420946,0.5782467294201208,-0.9858125787682983,-9.135438481796701,-18.09272870036122,-13.767220154696366,-0.48677251321606185,9.692227824130072,11.886302308175454,0.1347193334805974,-21.417668217003996,-34.81649896012204,-39.09206798706953,-45.851968442853234,-46.41718426775747,-36.398410967501036,-33.49729304282757,-25.04100243258977,33.395700175285285,199.67360315304887,526.6078393264038,775.4626439756594,380.2224169481408,-601.8006898151061,-1106.289302485025,-611.7254558625409,9.671542142916781,77.71012556064035,-1.0226205845034784,84.35566790323195,111.73130680951725,62.928987028519956,74.67579418684997,74.7549684355585,32.41069103425853,24.346938032809888,25.325141352934907,2.4844208879615692,-7.630914934638858,-8.654710056887266,-19.122236090566375,-22.517837158124067,-18.202656413545544,-13.797601577977524,-1.7713124099329498,14.078065436447616,29.514855377116348,51.990178803590155,75.45464894003011,89.95259873297617,100.92658042544201,110.74126620610457,113.35433923016888,108.86621081107887,100.18977811850628,84.57027648852781,55.6476307486592,12.91897453789484,-30.944278808244114,-62.86897673488717,-83.69062219675332,-96.90255931070837,-99.74444108260266,-93.24910049559784,-82.79131788405158,-69.69400636916782,-53.89947378719853,-38.172470787909646,-25.848795083355405,-18.99511018918674,-15.803240577687,-10.523029429340514,-1.5823538336176348,6.019873071004795,9.901208196523775,12.609169665061483,15.429908616621113,18.26961527475511,21.106630917310387,22.041008766336226,18.6101834471171,9.28578738644713,-5.119769590552247,-17.528297570900534,-20.30880701552637,-15.738333899606415,-11.615439406175904,-11.803021690981794,-14.525379576152922,-14.196297803409207,-9.199968031889687,-5.252243539295204,-4.643161221137889,-4.586734356505563,-5.056851422400889,-4.579209600999292,-0.9616301085949885,-0.11313021184960093,-6.569639448649582,-13.596022316827161,-14.366292523282777,-10.83977529289046,-8.276086094871895,-6.71172357539824,-2.474657953805469,0.7295995864116502,-1.6215959480623159,-1.25850563831571,5.228684784696725,6.322247113574688,-0.13575836776391625,-7.245888193762841,-16.05286639052769,-21.79401253725412,-12.974695187167676,4.861575694156308,13.651445987734546,1.5289914933334137,-27.609012521764754,-48.012185756182994,-41.784729459017974,-30.73951693539011,-34.20534500086535,-37.9750150333363,-35.93281045072912,-26.35581382366479,15.007031831219045,129.44966427609694,403.1442442397964,756.2387466453903,645.9305073736839,-249.22399196470775,-1085.7015914003782,-887.9923926450031,-152.36674841691308,110.30680262720766,7.13756753086281,46.68544950828078,117.36048626350342,71.88187657497183,61.38605075059018,85.02843010579844,59.89748077986013,41.114299308114205,36.924717799749544,6.662195779237541,-13.701055599159751,-12.04230123217094,-20.309221905520815,-24.919634848803128,-13.631627159078368,-6.543480292002634,-0.2395715842500934,15.577993185549857,30.66259790698613,48.338540781040564,77.16068631742459,100.66135317544197,106.3700455318099,105.13888729396169,106.5664681412473,111.08484617567657,112.53656845953648,96.68099900496081,58.26901530109134,8.517193650267599,-38.52790040187987,-69.51324297104993,-81.3148789081969,-89.41320954745831,-99.71178653088695,-99.07657026277933,-87.90582744967274,-76.36307879929201,-61.50765060378154,-45.924727479877454,-39.21950762965025,-32.1113716718538,-16.326349478726684,-4.440825790225269,1.4287853883751716,11.702236987867108,18.456360976597423,13.255402431255888,9.150766133309439,11.476845923344932,8.897175291596387,2.143899160747372,0.7394515648065383,1.7098152982359878,-0.9406579618348694,-3.457762906294544,-2.5293341536341636,-3.213881764463885,-8.90281898552757,-13.062850127343093,-10.07251561389724,-5.304403652434052,-4.792483676641865,-6.719943180948011,-8.109051255199267,-8.33293862786374,-7.034395443592844,-4.320916215011042,-1.3464231952536352,-0.73530339120021,-3.320585034712611,-5.324527320260787,-5.1496108035556425,-5.615864040128541,-6.048093261622412,-4.844680037642053,-7.421813944723997,-17.192715417535304,-23.560760180645595,-14.443876579058372,3.8477302614666513,15.343891075029616,11.95210387235796,-7.914630320051861,-32.62982937408955,-39.97788244915593,-35.5215225130652,-39.70408661227387,-38.35837861774267,-23.05693588219617,-13.488278785152382,4.591006783780621,60.409280039977844,218.29131289048314,578.8814468175,853.2081651735282,360.4909451058753,-758.292637716717,-1261.3382274063363,-676.1423137780275,-8.544053895789826,81.6798512606457,30.106625494703586,110.51786870389873,119.88897864262452,70.37387101369933,80.69006920443184,82.29978265645016,51.61915179469089,41.33895113128041,29.972059082643852,4.796955362183734,-7.480163901352297,-14.019642816007982,-21.853801080647834,-21.215927682362675,-18.544612902650833,-14.029326229247495,1.6846656675992904,21.838605184794645,41.267681058357475,64.58342079610809,88.08359588214302,106.6375037829019,120.04514006660648,126.21371717599212,127.38537302083006,127.47615329830153,120.4986272403556,98.25169212756165,58.394699409281046,5.881397291644049,-43.488368882861366,-77.39019845688473,-99.05749622670656,-111.80612519479155,-114.82965407258362,-111.39644900622267,-100.5533269293979,-80.93291279397967,-62.173684566650266,-49.20968527524042,-35.53125197989233,-20.24238352940771,-8.274487637473776,-1.3297891197191518,2.4188344848966175,8.035336547950404,16.209256405011864,20.542501194226833,19.531874625518117,15.94057997192443,10.890701793031004,7.158092704430458,3.6699332385659806,-0.7205423758837153,1.8247835463600648,6.0962713197154175,-4.098959296196831,-16.28768296618305,-11.147519614527976,-3.8386063982808736,-8.719589320309765,-15.947239918293846,-21.122180033879435,-22.494351054057105,-14.502423041816744,-7.280067824827331,-8.878895726269139,-9.591503828273595,-8.182328413047813,-9.147384060526072,-8.69430512947113,-12.073037541896335,-21.473553320471353,-19.430017951522967,-4.733117422655361,4.337697996967176,7.493403761584999,3.553504600127681,-21.57002820299786,-49.508005225320694,-50.57773277074974,-39.17800931112913,-33.20249127877521,-26.22767938379656,-22.05731924984379,-10.881975828691274,41.72975194627735,188.73836911937224,506.04295981047636,799.4283948542345,477.92986408150057,-524.2905382834678,-1185.984224959238,-814.2238510014354,-121.99433362214023,93.95492422636315,49.94715980128295,96.1474128041265,124.6180308385712,87.10385774132332,82.25952948121868,80.64411812967282,51.25674516697218,37.2481681246701,30.02240078328478,11.02393448163156,-0.8752731251687695,-10.467201744034526,-24.87926800010093,-26.099844961354574,-16.82869965772207,-11.321472123625096,-1.776628223091862,16.289296172115854,36.14454547908699,60.46842960097808,89.37948275660325,114.10732085641311,131.56255830892084,139.5178495923078,136.86069759215187,130.3684929793865,117.9724125318211,90.18248224662312,49.60075237666831,1.3449515733925015,-49.184026789755215,-85.75555684343152,-102.8794847655323,-112.36172717593799,-116.61770375510565,-111.59974529154904,-100.4446692969606,-84.14156473936666,-62.45869282838837,-40.78566752324481,-25.535472296675334,-20.525654350611106,-20.387734572268336,-13.519828754671003,-0.525034732114058,8.841249953420329,11.785699928274354,10.83283900231136,10.17020592340924,12.525593142674756,14.575577889600073,13.952723695852173,10.008617511231222,1.133360177331518,-5.842534070944714,-5.188495714360538,-5.086216170755794,-7.558550869292738,-5.5133054939940305,-3.552328273850611,-6.0545670514148355,-4.845377991181996,1.1418212137762342,2.663104300565305,-1.6904890973813096,-4.819049346301172,-6.950444990578875,-16.688047833615556,-27.710046824674826,-21.70367330806839,-5.969150901516633,-0.8654961646243047,-1.6936349428075763,-5.564818025512269,-22.150314291976844,-34.292201578034415,-30.340903071871324,-34.61187717329709,-41.31856846505299,-25.583737852085186,-8.570675129750128,6.142544682141999,62.84062028155725,210.63201654562428,495.79271845098407,713.2998335444404,332.32707005938346,-624.7078162498008,-1159.0818531072719,-712.9239621078378,-52.800672083921356,109.84871039886013,52.153615106998046,100.22552879952718,126.94522909078249,88.84199863140084,83.2489581737648,82.95700249760428,56.31702231908593,36.699797090478185,20.58391455616076,-0.6946159199706194,-12.312385774720486,-17.61465159219356,-21.892149500952947,-21.060757833157037,-19.17164011448646,-15.1741377906954,-0.8519862497788964,21.801366121944177,45.765942243188015,69.45982325743577,94.01971788411684,115.69345978915953,127.05683820000364,131.07989018500444,134.7439426198441,127.77086563344332,99.99391241806313,62.785246738756676,24.283411134499072,-20.605405697476975,-64.62663765814756,-93.57946539876446,-108.54393155093273,-114.7109687013008,-109.76768557938883,-96.0084327802056,-81.29251232137385,-66.39066805197217,-49.98452532061497,-37.85795601002457,-30.11190742182844,-18.0782826243312,-4.921021726347195,-0.10786813192053657,2.1415154555182205,7.9803068092148965,10.841839484808919,10.483294106948106,12.372003821800478,12.680161297382075,8.91051526445792,5.938201204856937,4.888298661433785,3.8933077089485155,2.320596236249221,-0.32913278880320096,-2.261604908921967,-2.675752068596239,-3.8453954040569105,-4.5397714235718745,-3.6315432123091114,-4.1183223775517295,-3.5228801725885184,2.16856714344845,6.282740244504358,2.504202007280668,-4.913027437462153,-12.668602747715104,-20.22166065371453,-20.54660875421034,-10.252256104636109,-0.29661603849215545,0.9223933839423069,-3.217861272487313,-15.239810440110592,-36.15297773790111,-45.606184239664955,-36.41287666271782,-31.77158462778044,-31.794326439064726,-19.66644686651074,-7.534613692355324,11.027534842438172,89.41426920165968,290.08126173933584,598.4627650514298,684.4616881863976,89.63668066752706,-853.9312895618098,-1094.4179176604553,-460.00945325759926,76.69511061515252,81.86923635087074,34.870671797988486,118.81495325373615,116.21500277395953,63.87019789404364,70.55102106608518,66.02542533688198,35.71198343416745,27.566726566510425,18.39160129240782,-3.6894370956010594,-14.443049734780066,-19.27250534991271,-26.70200387511465,-26.82106135675535,-20.173181364041692,-12.277418804310074,2.9211707273324805,27.274235861419456,50.00230691457709,68.59740972345276,89.64592919072113,106.94739228996785,113.86609112483028,118.45968496701681,120.70401838161808,112.09159561753147,94.96614477141577,67.37947948487863,22.165653555316958,-26.643961860525472,-60.95364373684494,-85.74976810784882,-105.14974071509309,-108.63862641860139,-98.30730544439234,-87.7450097445968,-75.52462031914335,-57.67908721779668,-45.03133170085735,-38.35891924647211,-24.41009293891809,-8.917705900822508,-6.080164142506767,-7.1745128103823,-1.4382918289682856,4.214275919885559,6.652174065015423,10.112055520114021,12.298100259168214,10.73240898119863,7.212510276712736,3.885729478347308,4.330465296001578,6.896380269701872,3.634391892742105,-4.248257717505277,-7.587816820883103,-5.019974348401718,-2.056193824499031,-2.5015483926265327,-5.750314533455218,-7.527273408131023,-6.170626632069595,-4.648618550785249,-3.4236790534866337,-0.20721417870552195,3.1011339138677076,0.7740931940798959,-7.910385404483549,-13.524332509199889,-6.800285595957705,7.74644627309445,16.779653138635418,11.096657212137368,-11.12691329104578,-40.38983653232276,-55.18940974511151,-48.62038929017153,-43.33315575622666,-47.95051347351721,-42.68686104065443,-31.504549300328833,-23.53573260957186,16.256658103622975,138.89151510545867,408.1547162464525,735.9413415873053,621.9300974298474,-241.48294828038263,-1067.4526152719968,-901.1956213438286,-181.38200515725742,103.14161894600346,15.938353933767182,53.0086860360895,124.8784599021296,80.25924490346073,63.95933589218188,86.76511646591956,61.05873694690439,35.507474004905774,33.80807101624435,14.741625278483584,-6.768767516747641,-15.391389988069431,-26.54647114854685,-32.00778913028964,-26.923283822677853,-22.98566362318149,-14.073128615650154,5.012235044426042,25.34724225617122,48.961011003614175,77.97621200362514,99.29243526880926,108.67656381347672,115.43315462886864,121.33286870159043,122.18685116395193,114.21450987725822,90.0442316324891,48.284472981589005,0.2040480625922232,-42.644606755077476,-75.53677494277547,-98.50341551026393,-112.79942539089454,-115.66137056025265,-105.68172444878826,-89.1884319047703,-71.61155460439625,-54.952445556094915,-42.057267656454016,-31.26398781512419,-19.36360647019339,-8.554107097259667,0.8102285841636458,8.712931001582868,9.638843832000447,5.075119748624855,4.542321395133957,9.495843946669357,14.154280163143126,14.700929932464305,11.461147957550772,8.76388598779872,8.602549208604534,8.609916411187637,7.009344400765791,-0.0276739405864852,-12.453773126692916,-18.20229899954943,-13.441806741917913,-10.746198684003073,-12.379941743023902,-10.469522091352161,-8.758401811591458,-10.292689419280602,-6.997655681126583,0.08660877873287376,1.6899358235001642,-0.6385710032412888,-3.703150976849706,-11.335549153320075,-18.17293964998078,-13.062105937920911,0.39340734111763265,12.016698013347733,17.634806944664113,7.453480820729271,-24.741854952765248,-53.66045415930744,-52.70481156390362,-43.1615278940702,-49.29350448684635,-49.62784910057532,-36.02514198977598,-26.334167297613675,2.8891565761876095,112.96508626995518,383.17908505819526,740.3856966894534,681.8892027131317,-159.25991968475935,-1040.7510503200738,-937.3309376734946,-210.5186643115922,105.83070784280882,15.90405167413578,40.28639663042961,113.62647775768579,69.71464775659256,51.939841711123954,78.2059394972132,56.20285362946123,33.49014420669114,34.438865946778975,16.399699726111493,-1.7211576272729463,-5.270055848767262,-15.540709430751445,-21.139722570642604,-15.196870634146418,-16.12725581851123,-14.058183137761116,7.264477312043837,32.090954540021606,49.57371389999911,70.21354831694626,93.4057314365152,107.06391548934182,111.35454019630983,114.45827917011215,119.2116590207045,121.08485083148301,105.89300312613672,64.45603786096748,13.520603959334501,-29.148634518108075,-70.28269005520335,-108.70788899875336,-126.48805296653421,-125.40247334533967,-115.17803631709958,-93.58163350642354,-73.0828889276475,-65.61803457575425,-52.742319374666785,-29.7659949999915,-18.598199907082627,-14.892666320838948,-1.7372373473620932,10.359790148722604,13.648557135741175,16.982036125836103,17.20622052054016,9.086784360234414,1.3871627494157543,-0.5966870019389745,0.9834793615717583,3.3313274220761375,0.4458235394713306,-6.576949399695694,-6.663456480989437,-1.3841847088107873,-3.966647685008489,-10.992835054249511,-9.11903425644777,-5.256948390533111,-11.356888606251491,-14.870290694026899,-5.420962769826742,1.2377367977682798,-2.392041942525717,-5.610403333881218,-8.144802977990192,-9.468102372830375,-0.9102445879737147,6.09846416483143,-3.8206942839690647,-17.142944867289096,-17.663155584404915,-9.171715198739042,2.0879780885269636,11.921282026726713,8.06059035484908,-20.30713096619484,-54.06057841643826,-57.9295723940167,-43.979232086792585,-47.91310209438793,-53.90653965558913,-45.2488599887958,-39.3162699221511,-20.77103164940951,58.45395556773582,306.57360619950236,757.651552133516,913.9668045166195,164.34765974796653,-928.3176930537277,-1122.1639429838574,-460.6962683195824,-3.4599466484518793,17.005899712895257,46.933026226035196,107.36374091509828,73.0087741908767,62.16853958642955,86.37681667330452,64.70237752557114,42.52051103490244,42.75557382536073,30.17031784947049,18.662441536139003,8.698266281703225,-17.742432868203963,-32.95038950773649,-24.666946798267226,-19.419901338327584,-17.822286356644685,-4.157108871900039,17.714711323455617,41.8059715686134,69.89942937494122,98.48641541257759,117.6217213863585,122.38703015212286,120.12939189645758,120.88114868236923,122.38389476584751,111.071924523853,76.84100330016747,24.356185802512847,-29.936503141702914,-70.51024227928689,-95.30754845708199,-113.78344574143847,-124.94981780642422,-118.73297386518223,-105.23995808051974,-96.20202393001338,-77.05689270713373,-50.45491817875638,-42.61810196013393,-40.8196640761563,-18.359880030708133,4.30552313303733,5.736644274084195,5.028429730630862,14.581427668947779,19.23312707564837,13.192175431393913,11.350847730297847,17.51771640374503,16.279622908094115,7.990258885046643,6.760432144977502,5.5583556488287815,-3.936794047519369,-9.882412034697241,-8.64852170717132,-5.33578748482104,-1.5751459729453856,-7.238885811572473,-19.270842838838124,-15.92702043035263,-3.1929466904421755,-3.429860488184321,-9.115007211991177,-5.524043010125061,1.7298592090871416,2.4044258644094754,-8.149392044751028,-20.603720503045224,-16.163073886109334,0.5759564242378286,8.265375463798744,3.8100209639892784,-10.267601783853763,-32.891259284050136,-43.881845874153285,-35.25620981201334,-29.910779139140537,-30.738864386087425,-22.002120579661806,-7.63726098891334,14.043127319133191,90.15405210513583,322.90588278083004,680.8042093389922,704.1951876171016,-25.557947667022518,-944.0753214333561,-1047.6448556518408,-426.7167824217578,17.74333052801162,58.15322643676387,66.6762895478411,114.34294991450733,97.64792445826954,78.776784962558,86.39448458115304,72.4850858065011,48.58378347599775,33.307203507074675,18.014681293081033,5.236770046128534,-6.00252018738529,-18.49751354218626,-26.202266225763243,-28.82267813819354,-24.755604697385802,-10.352173618411932,8.302060138600368,27.878685116385327,51.624773909508335,77.78592965324056,102.20361805907359,121.65897665781944,133.0210813047968,135.5650367878295,129.78005317913755,115.88426577691332,91.4076146261886,50.578939557957135,-3.9064167516382535,-55.98061231431771,-91.25788963405937,-108.15699118324554,-113.47081484924198,-112.09309146778493,-103.17792160422098,-88.06384089496353,-72.69636671053426,-58.82849795369249,-44.803537881346365,-31.900247572939154,-21.30415787772928,-13.009767002670436,-7.873624501890532,-3.234212458444034,5.328552635398536,14.568142135112286,18.055392519567583,17.312715814401773,16.148993322899386,13.526217958552639,10.799409861719647,11.131521410354999,11.560723782494296,9.254710454584325,4.964679478168497,-2.3610081450043463,-9.568233076476321,-10.641756706512593,-9.050252804295276,-9.206508696591982,-8.761553294435602,-7.722556645716246,-4.181910235182372,2.5807636825404003,-0.2216313633233007,-13.345130972917033,-16.286707345381473,-10.329282078827358,-13.825293225614711,-18.610179380017314,-10.341024379592746,0.598748471518288,3.2607360193180046,-0.6812926601716995,-13.2022206469597,-31.819464863542414,-37.86525558990019,-28.548840087427564,-27.030681867700878,-29.818606643730725,-19.219057693459558,-14.41201182249818,-2.420634504022395,81.71158174710084,260.4928769432976,504.48842339992837,597.425332970347,133.04844870556394,-712.6587445411373,-985.5827146612037,-413.2923455310447,92.950015149348,68.03580282115766,5.6617435612226075,99.30366595594063,100.20824342656095,52.26312147333851,75.28189819523536,74.37666908055049,36.9489434948091,30.064110702401134,23.596323279010274,0.8745531750399183,-9.725356046295492,-16.793008092861154,-27.636809596099376,-30.249834290124245,-26.321660211458806,-16.99566435919052,-0.13325727370938267,18.668123253516626,40.38149404521256,68.82012625773324,94.7539432297458,108.97292463411036,117.3734080777887,126.79066074725033,130.7207467797533,121.37201086213362,97.96746039245366,57.947015810939895,3.0165362373675126,-50.452463608632804,-86.0933312362508,-102.73406710007076,-108.08282235351473,-106.04245677334708,-94.9195600125885,-77.98487008597444,-63.04215969995972,-49.7216314912054,-35.878578537375006,-25.273838265704313,-17.29353860575892,-12.854743522211333,-17.7007134705063,-21.28121059154458,-10.919350570958418,-0.02336063790250975,0.6786506947449844,2.4107464852839264,7.171062949287432,7.6203896359056165,8.995028229717347,13.114663895613145,9.761692460667938,-0.2712783320954806,-4.303907000373478,-0.9738905581056692,-0.45033851790914525,-4.152957332696623,-5.892774141603702,-7.352072739516846,-9.642937618390874,-6.962157015641081,-3.8261764915630785,-7.08394048816952,-7.6875439485366925,-2.7876064087336507,-3.459512702598202,-6.961948330971856,-3.882052625895314,0.4686355372390656,0.7577958383982075,-0.1881650450185095,-0.8761372839606576,0.30542916930115904,0.9584603323753917,-5.729352028265433,-14.089820848260464,-13.41613831726642,-6.343015212165847,3.5325936986558526,12.70754837222265,4.259645683362747,-24.01801790805304,-43.090858807997336,-41.62835491775691,-41.842551272920026,-46.67734867884177,-40.83441473868817,-36.15795829645918,-34.05399971350961,10.510742790117149,148.34660472975725,427.73156496464844,736.1846241879091,591.3518945827554,-255.89237210476324,-1021.9378636518247,-828.5167304808215,-143.09239306247753,97.68456242124118,-2.104597040605505,39.38016008518281,111.58522335086951,66.99550022561839,55.0035785177286,77.24690427807958,46.07223039114796,22.558636881776614,29.59847742123705,15.079471783489875,-3.573533492283369,-5.844045402192397,-18.529018495993895,-37.405454350508485,-36.25839723293087,-20.11933208845809,-8.068731411683402,-1.317925083306573,13.076377326755015,38.89267703129275,66.75016978880365,91.5716617642156,112.13231580933893,123.51297684548794,127.07313607333168,128.62758663336353,123.56501775202474,102.05344655692014,62.437827352149085,12.01123856552482,-37.04307030943055,-74.59756804300514,-98.58286581096735,-109.90033029802188,-108.63322611301544,-99.53050538314469,-89.43302509876173,-78.2222751412819,-62.36809659974622,-43.95327105488373,-28.937353313095755,-19.725919043335484,-13.964983194204244,-9.049102458492623,-2.37830920406293,8.305793346328775,16.613723239469557,13.713901420679504,6.969473914625395,7.882310952554417,12.118914346010216,13.896619908014369,13.171292627212155,6.805469925807358,0.3740026124879581,3.3198674239815116,6.963530701725594,2.937542073701886,-2.940780136498592,-11.11898515136066,-19.620328241826904,-15.839397708296655,-6.570521087492262,-8.316209947975429,-12.118074342925578,-6.451185766141176,-1.5034619928586057,-3.5209617137942733,-5.026110852325843,-3.726430175284973,-4.249749825321532,-7.291404451741468,-7.1583812554434685,-0.7997593285759201,4.77133571509123,5.445737345199557,6.326560433901906,2.599367410429272,-12.589413760808688,-22.49692302819336,-13.617479204605218,-0.7522750386409176,7.896792252375233,16.880247313982792,13.00295967232509,-10.308984501813217,-30.865267175097053,-41.51739442694735,-59.78785335484676,-78.68008753028444,-75.6013514358362,-64.56493237287144,-62.34719543467619,-43.667769930461205,25.571438730810797,248.16452061205322,711.9655081314612,985.7123451812615,358.1885806553776,-794.5287277690996,-1139.4879078372724,-485.9903856992957,27.401109229759307,-4.293769060201754,-24.3159308097189,79.3537860874031,63.598500362775006,27.38622996036431,64.32222155759153,62.23951463763828,28.933052362719113,28.256655613542726,23.93884025452416,2.9583778555023814,-11.09230860662884,-22.838654164368286,-28.103439253515106,-20.293833690723954,-13.286174049226803,-6.999451820843625,7.339090707438629,22.822601554193007,39.178671338648904,67.55494015505273,99.29612531640268,111.48416757701679,107.78717011396527,114.10909805447537,129.98597462127663,129.89844994364674,109.9635769464876,82.34492420102532,43.22617926490115,-8.185471360388389,-54.88403510342802,-88.63819650729991,-111.32518311472239,-118.39006754421779,-110.40236712513315,-97.1901109383957,-83.61536021435305,-69.86878325317042,-56.32856209134718,-43.6531621491049,-33.9084140956918,-25.66573883467651,-13.92313000024373,-0.045178143060681464,7.795874205561102,6.5690573477999905,5.73934737623286,12.479817137836847,17.291181047113508,15.26957928289918,14.276084601900916,9.94344706245911,0.7727502814214393,2.7757788791283278,9.217570248727244,2.0037991375268014,-4.389826994214559,-0.7592788492385472,-1.4678447267566987,-2.571651857704616,-1.9018951411981586,-13.589914433118683,-22.340669546206215,-10.39685581232764,-3.2578118814930246,-15.081123945121728,-19.98468785386417,-8.526545347333926,-1.1472815092796829,-3.7089892935248034,-0.7488587495350032,6.265415197246959,0.4162511962832145,-8.634390246178114,-5.471090733616618,-7.2721302335831925,-17.272251456123787,-10.822059622913937,4.875539547050745,8.842429409468458,7.745238632705908,-0.6214010732668109,-24.889228650151104,-42.65322858744031,-39.34122934759778,-35.488695900216925,-41.39011606564525,-47.218790563126795,-48.89464296142539,-35.625900028275076,3.5593748455969134,92.60585213284335,355.11896533303536,782.3310356991279,819.1447801826786,-18.150849520920787,-1025.1737710408952,-1084.4247737114508,-402.5367957712479,22.63485698292137,40.30276017917057,58.82959170598423,101.58104693201547,82.18950989847268,80.20703087617665,79.02019544571496,45.53176762585811,40.3719994444176,42.85970251856503,9.284323717589203,-11.017579692982155,-7.553507972603439,-19.926050226422245,-31.976221919674785,-26.44195950587858,-19.855712820561607,-10.161424129601219,2.550872052600461,15.370427703402463,50.0548439387407,94.64560455306214,111.80269417079363,118.62555407662222,134.0238215333784,136.20768625285683,134.77573609871052,143.63638350070545,128.324506535393,82.02535268029669,33.908366498709626,-20.245408502127518,-80.54240043229706,-114.59632497851973,-118.81960371628087,-119.48132327401571,-123.00238994467294,-117.90410855277914,-100.65306996676205,-79.77178770721792,-60.41905946646178,-40.69516193626496,-26.40831053192759,-21.313692640684046,-16.121191549570366,-7.823942812586587,4.70890801193689,25.66962909745134,36.218301674926,24.48847708649249,19.12859141781889,26.065884595178538,16.292292122550595,-0.2324751796394411,0.6497896932469738,3.1226408601375413,-2.7053169208559407,-7.663964228627515,-15.677963722674303,-19.421812288872097,-8.163305727708,-3.9153308274840786,-16.39243021945025,-20.582801162962706,-8.983482473702132,4.06268587122882,7.985711546693285,-1.3917437255696257,-9.854243062447633,-3.353139149243816,1.0606369284503554,-6.919598633820931,-7.85524237836497,-0.24121208780622005,-6.457149251647383,-21.46318120016812,-13.22864167785204,10.760820522015845,-0.9862502813364404,-43.40500701704001,-54.0589902189434,-40.87912837067236,-46.266344372387145,-38.07282880176182,-8.514578107082656,-7.988458274288346,-12.45624194437195,41.416140996213514,229.27286100831355,615.9007152664346,853.0050644821281,323.85244364706716,-710.0548538719346,-1142.3725469260742,-690.0331339666635,-160.34131964058633,13.71177102157004,76.71099605406671,127.03057534778877,100.53434884452778,84.37440753012157,114.05293898363924,103.40550906045547,47.48373447387332,14.975571534434714,21.787401444496986,22.884442683012097,-5.147562083543017,-25.92025244140635,-23.93620280937028,-32.01666424467377,-42.267656018302326,-19.977888802474062,12.88541190062898,23.56439123319347,35.89199211162227,78.66385278951931,126.94920408802994,144.4883246888679,144.1897481371806,153.20602890919372,157.0402694649557,137.46065338902895,109.0039799361356,74.87806390592576,19.953041189378474,-40.465077337489724,-77.62153861521807,-99.36567771280971,-124.45367908347646,-139.3711960670697,-125.82380491086546,-96.80832740474506,-77.19768790669661,-72.56320142602044,-66.60830978798094,-46.98205082997798,-29.13790897612978,-27.82576360881712,-25.215952102475768,-8.275003268119594,7.754876566342293,14.291925196903023,14.16938844874425,10.652219954386378,15.537050239314185,25.22978955663573,19.341030187568172,7.541620434742681,9.169474871625077,11.049685352547588,5.016104312476179,2.656356488844578,0.05706445874668553,-8.018189549313941,-10.763074351442372,-7.766582673981299,-8.83601690161417,-11.99599645953885,-10.4065748947639,-7.228767982019928,-8.71777560071669,-8.793667508759745,-0.4282797447426434,4.110042315153597,-2.959843459200094,-6.727982190100703,-3.5989163849658548,-4.413656333776502,-4.74600814571785,-4.751031564964222,-19.012932660081898,-36.04478868775288,-31.728812039485973,-18.839290221125726,-16.031326391548387,-7.124337280978022,11.043028104444868,15.710075160180182,33.43079685130329,137.9067569958855,358.1102263391164,571.1233228478912,434.12983848573117,-253.47217978169115,-961.1465625126598,-911.8381356606392,-282.9564694640404,95.4003391642139,74.9991971395386,71.41805445777459,132.62158358945118,108.02980900512429,76.64547478990745,89.1497772590834,74.28180193541313,44.549547540596826,33.36678547260918,14.829281674474839,-9.781638670532814,-20.954916938617977,-25.44644037131154,-27.539397365376075,-26.55452979773548,-24.33048563386622,-13.399819607372393,8.350097505014205,32.140177978533636,56.487042256233906,81.02431241299088,99.29192379498303,112.93003533919045,126.71720211862744,135.2356414541487,133.0943066755318,117.99830857214405,84.21702542368257,35.55734445937087,-13.405278162628793,-56.06571853682206,-89.02235519721886,-105.14803002644541,-107.55835237647725,-103.7363267421734,-92.43380348666423,-75.81081584994888,-60.58362278560208,-46.11625286024994,-32.38229463482564,-23.71106126514883,-18.777402253723082,-13.99657167431246,-9.083674675918203,-3.57915852899972,1.9434287895857771,5.3292138254647785,6.686522089256035,7.491651259204823,8.094580232171888,8.1188286292616,8.485753838414318,10.536849078934312,11.507562951493004,8.654305072869825,5.951921679734639,6.895657503932869,9.550778193264144,10.3517596684508,4.143181538015075,-8.120512871934391,-15.82492862345784,-16.61003098542556,-16.654978179674806,-14.887910031980649,-11.808562588772732,-11.433300380676467,-9.110058090245968,-5.288009383602914,-7.407897360967109,-8.666671190239974,-1.5544470158438255,5.239118024284474,5.392186137190793,0.7633294671132336,-9.70967233002812,-24.61652426850685,-32.71825198317551,-28.57024078306643,-26.905554754754114,-30.70225403782512,-20.883425297726184,-7.570346861356046,5.870234677722134,76.9968814445001,232.24937794017495,432.932558825701,536.3312035341808,205.19274695185834,-568.0229688017403,-987.3963652394938,-543.9667238434063,42.5950527439351,101.93747570157018,5.797448211048398,89.79028287027441,121.10502337992463,60.2122928993888,68.68380741779299,80.68933421804327,41.233060166823385,26.496448639472625,25.6097020256021,4.292266186045284,-7.036124437242682,-10.61929286070735,-25.102675758602306,-33.65078956844289,-29.074149785089404,-20.598756864925534,-8.298443779634443,8.199962600912798,27.05231588283829,50.196585943791305,77.01330700641535,100.31275748281004,114.05816376804489,121.05693970631128,124.88517633347902,120.1061691416231,100.5441461657586,67.47064050585846,25.75533367251358,-18.8631654066074,-58.53703693171052,-83.12754153347409,-88.22236952430686,-84.18597044543942,-82.76670615020154,-81.40508158696893,-76.34928508883587,-69.72150502164206,-56.78086892039248,-36.36354543913782,-22.67293958642327,-19.92820363981714,-15.430013535524512,-9.391156747747907,-10.129393367106534,-9.257781507170392,-1.0303501889303028,2.820675575904783,0.2524698652343549,1.7586531190221457,6.592682273900165,9.022072213241003,9.826587874126451,7.9024555643289105,2.837530296385097,0.07904459666184582,0.8660227343185571,1.1435303615403978,-0.3052162336436055,-2.961955132216122,-6.098583454294184,-7.007881015616984,-4.378172645273042,-1.434805561681502,-2.154691844060305,-5.7405231248057635,-7.728726156653458,-5.951159972024962,-2.1290517941433738,0.6976342498162511,1.3710771809944298,2.108383765818548,2.5279418065337564,-2.1181867223522914,-9.272989418640142,-9.763219183619176,-3.78553224202267,0.7430967701504938,0.3202955189496802,-6.795588110870563,-21.88605511899696,-34.96241598877864,-33.0859021083981,-26.167543114045387,-28.81738102005913,-25.624454142506604,-8.24385801962177,6.434872970849925,40.38864867748687,147.6150620297958,352.895012250276,569.974892865467,460.1096672220264,-226.81177024819533,-936.9458232839929,-834.4700368055046,-172.9973984111349,136.60041936967664,45.99256577521238,55.27679229321926,134.0623428970735,87.90826433670928,50.06679867119385,74.09683221948818,57.64931531746211,29.098030567874744,28.88547532361015,12.268906072056705,-13.647162034063975,-20.092951023586387,-23.54893944322853,-27.51532564178933,-24.196703301041953,-21.231527303093472,-14.663499784531778,3.512227465093517,27.33700584436888,50.50049733041644,66.86916463082859,75.45631713254943,89.2196807670669,109.05632153469651,118.21828151713119,115.22329575961908,107.90070145466164,88.00425862071428,49.16504826067255,3.162964983984314,-38.26239459297549,-72.02719872302595,-94.873946780827,-103.31929570344846,-99.03747329660357,-87.71714969657975,-73.78640947792887,-59.30224701747574,-46.84145622491055,-36.971622493354815,-26.631454716760025,-17.404087903186195,-14.792018662906464,-15.32309768142251,-11.346174828515416,-5.507059088889466,-2.373200389782724,1.7851173436814953,7.4266314184220015,9.363004224084886,9.329848335153041,11.067982883274535,10.966976266820883,7.340911752641521,4.430393887068221,2.9262159046907152,0.2836617723573971,-2.119789851919907,-1.665503023564555,-0.7948041581231324,-3.3369924706520866,-6.528925304249267,-5.227949138746185,-1.2075515509183088,0.6875769780646213,-0.08087003292621375,-1.008972753376244,-0.5136251358569872,-1.5334536300273562,-7.251604167797442,-11.720345188406789,-8.552340931192292,-3.2674936023094414,-2.6059787527808993,-5.217903186206012,-6.542823751510923,-3.8432125170118674,-4.356530851490508,-15.22214809047071,-20.167605469444247,-5.646029465513533,8.061801285319342,6.8541015357965565,1.8907907030461377,-9.520140720868742,-29.38502976976737,-34.41279429159542,-24.354550605614907,-22.150234925055962,-20.364205983318993,-14.2351461082827,-18.801223590498758,-1.4145102772757525,91.92896997423196,286.09806465013753,551.0809840422942,596.4154767847625,28.71802302502988,-812.6522071054043,-970.515211608271,-357.3936784078735,100.65631818683435,65.45554072635026,23.759599161741427,109.9547201724537,99.96955299451122,51.87283191054196,67.23194717948468,61.94282232974635,30.85111065901852,26.1684723352239,17.038291136119845,-3.917263338524723,-9.93814572237192,-14.65408786933568,-23.74089802456212,-22.38543426917024,-16.581340366392308,-12.287340329652247,-2.5948945514871795,13.950376872707231,35.796004416638326,59.56755902761026,79.41488037304636,95.26435054269409,106.59514360861635,110.60287557075449,112.61683867193743,114.21163792931507,102.48122080777577,69.9836893397866,26.102565840639365,-15.30523859079945,-47.64753182695871,-75.3883408242279,-100.74648350113914,-111.0291517128137,-101.51028097374915,-89.19213720850884,-80.79635213477877,-64.99684975427877,-44.96959633453521,-34.809020055096845,-31.141094300746026,-22.732151924137746,-10.54311010128064,-0.07652036493117009,6.88129928698984,9.110278320705655,8.63025689571497,10.430874109091452,13.958535389780682,15.546187578294505,15.095193842494295,11.83423273877062,6.252716115469128,5.163971632299075,9.353571027203929,9.8870659947475,4.555366866975087,-3.3182887127246214,-13.948591916034317,-20.66942374394146,-14.9659606347779,-6.716875256669589,-8.525910476785915,-12.60792428168861,-8.965279600134227,-2.621617918619295,-0.1745854299286087,-1.9183933669783961,-6.1461796214670095,-9.3619857503504,-9.561472116362241,-8.282875303943115,-5.381138049135888,-0.5624894870224129,2.1779741953124025,-0.38749701795670966,-5.938145588622427,-9.26840590366541,-7.197977888164466,-0.9104613553354207,6.5669906810676215,10.393407747272668,1.12885464222963,-23.02447748958331,-42.69962316468696,-42.68652315371873,-39.074565095073936,-43.0000380336288,-36.18383733559707,-19.568597528991,-9.192203231346982,21.37934951234466,128.51245540437537,376.8770595688824,693.0469266703861,625.8962905686242,-159.4590215727993,-1002.2345034597755,-942.6346407943329,-257.4629853140036,86.91347573122944,25.348478568187616,40.71199575419833,116.48655450502636,86.01230268238376,59.42249194548725,73.68547311117925,55.29586718720427,35.38008623165764,33.11007265028173,13.301951756268412,-5.674175921119943,-9.070335087192426,-18.41757015257739,-25.0502750301601,-18.5274451521614,-15.023980001016026,-10.65838489273532,8.54531439833682,31.788199966205113,49.340478026890054,67.57892998952124,88.42541312625306,106.62531273029435,115.735930737425,115.0744171033765,117.9223004087285,125.4736871127489,110.93147394379157,66.70517366160139,20.253648242617956,-17.30809295381586,-57.06009218586024,-94.97005682154807,-118.66636406307923,-127.0223978637581,-123.22865971333192,-109.541133812748,-87.29454018078647,-61.36122967444784,-44.82064530107367,-38.55418853513223,-24.52744206423064,-3.4888335993135975,3.9241434774039448,2.1281058299323057,7.794290125579472,11.868859036885608,9.404660413825717,16.22125928466466,24.17344065946958,12.340471437016758,-1.8715265313321616,4.179463383331813,12.8144966276659,5.415862735889203,-4.735987189451769,-3.4578791389293535,0.6331268018384595,-3.669423854656566,-5.929490160620748,4.10960149441975,6.8593924222521725,-9.90908666349516,-22.725009060990917,-20.994661880860026,-18.11186494692219,-13.34979559256875,-7.609243036764797,-11.215505739182802,-12.229122299595417,0.026835376307786873,9.516684346117684,7.248423894957991,-1.7120177684559756,-12.604538811894928,-13.479485675773422,-1.0619106866874752,8.574008249187315,3.8723071980633628,-16.006808082474976,-37.90555390238653,-39.796145999217984,-29.7718467616471,-26.028333691193005,-16.2281526394722,-5.181894741296722,-6.989180549319812,15.959381346805486,104.0666958254565,305.91071390378363,624.1315724310826,687.9717808553082,27.008787265638944,-932.3047778867428,-1140.7363047439935,-515.7060411777034,22.37158686187559,91.64314573372279,72.86145910086361,127.69751962332185,126.19224445072412,95.29520923410831,95.88972028064374,82.9606137116837,54.488228453804076,38.913372410690585,23.15312472102038,7.932555218781761,0.20543168444338988,-16.582564088400513,-34.57834836992742,-32.46207235282942,-21.609385302971294,-13.358998799602851,1.2778981218711323,21.516891630668226,42.57533904324218,68.32169508385925,93.73813914338123,111.24280725999387,125.19737204664231,135.24290400187658,133.14290513218882,121.17740898807025,105.19148378647469,77.99300520197042,30.357474912155922,-29.354816212638507,-78.88503970097149,-106.19313064367684,-119.35542411028838,-125.33823316553026,-119.13423368928576,-103.14892873579356,-87.73716586767576,-71.84074501773691,-52.70592898992542,-37.16079650646104,-24.28497113549397,-8.61205092739283,2.0174768576993003,4.447096955137148,10.021311940983178,17.69604460004291,16.729944947232546,12.447490895257127,12.768887000431322,12.350225810496948,9.439876674757583,8.110807143734313,5.480620584455249,-0.3219661822550348,-3.3613267230611026,-0.30194709916365436,4.167889055759169,4.915189729592175,5.149971980691544,7.173475001947805,0.3597375015455029,-17.099532867064468,-26.134346009269137,-21.27281278046752,-16.372664722656594,-12.641548234681771,-5.198303952562814,1.820858810708006,6.5627775929322,5.165054508512048,-4.054909162996317,-4.314100059833379,8.71377395703848,12.930524518556455,3.7256210439444164,-11.119511733112697,-36.10096938484155,-52.91434303343838,-39.05737083067742,-22.16422021230848,-22.513337636766764,-16.2689760056233,-1.904204569081391,14.772977980261047,72.11249418073527,228.0301922631352,494.9907407640992,627.624412172609,175.00601799406678,-708.4231963600246,-1063.8437847187793,-530.604675093135,49.2475909931691,106.62284106000023,36.657132616031916,105.28189084071504,114.44266461261317,58.70161925888595,65.302642607596,76.68415394438344,50.127108722588744,31.93808291011961,21.67828761878407,9.248055279596132,-3.1172579271409795,-24.954846197963512,-36.082212825590716,-21.363693817965466,-9.348574590800682,-8.660926089129426,-0.8115027915970323,15.60750200945229,38.45547005849028,67.85996791970861,91.89823656505683,103.73240490619594,109.42837113266636,113.61416773462187,116.66114917615552,115.30279002985849,100.9918008805717,67.51285619242131,20.880986778736705,-24.893119948451012,-62.22185239295868,-89.70866615345061,-104.37396802827203,-108.39218106377474,-106.41716231931656,-94.64375524458043,-75.24450331438167,-59.45356919651458,-44.62143305411506,-26.23751879194746,-15.991488431680189,-13.635819544327148,-3.9919062552930242,8.120281785301101,10.929835631357085,12.695946164967243,16.47726054407941,10.398476102591067,1.7541419154066658,8.913324358900173,19.448368126118694,11.891320744598161,0.5802511523150686,3.183769006499605,5.75476725054836,3.1559825208786636,7.111495538760293,5.225326646451373,-11.67075143467705,-19.457908425582893,-10.911428033488471,-4.995471985036996,-3.7674899075439257,-4.72659721264348,-11.001692057388462,-10.746808270946634,-4.5814008882062645,-13.049494612611378,-25.62237852221713,-17.05281576574159,0.3079696228144053,6.962738754811732,7.011706203734581,-2.160063810791754,-25.82895475336518,-42.97732770783903,-38.83242664645672,-32.50180916445444,-31.837561369488547,-22.394910272761038,-11.769690700924556,-3.6610436029657905,40.11111368594506,177.84900916673826,459.11019656096374,711.120008560679,423.6602346100363,-493.44242707983295,-1118.4884471860414,-747.6511066467267,-57.201177629049205,118.622230533472,25.88480557788739,82.34691427859343,131.04660363803958,74.14317431100903,59.23314459427328,72.75785258655117,46.422077397809275,25.835468059648363,18.124351628058555,-2.150626667133203,-13.802033595003916,-16.00325659434319,-26.40212030435161,-30.266149192195,-17.77203175584355,-3.0045250251263944,9.471475060615397,27.084205517974517,49.29756015504848,69.58404512680957,88.74525450957005,108.48501178152083,121.21723988433288,124.33094201408993,125.01566140430384,121.88816574672292,107.00804814263398,79.21080759207828,39.591352199263255,-8.066513425653483,-52.63485264766624,-86.05118972920336,-107.00787517122804,-114.63287413280705,-112.08343180745095,-104.90051080969864,-91.49624343927384,-70.24228692656946,-46.962502990734066,-25.1470119965876,-7.616336281458189,-4.3289260640612355,-13.660392847035272,-15.511223614857467,-4.373833755831306,3.9755835132307773,5.492750371036969,7.758041559656881,8.32139684398863,5.43680046451205,5.104293649925366,5.203223936215787,1.447994935400331,-0.9122257987470697,-0.9480681704491012,-3.9537189324340396,-7.197019426247065,-6.605257014633166,-5.049713380249875,-4.21497372851087,-4.023641691196211,-4.275182918165379,-2.711911756144641,-4.013890163204678,-14.204211386671858,-20.955167871493753,-12.688514773851947,-3.0816071075278773,-1.3248236025692763,1.766843700371596,-2.996969130227633,-28.704265543977087,-49.034999448678484,-44.465927793109636,-39.50526597168618,-40.131993227230915,-31.029624737928682,-24.217734099510555,-14.7823249078365,25.526935774928248,141.99627887792894,451.22106231677077,823.0011526565205,618.4722248990438,-374.83257503291384,-1160.319675034712,-895.4338403762251,-197.56871755552592,70.50388827013913,48.115187061212744,90.4469874899446,115.49038736617138,82.3851541684417,86.72136628917852,89.58980076734319,57.275568897597324,40.05662514467854,31.18472777278342,9.626304685516347,-4.661766868848464,-14.481069920828471,-26.070028780517475,-23.13320800430057,-12.34619040970912,-7.396544653289197,4.471216792017259,26.99131291157193,46.199481994812935,64.27072608384277,88.88750908579247,110.28312048632729,118.55319042729535,117.35952906026691,113.93051331321368,110.83439503524792,102.41116583578261,78.79263668011998,37.818592070983286,-11.70502717155432,-56.65005925552141,-89.65072595033615,-113.09889533853348,-127.10333814395932,-125.62428059131975,-111.14544948904032,-92.93151140622768,-73.49236579597414,-52.95090871862811,-33.93215626408873,-17.343740110068236,-4.846812332043047,1.185040237381088,3.409163115013307,6.4264127388644035,10.9529358880967,14.071368515515825,13.369843671381854,11.699176821932847,12.803960277011509,13.436860562812583,9.162747866258005,2.2792281710121642,-2.420693153583221,-3.682096665558104,-4.336108700972367,-5.909573322506671,-5.467965584927642,-4.030864875399828,-5.85736416126424,-6.771731668051334,-5.230364489680598,-11.55218530122477,-23.203734316779702,-22.196131750229526,-8.48863534222893,2.404024136654268,6.805802435716925,3.751120701124301,-14.427089937059952,-36.87781352881494,-39.81665403125866,-29.034982595869987,-26.18173846814428,-27.27863648378095,-24.581587218432006,-18.747010193614656,6.292221017042081,79.9097645619331,281.9558130518351,630.2525137472422,715.8588316167866,36.30922144977714,-929.1942284466554,-1068.7737733591025,-384.25233313955164,90.20637642863385,60.36782134636787,36.105282266005716,119.21773244677405,105.21037873217196,70.46015886257516,89.20537993695598,70.36952407388769,26.432564815496065,17.614365517849855,13.122276827377894,-2.873808525385667,-11.691539873369381,-19.872875875867578,-25.7135114196168,-18.296047900442453,-7.6859393620043335,1.3538713881155005,17.13501550676947,38.41247024459722,60.09984704075012,80.84793409244585,98.17942822788171,110.61434449149111,116.41836846669321,114.59450330226014,110.8981478225871,106.27045321017984,88.55662690565887,50.711080121553806,1.151020870819293,-47.306948554107805,-85.52835063169178,-109.60702841644166,-119.8845643928548,-118.52467875958841,-109.77644654933808,-96.5925284663417,-78.4713140484924,-58.25847960530277,-40.5937752698199,-25.11409824566667,-12.266791372895597,-4.227242882928127,1.9839245554948057,8.672320635230648,13.667717645066077,16.45657379412761,16.393902272403032,13.037743916721446,11.376567133285613,12.990294409432439,10.8509578950332,2.45883187860678,-5.599138776715524,-7.891381490121054,-5.872710643347478,-4.0530642188920805,-2.5245106071968983,-0.45967423329243573,-5.356861951909643,-19.239193566191954,-26.332884858510955,-17.91871044874957,-4.8659271471830365,4.905000178210861,6.187074764291141,-12.295902951628682,-40.540517739817105,-48.01477258115685,-36.70446707672393,-36.99421063256766,-45.425638148983126,-40.38625270934723,-31.203116460928243,-20.25434556551348,20.12483161849174,150.31647818293047,465.36997301723426,783.6662284606886,495.46418310564104,-486.2039408690264,-1112.0396592571253,-689.942879499115,-20.71801588847498,94.36127371631538,0.2584526843876702,75.19792766805567,115.64010756289412,60.32583096455538,54.421986506267245,58.96474066873209,29.92997353788839,21.271081589763263,18.00417366137898,-3.600950783562487,-15.09713446549638,-17.185641581342804,-22.49422176227424,-21.333801660128323,-12.403276056471904,-0.9451246093585297,11.721196742041442,27.139516124313346,52.35649194859211,82.68101743428475,103.59655205913816,116.4796356100819,126.91234008098633,129.11108020579675,123.63230100931303,116.66352241322089,100.49039244074632,63.66700137651721,12.80963090403245,-34.396523544455064,-69.40906132242577,-93.83802076137859,-109.86151791132346,-118.30334248199158,-116.78477311740247,-102.15851832591437,-81.84629588486169,-66.08902069987295,-51.17168341247502,-32.89693610303944,-18.218804751732016,-8.180860485081912,1.1992482828862379,4.982180172886451,3.049957495109176,4.406870943540511,7.461581582796505,6.417094407006683,5.812096116997012,6.82025837135318,4.6113281160208075,1.9928163932310508,1.2004423663657242,-1.5346509292839645,-3.9040497148307125,-3.5703049963836637,-4.779570424233754,-6.59811055791304,-9.467898736188303,-19.631341241947084,-26.855117673628705,-16.222973161108694,1.5755586956691117,12.069661585153927,14.22912663067066,0.9714927805507045,-26.015164640913333,-43.446161653610595,-47.97108307861601,-58.04474790423649,-65.6371606737653,-55.844089402776156,-45.99127265391816,-42.04171870474618,-17.564906879808987,88.42576385052851,401.5718786751863,813.3691969947863,690.148808590227,-262.3692623504346,-1078.871303454072,-817.5605555000386,-104.9832841557177,88.76336425960767,-18.8361960677248,42.64080483660356,100.81973804952068,44.85154031232247,43.69446271930877,70.04473079735885,42.1639884803033,24.90488851066288,27.26944530667415,9.437680643702477,-6.7954140214028955,-13.44166785403418,-24.05350032365297,-27.308327141396546,-20.388466522202478,-10.217534063177158,7.494148648044401,30.816874496625488,52.39131802390815,73.05295155897349,95.48463534673277,116.46499148375008,129.02935948960973,133.2929396241961,134.90414817748163,128.39198800829965,104.29913665241996,65.69922632468106,19.25806608956858,-30.27717108295645,-73.01023452721387,-100.02246987864604,-112.87797819631284,-119.5927101802231,-120.17987394563113,-105.36283746194647,-80.46485028733672,-63.28867315001558,-51.0119144374963,-32.637022443360806,-16.950103459305573,-8.657391170889134,0.596582327034195,7.315191115259321,8.139882544386527,11.008132068553241,12.376585939120197,6.305363279603615,3.2696769798433394,6.254902836694498,5.039402072663151,2.1214228102616612,3.1727286366045213,-0.14453449151342923,-7.305649836467346,-5.018815992954536,1.3073378570541312,-2.4179787555758576,-7.344091306639202,-4.329323180506641,-4.802032629343373,-11.585176860870046,-16.570884394829598,-23.56402921855209,-32.70719173563026,-32.95800245773954,-21.184921442151,0.42247947782618933,20.60835600471944,13.69213070544713,-20.236144422050494,-44.502818009796506,-43.47286280341123,-38.86877662860246,-40.9935110642558,-39.52968819660042,-38.87555701403288,-40.513962574109186,-17.36906615124982,57.864194900489466,262.36385166096846,643.8911251968874,807.8475362240325,174.17799309150308,-853.5742310140297,-1096.016677947701,-445.41013526008624,55.1867776993907,49.10833553053399,30.290484841890624,104.72094196430568,78.2254367335028,46.05071649354035,77.09190728158543,65.18157301492468,27.392564944543615,24.269270936965878,17.55043194038435,-1.3840600850375813,-6.1033181806540355,-9.148909120222779,-17.09680700663641,-21.11725462390656,-21.738127143399556,-9.705761365110941,18.218235176208367,41.22724671813532,53.56179328172307,72.4249588411665,98.47426767937694,117.19339615360234,128.0430843649417,134.7439969841651,130.98555000973533,118.79591367668517,101.59083063160858,62.42273515842783,0.8612564758590366,-49.00794786039297,-77.0741401365695,-101.6025741086748,-117.0523745671543,-113.54174528057372,-103.8551625124814,-91.56222186033726,-72.81524323116989,-57.058457279112936,-44.935266099694765,-28.229515288954786,-13.905314073841247,-8.682577763005291,-4.817924516928436,0.31168322469332566,1.557728473797379,3.345171082306706,11.5811097114082,17.63563981323384,14.702899829496143,9.462700942603991,3.7808918765828565,-2.8843720141439206,-3.6777323694941817,-3.643987182674941,-10.714776411796269,-12.865522052027334,-7.563531762355561,-9.823171830190372,-15.44751617916193,-13.333091759485264,-10.311852132592566,-9.576173215115443,-4.860841279008259,3.406250807073162,8.076309639810459,0.6055035813613632,-15.116032686296549,-21.070021910942508,-15.383055809954962,-12.074658361112528,-9.380090199869972,-2.883255215500112,-8.73375240408706,-31.038967180484995,-42.5428458510833,-34.57209239440861,-31.939459823302954,-34.18797086700719,-23.11155097402675,-11.423455184038218,3.454334499927864,59.54288221649138,201.2508936908865,477.5489788260542,702.6824573691619,361.67146818176263,-560.9284064017489,-1115.7598707265322,-715.9106592291853,-70.29254973054367,101.07368662723634,44.14653632674175,91.62325224565893,123.68538810468286,86.8437941779448,79.29476041036207,79.52297363163648,54.488486720098045,39.32119283875751,29.081018180801067,6.5766448695503,-11.203018317971495,-18.4859803114322,-22.30220459505096,-21.935543923661943,-17.27322029872429,-8.614271473887065,4.1431060662594845,20.011882773117648,43.658531647678174,76.13024688335842,104.00870470791381,118.58332558901327,126.64043747993928,130.80154267908392,128.98436766000876,125.07961087337635,109.88183401372257,66.21850397188099,7.732956834759634,-38.21879651020224,-71.00977751971396,-96.1762413907661,-106.63380157750072,-106.00381158043643,-105.69430127423509,-101.4591686187737,-84.46213873834185,-62.361271324515435,-48.096041400189854,-37.87544816732343,-21.851686088477692,-7.374343178400121,-4.382026381321044,-4.238691109188579,1.4176935509834436,5.986740452362611,5.800442006616709,6.439195597287259,8.85157950366068,8.323560709535435,5.263035966697389,3.879463900897873,3.0328672810001045,0.8724500971881426,0.19012054980396442,-1.2362781412338926,-7.324982461280463,-11.904866663855358,-11.79128180416817,-12.668134850921039,-12.762016957078362,-9.627036804286242,-10.170993000580445,-13.049374487005366,-9.8735103484746,-4.532074950843089,-3.7829699766127316,-3.83626286830296,-1.4000119455236195,-1.8833033724975614,-9.793900460470567,-18.037210997402667,-15.654821938697085,-4.32912456926849,5.809725826666245,7.16193457772723,-7.028589894247238,-30.542097397025955,-39.360331976276825,-31.529336563567888,-31.690088671891615,-34.69511347761675,-21.15241949556653,-9.364125897801895,1.1105664490549927,62.64580198826722,222.85069256122142,494.9167632984446,679.046154663273,309.3150879306304,-594.3439387116244,-1099.5656147403054,-653.5075462394856,-9.320345618150313,111.57072703269125,28.8662200592774,94.35107365239753,122.01287670946974,61.82660473799638,64.33887158281823,81.05363723563747,47.17537805843888,28.99041481876752,28.20894243860534,6.509090618688903,-10.14578159413751,-11.988342363400815,-20.765120201224676,-29.936529890597342,-27.71562542678781,-18.438098940013283,-3.227945067848051,18.098990640927006,41.958084782085656,66.29829130193232,88.79108982783323,107.70102565043115,123.77659791958354,134.79843940369204,136.01062110243558,126.46573456822023,106.37906848774092,71.73622710753746,22.413616954391948,-28.541034841387507,-67.56957547776199,-94.83218495501497,-112.13803410972757,-114.3323722520804,-103.53041789817371,-89.38658160145359,-75.10145866668708,-60.63161021265874,-47.02246537248747,-33.05136580644363,-21.940879051841026,-18.87203736368442,-17.689544763106156,-11.083277052626137,-3.2692406747333997,1.8411720036507049,5.619747154625603,7.937198805234928,9.345903866268559,9.74123863927326,6.765782916312448,4.085520167985939,5.8817926608915325,6.768992668908455,3.526726255773461,-0.08918119101522137,-4.690752092401402,-9.816489567665158,-9.422956414459026,-6.957883375855575,-10.63986983509146,-14.69657945431982,-11.433730671638031,-6.461193152197252,-4.58934349832623,-3.224623647239719,-2.4304647789783314,-2.2657038230147215,0.21156173904397058,4.174185241473162,7.315857302484007,7.707274600449622,0.8344360967776989,-10.005974153783843,-12.522969336493555,-6.78634457727707,-6.047781314620721,-14.626843810798118,-24.361191843217714,-25.109452672152656,-11.866129232849017,6.81208926752128,12.130045880455555,-4.947229769765162,-32.481335701542214,-47.907838377410656,-43.90957515934724,-37.85561418989275,-39.55832506987714,-39.9709948682964,-39.48883519013422,-31.012621663652475,19.0862489241172,162.02448877066232,465.4600725567189,776.3066891548692,544.6211455341212,-389.8031760815438,-1093.8128186608649,-778.6529998582671,-90.81850574082988,93.90985681883353,-0.13923559819802733,55.40574386961438,109.19284166191527,64.57140288765238,62.983034571307556,78.21135844118963,47.86688747154803,31.48882491785862,30.943956814352482,11.162338122452496,-5.641538359551588,-13.821940823958217,-23.901698966886386,-22.869617346300103,-14.432201774115644,-9.445234532130069,2.616626177051401,22.408393984082004,39.9250480122362,58.362957940452134,79.45931458093061,97.90800260799782,112.56296363551856,119.34345987653084,115.92563244754082,112.28220796650061,109.70621518005036,91.30444246023234,49.420226398945836,-3.0914439997450813,-49.58871289102717,-81.45706495840466,-99.62527415351698,-108.92997438915174,-111.00242218566365,-105.54448000923631,-92.31797295725121,-72.49290002140339,-52.08676613003723,-35.869520028747125,-23.288925026695765,-16.19689820903109,-14.10705624927056,-8.24525173189209,2.4796055239475976,8.466891859975078,7.195049079275304,3.3383027102481666,0.9198957517832547,3.99657785593476,9.657317970164701,8.17938022775876,0.1582951578501799,-4.377998203877752,-3.888635174176377,-3.6405148118080746,-3.9291105827450004,-4.502232282644492,-8.118130826567128,-11.573052911651285,-9.691766574316759,-6.920082779375484,-7.639867598257251,-7.610854579943583,-5.915213936805078,-6.434232340321888,-8.174316046975985,-8.096574237296853,-5.643455664260806,-2.9659153952073165,-3.7573799154654797,-5.835375699473487,-4.266928684663731,-2.1642964759793077,-2.1314171873536267,-0.19053385107870557,2.221124253527041,0.5629896448051284,-2.09276610837882,-0.1729811240370358,5.615366858236203,4.933145277022668,-9.677676894621655,-23.101540673461013,-17.954479086578502,-4.230735181558815,5.408160331062177,12.180716220195581,3.5880287374012045,-28.6580352786039,-52.11944797524731,-44.9752414929287,-38.128190882030296,-47.084011643665576,-48.9870033232171,-47.06093438134991,-44.440753438669766,-3.127672772384244,126.91374360195718,432.31512940262905,817.1916851185051,699.1718680322449,-232.76810305837046,-1068.3811641707134,-846.5414337422914,-136.0711119623375,82.97385410799271,-19.631797457279234,29.42956724688034,88.4682829713569,42.73081713505775,43.65018714053251,67.96354350179922,41.432634365128905,25.71832549644324,25.343904486566935,1.6805887734742297,-14.575698602311974,-12.911153442561154,-18.75548635657324,-22.755599653229226,-13.76044707532434,-7.412463366915786,-7.429194025312739,0.7851505870149218,22.09191269795987,48.077340952713705,72.30273077602266,92.65771386032907,107.3364781476231,117.02449823623839,122.10348337033996,121.4358093583584,116.42459534649385,102.32283532071499,67.39902872022019,15.24733223962551,-33.73414127006294,-68.44721504765742,-93.16162818760856,-110.06828102213996,-114.10309438821716,-105.9260950879657,-94.23641296179777,-80.82875166406448,-62.0514610316758,-44.2924297120681,-35.18939069505417,-29.35718231585622,-19.85284730651833,-8.26123137504553,0.8302532834186387,4.616371818630004,5.746885162716589,9.619425443292975,14.93048012498253,16.739515912327008,15.195623335806856,12.894247460297754,9.899836715477907,5.109816995307515,0.6731978530226908,-0.41751062156053464,-2.163016279471213,-7.1368798394682,-7.081678491122554,-1.1327896849700938,-1.458873885023424,-8.446484019702575,-11.286123341109919,-8.621869019172564,-3.5008373143133733,2.9568235700429124,4.202674971446031,-3.7331873151017447,-12.65964492787928,-13.59899109880691,-7.572265443018779,-1.7487670134945628,-1.3143094888049713,-5.786056075475312,-11.480156598703694,-14.516678796763017,-12.600121703052196,-7.25959313286619,-2.3434769481926985,-1.0817391137183705,-2.868660186158328,-1.2364826332642558,4.472533392179486,5.479833200877406,4.212791769700274,6.358791207112634,-1.7624303763210847,-20.748924469497926,-23.97670908984441,-9.423050643861647,2.020312944943916,8.611377227207067,4.027193530661358,-25.91905906421092,-53.754710745952565,-49.062405304559746,-43.406312344311445,-60.802431532967034,-62.16752904111047,-38.05233825159717,-26.753711067520435,-13.589339120242691,60.568305619354334,279.1191246098417,667.8435135698971,829.3117732496402,191.02416640581467,-844.2289299808483,-1097.074024034731,-459.06593103200083,31.53060931393152,27.446444257397577,17.655957021866804,99.42865743302045,84.5964698676146,62.37732662741374,84.20497568337301,58.70761630091663,29.49940280613801,39.99942123788866,21.98477528583846,-14.877758738961372,-14.15706594298402,-6.554964718286923,-19.388409738345125,-23.08925078269654,-15.078896483202294,-13.021779048146112,-2.5210260142121044,25.87985763035909,54.39541127562014,75.68893481477899,93.6555835149028,107.34470914672247,119.94619801559809,128.7308334944762,124.31805081070512,115.7879980551549,110.16676596037716,87.16466683653042,37.54830955303354,-15.817633175601125,-54.267695553424765,-81.97745000043777,-105.59255921397082,-118.38360070578744,-114.81215649093744,-104.60914669384,-91.75795317266976,-69.97230933348013,-50.416474014194925,-44.10578028743721,-34.563195697061595,-13.31339173797118,3.1055783926123013,5.790362394808152,-0.8045630557531815,-7.466700192377598,-3.9753201976110617,4.063200797979567,6.73004493448501,9.21742051182692,10.104983739381382,3.8099906690496734,3.726259076511453,13.35038028219579,13.707955021805772,2.2266941671717877,-7.709566611757568,-12.908027050892638,-13.039721064263855,-7.4336024823159885,-3.8540826546004237,-6.551182144149802,-8.283117687211954,-5.595790225366343,-4.66254802511089,-6.959997130018021,-7.910431776864787,-8.16483438991594,-7.417438145137478,-4.107874040635808,-7.253104015948413,-15.377531652643393,-10.138888350288918,-0.03812890367210464,-8.18894992599514,-19.804812621658833,-13.869277566702479,-2.809156535932683,3.05120292256,7.619781914002289,5.551360938732209,-6.774859432893411,-18.368868833814606,-15.731446281749154,1.5331301755909839,15.254515072842988,10.158954886638766,-10.499345052590904,-37.22760059295568,-52.802375434662366,-44.43588268099546,-31.106104162882247,-31.16676380764421,-38.72700869340452,-45.22505352267286,-22.919911174134278,58.573957556695305,226.38337196719556,533.8362651442693,777.6149986570374,401.52690923138647,-578.6168518092766,-1143.2580865536968,-729.6652937803874,-99.93323439072422,61.822003625214855,33.174553132808576,101.32348041271216,123.50545294395857,80.04482828051293,82.28382063512537,87.48730642939782,55.978613801539694,36.25908911631126,26.501224341469403,5.194574246442308,-7.561819855741162,-11.436777993304716,-23.188821275248767,-32.567460761440984,-28.541447131623663,-14.31852370612809,5.1176082259379,21.99611530569642,43.91459626738308,79.87081449026718,99.47879471744237,93.42864289757644,111.17338691615635,150.52081066927627,153.22851895767127,132.12120586816621,125.57005530829828,100.28351030436761,38.57343507339969,-17.706106601008525,-58.724768369314695,-97.84055891760278,-115.93134464502438,-112.84453149152736,-117.17515949786818,-117.9655488503187,-93.68700383035856,-69.25569532710253,-61.25180596898133,-48.48843163953024,-29.597908186175157,-18.81085503659802,-9.298167635415833,-1.1508790485205935,-2.5294918801854394,-0.2654328550186733,9.614039778711192,10.96052407944462,7.367134045075389,9.986111831176482,12.531961005298154,12.884001695185384,13.444758742417214,8.835110780968044,1.7557046468718642,-1.1642507621288267,-4.980230085964941,-12.461438369035298,-16.791438956428014,-14.398061324711884,-9.868448273877604,-10.105165514761868,-13.634206636381975,-13.045787444747543,-10.457638533456699,-10.9818841409259,-10.996422758110018,-9.66152108330201,-9.973796315973356,-9.265659871807209,-6.701761869689939,-4.943375685087997,-3.9182613520751204,-3.948371646165686,-3.3072590326804026,0.0626718621325022,-0.29518506738629213,-7.428895740147047,-12.588335941625086,-9.283380553705484,0.6571020142488577,8.581826954278961,6.018886272362899,-4.757381288902748,-20.045583431109712,-35.47467409806689,-38.849275993370654,-31.18647312110189,-21.951120446527543,-10.48182317414361,-0.23814959073662756,27.10298115938557,118.2860797050943,290.90452723964205,500.752734342293,509.91600562692577,-23.021887616018034,-826.8043106847879,-1002.5365494122779,-398.0841222864414,100.21380301990162,96.80179993645255,49.449138801024276,127.88622280725092,124.72555322208365,80.18078895464733,90.40097295218877,81.94695744536375,48.69612729126029,38.08163581281136,25.845041513942686,3.320913845425153,-12.676280491447542,-28.84234009411113,-39.2149208017774,-34.88390057963373,-28.469735562997602,-21.020860794057707,-3.689424551499556,18.082456235629838,38.79459029029541,62.622483713165565,90.17973154559371,113.66868054535833,126.39936075107666,130.02649616296907,128.65230566779613,120.77277990377797,100.03345625842859,62.0407554491301,12.585117892219744,-35.20513505985421,-72.69798059957535,-96.33608161298865,-104.82668050032767,-102.59710834403118,-95.0737666143639,-83.74904322130018,-70.45302668433263,-55.755221003725644,-38.327325831498385,-23.086784892570208,-17.071812969607592,-16.922236524406156,-13.703429807027181,-6.860911977385442,-2.1999235438431874,0.41518569854379805,4.315796110906295,6.441556652346549,5.886525434742113,9.130748490492525,16.034813882198662,20.36497336858013,19.832216358923603,10.498779910659112,-6.06285074364561,-13.675292181766036,-8.62885308772216,-7.841806153947562,-13.761805313330289,-14.532298201572505,-12.48645132487352,-12.7301137291585,-9.178805826891058,-3.565939279544825,-5.372978734868418,-10.740479157465316,-10.088323384995022,-5.712356474948807,-2.93355667519951,-0.9921047901987645,-0.2125998213054192,-1.3805910676661366,-2.4789931346866307,-3.8102595932318017,-4.32785677077648,-1.7341178366176635,-2.4022306310360104,-8.472892646739375,-9.982580978918463,-9.291178799036484,-15.75881812567507,-19.522390278184606,-12.218377763037136,-4.142444487755474,-0.21004923497260108,0.3801402550881008,-10.180874307473655,-28.389441998896697,-34.59485732567873,-28.985494580986526,-28.198272404476796,-24.506336189063802,-9.790532903768783,1.1982893485753578,31.710287624017127,135.17631957244674,328.37558594866715,549.8308986678567,507.67727133901343,-117.9049295694374,-902.9165578229288,-930.8274992056091,-265.3857649624533,135.5398470984449,62.76648802123704,40.64795583588045,123.22954745033483,92.64372085879961,56.56464618313732,84.87208153235618,70.36947855554426,35.715379616694236,32.669482879159006,17.327684994630484,-6.718239543045732,-10.637179300424961,-15.547945231732722,-24.787364196739944,-23.949307016245115,-21.83962508060385,-18.119729846154762,-0.9025291778046949,23.759352614050293,45.25315027786852,64.75500173090835,85.12435974025445,104.19337860706719,119.02659331519031,127.73924717309234,128.5497203724933,121.35546230035747,104.17906830219326,71.15188299445776,26.25916912783137,-16.559850518174482,-54.957886749128264,-91.4983449926532,-114.043115000798,-114.52935178035975,-103.35338621038564,-88.68514280478408,-72.64565152592482,-61.217811444639494,-53.140689706067825,-40.71244776703619,-26.87773783961376,-17.62734090228271,-10.62447704555656,-4.536042693396055,-0.3417429074450453,3.4782742994638376,5.479710775199504,4.324667255465803,3.9534317186676056,5.31353798537997,6.7306435412597825,9.499788521384252,11.381802305578255,9.504228075435813,7.747277156585633,6.436017886062414,1.425188867034727,-3.706125659992214,-4.612971942199148,-4.854103219441344,-7.228581371608136,-9.82576493983595,-9.86742468819561,-7.7941795413586,-9.06864497550674,-13.984326639260384,-14.809900671792947,-11.536551265283403,-10.139132445396749,-8.80998411850063,-6.0290964656637165,-5.417046684013828,-5.453039187642615,-3.429608435871737,-1.6759609985466817,-0.7938337729954323,0.15405437200573058,-0.3402509985537101,-2.4444173503910642,-3.3262730074672966,-1.1004766287986403,-0.692708315980493,-9.414640183921023,-19.823872274538477,-16.37639057745926,-2.6085535719893214,6.696325236187852,7.27295391155048,-4.713878986986715,-29.098784657101472,-43.15090380442334,-35.61217593142346,-29.645200944947792,-30.419392942623777,-21.362552262211125,-12.464852548549711,-0.8079049588653504,59.20997180747395,220.9866771613497,515.1378632984091,720.6103032543824,323.7106442540817,-625.0926045996777,-1114.1710043731355,-621.5026982411592,10.312142268578251,86.52192553496747,-1.0988583360438469,81.59671816387676,116.27454358428292,63.72203059217581,69.8581632258973,79.2515446092753,44.273913224314946,29.977399692955892,26.67399920555534,4.904504618283367,-8.756539406682446,-13.126972592068244,-20.901118836843818,-21.839109286194542,-17.709131240773367,-13.542840885201642,-1.2527670747168642,16.801436136323503,34.93034652632899,57.99029489624964,83.66903332379982,101.54676178814964,109.92380845365416,114.50200786616293,118.19749828946738,117.89423894810423,107.77963617132372,83.40404760550737,43.63574574981615,-3.839803569758376,-45.32232954638947,-76.0975803159219,-97.57397264128669,-106.42063019471779,-104.247619984874,-97.6246014775983,-85.8013999065376,-70.30831756379773,-57.53212600232575,-45.1364127361473,-31.358815348751968,-21.14409147635721,-12.861218818156033,-3.967288168044682,3.1105964381563,9.468401132707452,13.336439677885553,12.186430242106727,13.580535603269876,17.419440991513163,14.465334704806422,10.912922546572318,12.671855514850954,8.583125307074603,-0.8525048028976245,-1.624261748866874,3.5080809329264984,3.261580287615633,0.6326155694511328,2.879025743728132,5.932333143589666,2.304552932428207,-5.951637673465257,-14.046695850468097,-22.57179438093797,-27.246233621687942,-22.400556717874707,-16.81715459068931,-17.933425643232013,-16.955232451171398,-11.001933148183436,-8.24941483225103,-7.273991199145282,-3.178772284577784,-0.9215639014820933,-3.435952655880609,-5.544106512989533,-3.553454151182338,1.0526882356068858,3.742526174282717,2.8022815613649783,1.8729764130637907,-0.48050435923092927,-8.617996333374897,-14.620821792256187,-11.392546920794064,-7.138901554481178,-4.46829023946554,-0.17818389110026178,-7.819940250236506,-31.23482627184832,-43.097687672580435,-36.711773968966725,-39.03611914311053,-46.643135453671384,-37.00584858705906,-23.95343733354575,-10.624092386893942,44.26052029254416,200.93734052703974,511.43393511959,762.0867306930049,403.6449153875558,-561.7998662290688,-1113.7040464143042,-662.2290431314003,-15.950388175182411,89.43631064364598,7.1769068391231485,83.77269590675832,116.78691698663451,61.79774456533643,64.92943003396232,76.36455866152711,45.610309076064596,34.83035994846887,32.90878734419955,6.614417465519708,-12.507559708499228,-14.339191730022595,-17.081918740253144,-18.629082800089773,-15.597239247838882,-10.823879453688242,-1.3039521150998041,15.880622960463725,39.0403406811615,60.36890461791635,74.7219046068382,88.95646405048919,104.49829986357756,114.07227883724656,121.8759733175269,127.63171567590737,112.92532394102099,76.42034362932506,36.86163756514442,-2.2551074255126586,-42.63107759875351,-75.1094927903566,-98.07351909953252,-112.57972973562211,-112.7799684718283,-102.84451031694167,-90.24766966169199,-74.01024389408694,-58.159006499680345,-44.55549145868035,-27.444082920923016,-13.26921388347948,-8.291960487977391,-3.631847101005402,1.874246223864386,4.757043139571035,11.441189564508143,18.487729616484792,16.621447046024805,11.656141688787455,8.72139425276653,4.916679151561999,2.2504856558586397,1.9662441920560783,2.14478804106934,2.0653050844597214,-2.1349148427942524,-8.726421894722913,-8.058798106471365,-1.9961659075004743,-0.8480222428236441,-6.033702216457176,-13.358506504151588,-17.415726931374515,-13.916403458462113,-7.068777230480313,-2.879071785008728,-1.869008383998377,-4.798425540022336,-10.11950506364299,-11.773270440235938,-8.28854324102495,-2.6964089939340816,0.6899095399098609,-3.641366138815888,-10.115119508906773,-5.140014971947908,3.514090757665489,-4.981635091869052,-21.277845193503435,-17.980108913437217,0.6292328117770065,10.624949502538783,8.679829715937249,-3.5146856614921695,-31.07056833475157,-54.700213997765175,-52.51174292118934,-43.191359644496174,-41.526875487715856,-34.9584418736063,-28.9919748696056,-19.50837644568494,34.262179120500335,185.02250854765236,494.92699150313473,787.0616325019053,494.9060183135468,-478.3970115781583,-1133.4995113232762,-748.754317086617,-57.19741773697555,103.18542891199553,7.86274165076005,65.22195849663875,110.54990938526741,57.968597979432744,53.64652979026342,73.79748497227742,46.72161621858338,26.05926406432303,26.274322068544375,8.528067955350853,-11.513702481659632,-13.177037710629621,-16.707242643451917,-27.50457586684459,-24.336221254452802,-8.454105536202814,0.021290103769150193,6.460776733867206,28.683098656231053,61.152846414850764,89.61017523446908,109.45462761728098,120.28388062238756,126.8867922883769,133.02914320306039,132.81766919714715,121.78889242001819,98.54375867126981,58.26474173144416,5.2656977614696245,-44.644803784239606,-81.58145952174267,-104.57936838149358,-115.33897329752585,-117.83395467730955,-114.32087848568361,-103.38472251947152,-85.27556553114077,-63.356460818917554,-41.80628354119938,-24.74109363384978,-14.680933218459117,-8.87074667160702,0.7288987307563097,15.563750014657536,24.895364505873726,23.35122032425747,16.835420422345134,7.578286271801507,-1.0226117869169151,0.058087036489569144,5.597979135994462,3.4931591370550485,-1.0896825191789503,-1.0221294417272642,-0.7483267880386109,-1.3315114034671147,-2.795285208267778,-8.928512515086247,-14.058378996842285,-10.880169792219586,-6.119662621783636,-7.570770073013982,-10.575713440299287,-6.9305032369942285,0.6027790543877707,0.9708217118160825,-4.145952707056148,-4.5341467892254155,-7.4819811117856645,-18.141071638547594,-18.19213579483694,-7.5920524617974365,-8.058077886985524,-11.794547458663992,-7.34265930773469,-14.448179918866678,-26.938169765301378,-13.629889582315007,8.171066914920607,6.713390422639057,-5.194302332464266,-17.696452420744453,-37.59933347538637,-46.54343551389094,-37.87587092913988,-38.845555915670396,-48.78293078360287,-43.92617637879055,-27.50979129353466,-6.594750578420136,55.07853010623644,272.6580663267126,681.4542260459139,859.0778464960199,236.79663215797942,-811.5186423798007,-1151.1810788327584,-577.1936105128908,-22.78358863317308,56.78092564998724,39.92944406454711,100.03199574662284,97.12980537869292,71.62361319324023,89.68147588248789,83.11849448788048,49.0078743493072,34.28290857707774,23.86509425489173,6.372784118736197,-6.01044457354288,-15.526011576084299,-20.927696586496992,-22.307305140199983,-27.58290678104693,-25.143623714706948,-2.456701219794631,25.27528266672978,45.028522493269605,67.24466426600452,97.9399878311499,122.57041494134658,132.03063958968963,137.95179538550354,145.70587628644745,143.68636055346323,127.05121694896565,95.71514714119064,44.760409381946744,-15.259703945641107,-63.10864778212085,-95.67825921232418,-118.86475049823358,-130.41968029966415,-130.6362359079559,-122.74745351090249,-102.8713748017566,-74.43415943337644,-55.26821864969379,-46.1454906768705,-27.692233600961313,-5.514734195546431,-0.017023132651289075,1.1730573611663786,11.822872437648881,14.740116527978788,8.142480733417191,9.221691002168262,12.88965753902437,13.063659827907827,15.84713768209118,11.77309355356699,-1.6474173746633607,-5.368706935316089,-0.822781800016628,-0.9653957679227378,0.9903763940284129,1.7357690123763092,-9.09709979175898,-11.96341067742454,2.4485138464980114,5.18560525673904,-12.142801593165276,-24.76895557914288,-22.862254964536223,-13.566508491954844,-4.677215619525745,-5.197501010965098,-12.927283673181208,-15.646929882522496,-11.894289603724475,-9.200008288599115,-9.528381423942614,-6.803083479372345,1.4219532661983365,4.9707376140924024,-1.972803335085339,-13.817723412611546,-30.294922214338108,-46.16916004891527,-51.31433106110321,-54.7617641494592,-55.25584686235509,-34.68303370354198,-9.299852811617265,1.2128753074154552,28.70155794027967,171.04815321127043,534.4034661604193,872.5078686201565,535.805468562706,-501.54998698630425,-1181.4606701766184,-860.3055709804631,-225.59146078046837,27.1371881535419,62.168838904375036,109.44134329080805,107.53571426443868,86.8189973856322,101.28281691466707,92.1272475598691,60.17238103080713,43.615969829278185,22.914251276762496,-0.30967449942558645,-5.8808410325102205,-9.947883093044728,-20.266809412224088,-24.81442647840823,-23.7317539714874,-17.41974830493653,-2.105560559590323,19.858622062445598,47.994305950682296,80.52317477099109,108.32929435382516,127.3957796869102,141.66586810912068,153.62030500558075,159.7437148455118,150.54509758065652,122.02464536233553,82.37714031056204,34.77625563776593,-23.467535040132322,-79.39326714706256,-115.27474317760135,-130.94200155713017,-132.64888622159324,-124.17408102557576,-111.22318354794845,-94.96862908522323,-76.52759028921638,-63.63780046764211,-53.46258919497208,-36.38197423987878,-19.92632498344695,-12.03240211550424,-3.210234282522702,8.207282959263303,14.277637600109543,20.30712821513614,26.468697062312536,18.944642360065654,5.942514019166026,7.253815310274627,11.842524641701914,5.3881817360041,1.9087748870686045,5.1779503571897845,-0.08960165819774168,-8.150926384006883,-6.23266344707158,-4.470109614215023,-7.868911202211568,-4.97878722649939,-0.5460296531977757,-7.762291175070718,-16.68398278785544,-14.073683966811913,-8.618543300354961,-6.919580918591478,-2.87066821780326,-2.307224715767699,-12.494466706854164,-17.376401655200176,-5.504264571482224,7.282308741918468,8.231010079551114,0.8523869680789682,-14.742831061790937,-34.24344620127827,-38.8352773704714,-28.660681308225534,-26.475783878357667,-26.657148995797364,-12.58895642426697,1.8567843312920314,34.54933898727506,141.69826952523982,329.41605421137797,519.2603514171187,452.53661706947946,-147.03955416856007,-893.8607559564358,-925.0961255739962,-273.01768725898864,141.99608420300714,83.94261014590262,59.84686085454865,136.99690235511508,94.80119458734676,43.92446543848159,71.25346131425204,61.600187609276944,25.222479044095955,23.633917123875953,13.606037993303762,-11.353693802760223,-16.958955744023598,-17.925375613743203,-24.456503713612186,-24.796939669310312,-20.79260306105121,-10.910380869027993,8.130583135837423,28.96524440060817,52.53838306774787,80.36057349176008,100.23247060713851,109.43364544849064,118.54870837831282,127.22925517122039,127.48315340127198,116.51317482942059,89.6747127635495,44.25178002803847,-8.219204159990852,-52.847589320253334,-84.31137658919008,-102.24440017984494,-108.97878252856366,-107.9250803295414,-98.19177119763255,-81.51874257168534,-66.1499770351916,-53.83423694216016,-39.370604114584836,-24.70884220748647,-16.25712306151214,-12.375734493562398,-6.816494198301278,-0.3188928329282845,2.142882109257574,2.833502461419627,6.4965660850390545,8.829834260305816,6.13642715324864,4.986147337690284,7.722736367923891,7.756649343993116,5.392243135663515,4.788149422516403,1.9663326466386923,-3.111362178849081,-2.5371665476596474,0.8667523373081432,-1.1011207546007746,-4.279723884242612,-4.566892056331512,-5.216050879404413,-3.4488115591355495,1.2883015178960031,-0.30436673081003995,-7.351231485596102,-8.255294935014387,-1.6276258103189285,4.339976859302665,3.7231481565005815,-2.4910841467460365,-8.174011249882938,-10.550788541809297,-9.511761095115434,-3.116604853245182,0.7202458563770255,-13.356217752242557,-38.69580269493242,-48.23181955156876,-38.2580704190592,-31.100961091175222,-28.194138875229843,-18.600598073818055,-10.451346731553324,11.33962302120863,92.70381156639174,269.9372360810384,533.210839396742,624.2934031495311,116.88633504435248,-755.3366364830985,-1018.1660971782909,-436.34333291955033,78.33482973588303,70.74274255981285,13.769064221727852,98.9871321939761,95.06313091403203,47.69232015819378,72.35452039048135,69.86620104991903,27.37019937969511,20.663520575605343,18.5309749124745,-2.420897267626521,-10.62932813077974,-16.502551667640375,-30.14044894080806,-31.06848080774732,-22.48807227648125,-15.238581450108475,-2.0880955747745986,17.829440124267148,40.42011915636892,67.08290539267445,93.26808145631007,112.87257909031308,126.67258929257046,133.7150562285224,132.29635357973135,124.19999912879125,104.64144816668754,65.71949334961762,13.215752360765508,-37.52651536192594,-75.91862778083478,-98.02592179117441,-105.41058306660216,-104.20085737661933,-99.86576394237471,-92.84456461405867,-80.40356576778171,-64.00817297807302,-48.54877810950069,-34.298273667903516,-22.477084101360006,-17.59742084973532,-14.503599894512977,-6.487572482266831,1.27096300927899,6.659126479309521,11.509626799192091,10.438479117263626,7.512008030027568,13.150070507860665,20.45714196153549,21.839569290506596,19.295959608425125,8.263370465007913,-5.7950806595944515,-7.479126526320559,-5.926214187651102,-12.45852475001708,-13.876625496146874,-9.24107581232838,-11.087974159894113,-13.061698358644428,-9.424022678565686,-6.705254103939554,-3.8444509875870096,-1.743133174075112,-6.411150904201751,-11.211488957140219,-8.2323085178677,-0.5949312067901156,4.601795378886508,-0.5486548826689894,-10.298610983018365,-5.970775276569226,6.377356242690545,1.2363174368509018,-17.723078200770388,-23.861505051931985,-9.464373703921726,10.584150277061088,17.980927589952557,4.540939411955858,-20.362929702133002,-38.043135348949995,-42.91525749960577,-47.61559889727734,-54.40974748125085,-48.69803473587487,-36.0071448705576,-28.81085683210752,-1.315504392308739,104.08350050866238,370.082692199267,733.3616240147819,711.3784064612487,-77.61021424971145,-970.3930126813099,-951.4303607510334,-267.4320278457211,83.44862715672936,11.073875803619217,17.024277291790362,94.94655559710164,67.32144153431214,47.0480981538075,71.64645849832839,52.91318899961104,26.179814095606233,26.425797322684506,10.227703657179354,-13.920418059875246,-16.639199933131813,-13.587937822638077,-17.953443345510046,-27.297959072937143,-31.69313219411179,-14.508284881414802,14.495173822780814,34.51449024301697,56.71163159671653,89.11616018675903,112.46746665413085,122.69534303412976,129.49264068816768,129.70480054369764,126.30526777102094,124.11717220238529,107.20842688815243,67.85327313144256,18.843023964043926,-35.760729284506844,-88.6330125919419,-116.81175794611238,-119.82068734721216,-118.56697033621592,-113.99665161921963,-98.59674366041233,-80.44784118672433,-65.3584764811197,-51.47670549087894,-39.3166630838758,-24.930972911355404,-7.450206005125146,1.3367102333115568,-1.674506979201663,-3.6691503741032356,3.8325290494612787,14.8680212616564,14.685537406579458,3.562235270553737,3.523052482241207,15.344883332785086,14.872713647457683,4.7634980051998985,2.464329830569416,2.251391149382279,0.33809486461141436,2.3254401730527654,0.04157663307492321,-7.809100440047537,-7.168897657839128,-1.0670271458924532,-4.013840426697794,-12.405967515938737,-14.38298722925282,-11.644289985116911,-11.147741113935691,-10.447522021669382,-7.360971698658556,-6.681409672718091,-7.147845647991494,-5.711966639301201,-5.9857458798984355,-3.546241901913895,5.213711143643838,6.28054873487001,-2.618308112656023,-5.694969867893079,-5.836540474421991,-10.272392556218332,-4.715159402972479,10.911577526145187,13.782878118490363,0.00902856641928862,-17.17772705758447,-29.951680770249375,-34.512858521196584,-39.53965678814289,-48.62477360088492,-40.21446985218394,-25.006629473740823,-31.501411745671298,-16.061644075184766,68.18379259511184,256.1558552830097,615.9121257747001,863.9499558609759,367.9751330089781,-706.8548682394279,-1210.515805169074,-733.8576938739573,-133.88991868974063,36.581519154329534,57.07789659594853,108.37042979591479,108.17595156265351,89.5290283490158,88.51890100218858,72.6167722463857,57.214736860312826,47.81729637935368,25.42839738459044,3.8802110200042286,-9.329134046219977,-16.919493186408083,-16.81897747594645,-23.50603554220801,-31.565780180825747,-18.97846318791197,-0.9820306540441237,15.094354531941171,47.783845807887516,78.59466167458565,94.40378088951404,124.35199736065566,153.18378307785235,142.52252368826126,126.51667384179872,136.2068783959976,128.7529876749717,83.05361714491535,30.38096173849816,-17.104091124429587,-60.96517164363663,-92.78480658001797,-115.86415297876442,-130.14633486503214,-122.14983382449843,-100.34124383442915,-87.08491896992315,-82.617959411946,-74.62650717388689,-57.139591524259245,-32.57148249397207,-13.39405919798618,-8.495269174965102,-8.559113794520993,-1.7879086375896094,8.451720213386741,14.826144399571671,20.777938485791832,28.867965331198015,28.07445822343808,14.794015809891793,5.634722926706785,7.445290709624068,8.209059538571218,4.222908179178711,-1.22400001658891,-8.36600636042397,-10.007252110035491,-4.227955415753554,-5.071784378363683,-12.406132574607957,-11.719319205951837,-7.029350010767683,-7.81805481679155,-5.724024835318854,2.221841110474525,0.8717943897693612,-12.46968448320301,-18.577106844050434,-11.867179303401361,-8.561412081717807,-10.977167266340203,-8.044318601230941,-2.9515822583851943,-0.9556196178734258,0.08428502303349106,-4.44305404249312,-12.861301588964036,-12.79084291699949,-5.5692848988561465,0.7363752044657672,4.982250962540178,-1.1511018616342898,-21.74685088994718,-34.86718892527056,-24.8227619693394,-13.287749470556502,-15.74879320982664,-12.563803975934448,-0.28583946063276144,11.62208200260362,61.45830681967951,201.0132136546231,430.00953955084555,593.1007681235176,314.06868492190756,-489.0653789952881,-1073.4572186864707,-771.5900098443597,-101.64596069586761,130.42355610450414,57.88147224965203,90.49599144180347,136.06000406335357,92.262470835866,80.60859398837079,92.54949832375075,61.985880290472366,34.50165823366433,25.781028584384877,9.336143164444904,-1.4070646722667632,-6.021354550988486,-18.814508776730634,-25.080088398281884,-20.684916961184758,-20.71356698663442,-16.5299562172886,5.046264041253501,29.504288901787795,47.13817169131516,71.60909744635231,102.0249225855483,119.84883006889945,125.92568402579627,129.94970065533772,125.86147579099338,109.0714139152725,80.73165992103371,37.1555578235312,-13.972933224500963,-56.25474073876776,-87.75213920267058,-108.07731532280636,-109.36217121813733,-98.30638517765136,-88.42177514664463,-77.51790984243559,-62.155022568441694,-48.02956914721939,-34.530191287044545,-18.067556010597045,-6.971789131939204,-9.86930278737291,-17.54397917652151,-14.337805603909427,-1.9846972420647297,5.6153418635479895,6.747635813818013,9.140928590560481,10.715128174081435,6.825043515452874,3.126340940734239,3.331904772417243,3.1304895296133415,1.7762763287733447,0.5348933352275118,-2.553916404685509,-5.214185074228308,-4.09452455127671,-3.286556815271936,-5.424758953776381,-7.148272473993718,-7.849859007027614,-8.199549771647508,-6.679799022654217,-4.801900469508002,-4.396946122190062,-3.7083789585416556,-2.6873117143681062,-1.8341380538534793,-0.2985254245447724,-1.2075120539362754,-4.835241315859136,-3.6964249138290484,1.8661221809063182,4.216095220150526,5.134338828064194,6.754401587802622,2.9857412754803025,-4.1302293931532885,-5.153135156361276,-0.2709266684894116,2.645998227357382,-2.6569549155373355,-18.05772252428839,-38.296045654115986,-50.08082306068776,-44.776120605014356,-35.49322825356223,-34.41982906467386,-28.424781802403505,-18.113177275024523,-10.404673964108543,38.52114257806672,171.35180377171835,386.4625482616503,585.8008864824517,417.1512549629544,-323.7049500033048,-981.1881146749527,-768.2239569791053,-104.32510302352387,126.10736460850956,20.93931778732194,57.03259788495146,129.39520104574927,82.72221193039493,63.63239603295646,85.24979053728667,59.717691833428795,35.67828984016691,36.014702465557946,15.485378531460507,-10.303413742754472,-19.79907508092574,-30.85448959828497,-39.18409464803743,-31.720841102740586,-21.547285370001006,-15.934095008190939,-2.4314022920955125,21.76708092336684,46.40791878885078,69.45808769934516,92.73285403555506,110.35945736920402,119.80979764632146,125.02200363632019,125.17147800983552,114.79393214609898,88.78352189325008,46.27806472072729,-3.749655664377734,-47.18540172933354,-76.54311274744306,-93.93311415894885,-102.9074456856768,-101.5395365337069,-90.33301106063848,-77.16825927457595,-63.81115944094904,-46.722481096653894,-31.669902174337288,-22.23770667725568,-11.654280770700165,-4.154279005310443,-10.23432395490315,-19.288250775058522,-15.161994489347613,-4.15968496632529,0.900248056885399,1.5094323058765067,3.235298938861156,5.147534164742398,5.655201047023985,6.293499677320934,7.472418038894131,7.426522410516263,5.054661858484315,0.44042195071806756,-3.497937553274287,-2.994433140678961,-1.6092344872684805,-3.4498357279829435,-2.8120556901961358,0.4401523167249328,-3.3605266200006483,-10.035842843608807,-8.057266395995423,-3.386358846707968,-4.773364672134804,-6.325072873946631,-3.597725585553551,-0.2879311988888871,2.936498979304074,6.104332930799924,6.084138875876396,4.110455976400008,2.8854554456667243,-0.121531058554182,-2.981787473437519,-0.7356065109056242,-1.3936478442759839,-12.35829829702065,-23.09570399227488,-26.100239087537826,-25.17413499440303,-18.066176469072808,-6.126797436532819,-1.5570700543341713,-5.963046040277738,-14.73090294492334,-29.236022881411092,-38.90922115041791,-34.750492515405824,-32.993705983987866,-36.13700167239904,-27.628535557042206,-15.724088715524243,3.5371245796573803,76.14147577944425,252.7719170601565,537.0179408799072,668.3461887322117,183.66557196216885,-723.142880774681,-1045.5332572162042,-475.55195981582165,73.39518441177967,86.35978550252817,23.400353617730957,103.4363223836026,98.56763296433061,44.27739571405955,63.34883480839902,67.98650446830237,37.47888028031665,30.676397893720605,19.039287697450696,-5.27350891646787,-9.913167285580105,-11.455193859543154,-21.31571299472975,-24.687496484601645,-24.403511205353766,-19.825628414015767,-3.6313291364087164,17.426704818060706,39.36793827617274,61.582589874271726,79.20629941749715,95.54526477136837,112.6600900729623,122.92893228019476,125.49630061496728,123.25254307831568,110.84565023746092,83.77818310478634,44.14189877624495,-2.410232108042747,-46.29891813742451,-79.50615261873202,-101.46057898841588,-113.13783106992686,-111.44589676770622,-97.02706230358532,-81.33604928524855,-71.883981551427,-59.82532750617125,-40.71839222262953,-25.90996254162694,-17.919827361130917,-8.164081886941045,-0.2933250471425666,-0.3012929488830238,0.4006944174764673,7.335256624096701,13.114588691040558,13.465056143415284,12.203424354491226,12.216225031728172,12.975605671829857,15.090221003509964,18.70659691181607,15.428194276033743,-0.7643834804416656,-15.155601827150557,-13.90957361917993,-8.688418461756385,-9.76587747255767,-9.693500284440068,-7.860351949776829,-7.964294956592047,-3.5679806141080217,3.274401111520966,2.6920858361460898,-1.11722137543825,-3.3253127837944465,-9.345004515660108,-15.683666696541533,-14.750756963802141,-11.982046685406289,-12.331902140132714,-11.358561699886184,-8.337994457849069,-5.863208241886319,-2.255894050505244,1.5615633189963365,0.4803327141532048,-5.754150407291881,-13.834161196620656,-20.354689423414307,-18.22255545603703,-4.884132137531509,8.505560265403536,10.70250737230407,0.29178617617665736,-20.795363852375566,-41.56682785117272,-45.46267237439286,-40.356662729578034,-45.34866127014715,-49.19054383299209,-41.64588352705899,-36.76851108768292,-19.297513895148118,53.30113435997414,249.407241335086,617.2198583684697,829.7375705499097,290.39526482985366,-748.6482145012296,-1107.806347658676,-497.83995619391715,50.41624248608501,44.49451175733445,-2.9551796588324493,93.37091764162577,90.96063336441114,45.051480045043824,68.2537811058682,66.18109206599348,32.6381128742747,29.23848398461694,22.38256545148694,0.5159125586415136,-6.766648136374288,-10.960330914851214,-19.107745114164892,-18.638312720890223,-14.25184340810691,-8.19280651218542,6.638865645924774,28.32236899058323,50.70461175079248,67.84472131570168,78.79935547916008,92.37166997688541,109.9970599960264,120.66373845125968,122.53604322800419,123.3548979161173,116.98412557562742,87.546228556318,39.62965199815865,-6.392655682901346,-48.04375172779463,-90.88669213285937,-120.65194490188091,-126.88791327932869,-122.24484700758727,-113.80128463539734,-97.06648907737048,-76.59574909391702,-59.06395395373119,-43.37237008852525,-28.4031008445367,-15.316137685242964,-6.186865032392191,-0.6792828466237353,6.096975169391303,12.962684405890878,14.118460545831455,13.734544620093732,16.76745310330974,18.269550257913064,16.119235504850664,13.064036136146505,8.54905959186295,2.9835888754727193,-2.075220828725337,-7.254517640430157,-10.599228414056526,-9.903266681388828,-7.960841177736086,-7.3647180187356565,-6.835904547550113,-4.344109971021252,-0.9298096872330959,-0.06551122026156442,-1.6247918140082156,-3.859136794611171,-8.512458791450221,-13.496327969086401,-13.285638147025466,-9.657546075041118,-7.024624058299672,-6.088140396932509,-5.849645946323424,-3.292179494355196,-2.760395925559516,-14.128856484839282,-26.398916720095087,-18.972536620236998,1.055022661796091,13.698577724864457,12.863883521636922,-3.5107366461680076,-29.372512405147354,-42.459633521629165,-37.081108913450436,-33.9154980902409,-36.9201940827556,-33.762762991876905,-31.657352349941785,-29.278526018593755,3.353706607348741,119.21834991110094,415.80584925659196,781.1365453107953,632.9547656373909,-299.14550424358356,-1105.1197621764363,-864.2416915045994,-141.04780048088207,99.16389457302323,1.9235699487635287,41.62762658571262,106.34702054969539,69.14033080356012,58.64176293633925,70.85719792037015,45.73335840283168,28.830075384248246,24.808087735888876,8.204618220377904,-3.439272743806307,-11.819231302062434,-24.82031837020705,-26.68304427917274,-20.554099877759533,-15.503419384366442,-4.301528236212246,11.273352430479648,27.788899741373136,53.159402935443886,85.1237553360379,109.12223266342102,119.68885525839283,125.44403599262972,132.00184895845882,132.4167346381251,123.72246382584258,107.43080441982747,70.65346792947801,10.500557374585117,-43.98052362949623,-77.35860464938239,-104.2253897058367,-122.79895626805047,-120.5407756235015,-109.50489719340922,-100.22299490787643,-84.7384461121836,-65.86279804514919,-50.468051765141475,-32.421690394617514,-15.672708230935154,-8.511036250097892,0.33903548144738593,12.692639383971715,12.762867809162312,7.947606951082928,12.410220041286701,14.13235030493649,10.742175427199141,16.36968019653986,21.745978552058556,14.901019113814462,6.368352941016688,0.08876108198571675,-4.147451545076865,2.435580686990127,10.059634773062301,1.852136235673699,-13.056096460669014,-22.917063650101746,-27.979691457601803,-23.43694945016705,-11.374568643639002,-4.978925565081262,-6.046022826617902,-9.108306067095587,-12.128441404344922,-10.083321644330255,-2.946772627123604,-1.9367269728962988,-11.885183604807164,-22.717667002546126,-23.453314533399023,-14.279246746251541,-2.8127932780533307,4.2986574836535985,0.13374298995728395,-19.356997882208496,-41.00929644702455,-45.65504604506683,-37.849374016844344,-33.7517258542548,-34.191189337320274,-34.451484207730864,-25.679881037293903,4.18609326018683,74.74149374401753,290.294648330672,685.8113633058745,811.2442815251438,123.41614247932452,-901.7242546379798,-1138.158062711314,-517.0794897274213,4.876175422903927,66.5083082598698,58.79671516337379,115.57405823160838,108.36857224075905,81.04754028331045,83.88880269896403,68.42064951501617,43.69461786984274,35.1499839048215,23.81447022796758,7.445460963981004,-6.236280888383311,-18.49741269209927,-23.027546697770198,-22.36306258833502,-20.704591650639706,-8.55789607195852,9.867746297491507,25.213651526584798,47.38529585632266,77.09950367494258,99.94442325550315,115.40720284483547,128.04790115884927,134.53124963173937,136.61379071315758,136.0888097239944,119.96579316824466,75.01793861190728,13.616870560288204,-37.425075199735716,-72.43935995910505,-100.72066084008164,-117.75195518129091,-118.2579578446095,-111.15237061547418,-101.2539832509535,-84.8847515477353,-63.13292167890062,-45.253328282946,-39.41464624459913,-36.600748418538586,-22.046209788140246,-3.6366391482084666,4.658892561981201,7.157140115658661,8.394415243629952,5.939829307608356,3.1071343423820323,4.5349882907517625,10.87658844736605,15.492171149744717,8.103223800103631,-1.7574790758497905,3.4997542487595705,11.688860576291486,4.652197198098758,-6.726220172594632,-10.976286764756306,-13.697953068193359,-15.571074463479334,-13.536239728190468,-12.026771106977371,-12.975247077274236,-12.332883117235365,-9.59496663480623,-7.486915338511842,-4.0111846412545855,2.0211214551539314,0.34600034216973263,-14.008782630909405,-22.7587477395988,-11.598035654498712,5.647733317405393,12.003169410253555,5.859160572419886,-12.206872078595106,-36.934113208982424,-48.436325588061095,-38.51142981642063,-28.137582983106178,-27.913615597619895,-23.853998792467678,-15.94999665116132,-3.252196790620161,50.65679607977779,203.1857508367175,484.88244645586417,689.0257822723837,335.61224742145777,-571.5090606402817,-1109.6528162889226,-691.2972355152087,-31.171226926645858,116.19538209103737,27.41121607316976,82.41545490362776,124.84760387785114,76.85880134969952,70.35575015839493,78.90599209106519,49.05790889489617,33.685423721944716,28.145773149841187,4.002440674689975,-6.706555134231227,-4.665704084057801,-17.67914973213484,-25.676529911783913,-15.724321060665673,-12.266116769160764,-12.364269879619897,7.154848085842289,36.73972305685543,59.96898700795341,82.4159982914927,102.79405199360491,113.1338067738447,120.25691981027015,126.03598051939895,121.14271349143473,105.66393209771925,78.86929308159696,33.32796734884227,-21.172238389107065,-63.33093955202146,-88.84634003271074,-105.65022760144406,-113.04239368735885,-106.81274916897158,-93.47302963867895,-80.45032208331028,-65.99042806854965,-51.34840992991376,-39.7751241767502,-26.440921949166416,-12.736394988928105,-6.1718992474580645,-0.9468144860391803,7.269078613900536,9.736949392846793,8.494572817723258,12.275975173118113,15.092319864929756,12.215637972757825,10.368524543712155,9.959836512489689,6.04510367213452,0.6376311238912118,-2.598492745637267,-4.477063300914642,-6.420632410129051,-7.592589460980352,-6.912136083851056,-5.291254244317496,-4.195837512415009,-4.120368791004335,-4.236357205278191,-1.9607943878181189,1.396094353710831,-1.3054584507334557,-9.059057108608702,-10.454903988736621,-4.818353645761071,-4.440114554539793,-11.596505250936229,-15.623030926056256,-11.558973653989565,-4.405139881470513,1.1126988261004183,3.2421862713816965,-2.0481075863528853,-17.24669754059741,-31.235897899851974,-30.86135296546564,-25.06742119071653,-23.519198199564606,-14.361525076520744,-0.32722065038528303,6.645147037756011,34.25032966204473,133.27763249605093,355.8228394540819,620.7924066365908,503.657316570362,-272.9791767824762,-1032.3801845054345,-885.3209155558905,-183.31751974720615,125.66664293807268,41.228200819834626,57.14761065808058,128.3314988244714,87.02834174188153,60.70859153993038,82.65809196237437,63.43134243375728,33.437014103073324,25.65446503125055,9.450231746506475,-7.088059698061525,-10.893318129784742,-17.007960125075,-23.512546141618728,-22.914401611350108,-18.032782749470904,-6.786914425015123,11.000252358191567,30.987966489010837,53.17417971458241,76.3996136752386,95.63336456896766,108.02557546762179,115.08390603912395,119.92918568785946,121.0021984184823,110.9457490776902,84.71252944845568,44.98569389296314,-0.26850551002003176,-42.41010053316444,-75.10923948503338,-95.61771651125345,-103.81550578946721,-100.17598698271497,-89.5424431980622,-82.28426550583929,-78.55555947096502,-65.75621722059489,-45.661096364414526,-33.37315292463334,-25.447548358070538,-11.685890581751881,-2.0741104187850894,-2.183215934748638,1.1806440958671836,9.61382015600776,13.020343371002443,13.015827926505743,12.771081484394664,9.49640238163277,7.823688141088088,11.44591209963665,11.293863697686586,2.4038825453769945,-6.061326876353851,-7.446467111678837,-6.663937801341174,-8.033161424555212,-8.84199195367732,-8.00581904506939,-7.871803286285276,-8.211703441209858,-7.514529148619722,-4.2046364878089495,1.788753307119598,3.853509816108903,-0.6895925995420047,-2.2020940570735243,2.680833268734813,6.64236334684019,6.203134308749922,-3.5371691953310176,-21.89700564669638,-26.471233192662524,-8.359081324344476,5.308019527761026,-1.9477930003517088,-19.138689060423268,-35.97537059698385,-42.43987707154269,-36.52878364254441,-33.89332543096583,-33.06781953046016,-24.359189713665934,-19.859806226048995,-5.561279292135545,71.74137319069885,274.0215262903101,597.0519790442847,707.287437934303,125.1944817902454,-815.9101246863216,-1050.1164046828503,-421.7929962866873,83.7846291146866,63.743611061053045,16.5437393352084,102.32563568123305,98.64604103238511,59.03609619504482,76.60288723114702,61.69877338506511,20.342308167334707,17.48569447472419,17.07784072425714,-1.5869896975296296,-12.793952131706932,-20.1413870995307,-26.749890933980012,-24.38619361510583,-19.145445917346922,-11.20226466729213,4.551007058267917,21.95205896430855,40.43667820193899,67.02843521597345,95.35331540305017,110.5317502632903,112.31200619225025,113.83958317147325,118.05639986112578,115.15567477758123,99.84036375158803,69.24137388494833,20.33319187990474,-33.63316575483149,-71.91191217204417,-93.0676851603628,-105.73085029279767,-109.55038309885168,-104.06053037385828,-94.2166605582585,-81.68991528220639,-65.46907431506658,-47.58326624011077,-32.00028746321262,-19.74788935296611,-8.889265497712998,-0.19471038729690804,6.244794348575926,14.459038722453178,19.291739259999378,11.29221973491126,1.2924213437703074,3.93063298861538,9.077151700284691,6.755800090665203,6.529579517086905,8.253136627765748,0.1995192132948418,-9.838188903575617,-8.701686684423967,-6.77350915243251,-12.95992835004394,-14.498493521482477,-8.48800779184287,-7.708799613153992,-9.402275773701259,-5.144048045144949,-1.8677910748582907,-2.767729695005661,-2.6358216826338374,-2.2366776424229364,-0.3551870498258003,4.346892369284518,4.766572840016941,-0.5095542034933676,-9.13172352392047,-20.724618401433077,-22.68884548374632,-11.325541486103123,-5.360857135349187,-1.2388884074299926,13.003491726994133,7.44418818371539,-29.08460542256101,-50.56097713675897,-47.897486594442455,-53.63005888863876,-52.06824896590764,-32.3870756868232,-34.77568705875625,-42.2978258572448,2.561710287102784,138.3443213185608,467.34414180880617,861.1419304621794,664.2515884449726,-351.48241913568756,-1148.0704736157822,