ECG,-6.103568659365694,-10.751495711264184,-14.095852434262763,-14.727147516761546,-9.513336119465137,-5.87027909046834,-8.64984957105034,-5.658790464287669,-4.063331387990029,-21.361404887667728,-31.896778411953875,-14.899597018969377,-4.698391441487537,-19.28025955390512,-35.77182234396602,-51.2972638129224,-77.71085600177652,-106.67017958036436,-122.36168488628054,-127.55031376963593,-147.18168098821215,-179.13767844606,-130.12009956956058,160.06515714558083,685.2855806023762,997.1488682850188,611.580690940808,-125.74442647176883,-404.0679794920791,-217.43855619409192,-141.91429238204128,-208.13894824355444,-156.44917632340417,-90.38327393095864,-103.48607321300547,-78.17663365186687,-30.798681200095672,-32.38197525034959,-31.05978012709015,-12.331338765674984,-12.298910611659764,-14.374418219489932,-7.9947353767668865,-7.894048483407435,-8.941465713750802,-7.367052744661011,-6.60495694696051,-1.757942583695403,5.591986508175166,11.869399231098779,22.2802154969321,32.795512757896056,32.07483188735305,26.526345334335197,30.199962712400065,35.594752918688336,28.629118827708957,18.216848870788418,14.996643668094366,7.748108548013054,-10.1491843277272,-28.120141174095785,-40.33587307445582,-46.42590123452779,-44.72143852797813,-39.326863721086966,-33.380257750965086,-23.91092135038766,-11.416325953425412,0.18418679712096697,4.926501353819013,0.3031052959003482,-0.27041114540146083,9.567938025622766,10.725150202899838,0.0685755435868014,-1.3900062211302213,4.388774868607717,2.970718053691492,0.9429532438092636,2.56476813987884,-0.027225154209785885,-3.8149959237026074,-1.9686214839470324,-0.19834714255588182,-8.910064312146933,-26.94313193418257,-36.43547195957125,-26.073301403231437,-14.633609922092589,-25.92533871925862,-51.56786020253051,-72.69536748169206,-96.8888538296175,-124.71825024518716,-132.04112126361656,-135.13792119977077,-171.29179597894196,-193.94171062207207,-61.24865322256535,365.64595360133706,920.9127674833533,992.3490680657463,321.5243485072591,-345.37811972886857,-359.9935113620893,-152.28866221645524,-189.86673543338838,-224.2151299227537,-122.73771637396703,-95.85024259788824,-112.12671558092605,-58.48813090918025,-23.721693657811272,-31.518164470746036,-17.60166422930707,-5.308346588547867,-10.222932549897621,-5.4625396293850415,-3.057851283827354,-9.180300478392393,-7.623027677445773,-5.373791688003161,-6.0466183679758725,1.2357976003526616,12.306450516473179,20.35318169198116,27.83750728270479,33.61509986598706,33.91202684701367,28.201808025943215,22.058842496663587,21.584538502047984,19.26555381205584,8.035453460509734,-3.0204276634572285,-12.755324732026779,-29.00465378617383,-41.624308028619566,-41.25506445062052,-38.08160616252215,-35.13812582453345,-26.12810733365044,-15.65145554430474,-9.285022332987971,-5.421607843883205,-2.5211859795836187,2.2039110668772395,8.134746952113444,8.628072707536923,5.985305140759731,8.092374454371978,10.35418354801499,7.68118173038037,8.891629273267677,14.87912360853968,8.953605490095235,-11.47215470060485,-24.321027915135904,-19.108267307499837,-14.93562013351487,-26.23956112001614,-35.545418153749964,-25.600418090782718,-11.567952953499283,-11.278649407854994,-21.818650786083666,-39.92971054459569,-65.26426987063533,-94.48138285713424,-121.26357576534281,-133.21626107430848,-141.02610541095413,-172.15087372764205,-198.30859451688397,-101.9240197621055,283.19078465685806,878.7953034028535,1080.0400544698114,468.3579087055113,-293.1782379104745,-397.0549549311904,-168.21448244895143,-183.70418376423123,-243.79801066793414,-139.94068799313692,-90.574680026713,-113.76069614587718,-67.33012246819459,-24.094867316029287,-34.40707073215124,-22.76444633473733,0.8974753008198277,-2.3085740985494425,-4.30877348874397,2.3540519596805893,-3.3619826393230525,-14.563048906113274,-15.438618208158978,-8.8607997359513,-4.475530710532139,-0.9163587962339568,9.417655610568533,23.56210301309536,31.760410160351395,31.393041864919837,27.139061710047944,24.54560203891608,23.487059618525002,18.87105138647011,10.702537958096702,2.9515627686793744,-5.764909246492517,-17.049617264349372,-26.07386721483566,-28.79539329453398,-26.57289737805939,-22.266766821105133,-17.105737313894984,-10.314664685430598,-3.367237839227938,0.6110131509688657,5.001176040021889,11.800768324224293,13.278067458070534,8.882293982513655,4.424479178694705,-5.647322650669434,-19.215676351703245,-19.42424261200292,-10.562945084398498,-10.164675675979598,-11.562188515378798,-5.3420690656974585,-3.296352364880015,-8.088870912783705,-8.802263192615065,-12.90189024424581,-27.17185278733239,-29.00389193304892,-9.035336077963736,5.327108365806471,-1.4164568920892293,-20.17633121100895,-46.87268058683904,-80.3032544720132,-110.8281683709489,-126.11188411881906,-133.06258681443194,-157.62323950574572,-192.15650244182743,-172.17260662809284,40.374971721813665,563.8496036631262,1073.3710882057953,883.0961832188957,60.65389012475981,-431.0011471669351,-282.63543440843426,-144.4487580384726,-228.0195555600647,-201.1391510933252,-105.53383586598437,-113.33237729810847,-101.61764248343896,-39.069007437402874,-33.52121028281273,-41.36998004178756,-12.50534118918699,-1.8147563875482895,-10.361055204696807,-3.1373539443492042,2.6976302268850247,-4.514092311604934,-7.782294119323238,-4.0645267663682425,0.5787335717425508,6.914254999486326,12.034741341939542,13.00096324451446,17.92693161794054,28.286470486041047,30.229716344228038,23.184828719698615,21.101049832673056,22.043434012603985,17.17561152774447,10.866815175264389,5.746156390588545,-2.679200221957527,-14.084820023857397,-24.39134317554955,-28.427435319524996,-24.415823329103834,-17.067534877369777,-7.357052339087083,0.121777984909345,-7.79372502860625,-20.6784306029908,-14.344607542638444,0.3389527801763048,3.03010466193145,2.450923256833523,3.7144610381035434,0.19705990100312398,-1.6146077428450472,0.04927159920711155,-3.2484463036412254,-7.157860579635795,-6.251207543160099,-5.804286912206955,-6.123150724419672,-3.6575291837958606,-1.9601465543982837,-4.913081408809013,-8.428025551481245,-10.928128619489108,-19.75969749883218,-26.921841438602616,-12.777808403245645,8.695926763285849,9.015331008842708,-6.776561837254196,-27.266689411025403,-56.3492382501612,-90.34355353897335,-116.55853221766289,-125.92383418566791,-134.16429099265244,-167.08142440691722,-194.74643109294624,-116.73670104331451,211.63637202885403,768.3195002116688,1041.6453243241008,546.9167571750502,-212.5411963316445,-395.79797974709027,-181.7491373675419,-166.06427629512586,-234.57013099965616,-148.69258841439364,-89.300071200366,-106.83603674844318,-71.79255593245959,-33.94726790928182,-37.15617782509051,-19.257520570957897,1.7942234315753787,-4.300117499260939,-4.767266708661786,0.43597675439041694,-3.9355302974535213,-5.466688591357531,-4.833340580903739,-6.9746895053485325,-3.8001536009913455,2.1050381489830947,7.071275390114291,17.237184231422795,26.813416780017057,24.821182638012026,19.473382523964165,22.485702842960983,27.544793637807494,27.22813634452462,23.987743235683034,15.950433234415149,3.017739421396462,-5.786168921695065,-10.226035005056815,-14.08796487309335,-15.03158480629888,-22.853864747605883,-41.46581600057255,-44.3491460070794,-23.524721051321812,-8.24346196050077,-6.487917684201664,-2.5746804482511525,1.8354562006937165,2.046696295846715,4.620065948581516,8.871637197692412,9.909913117347786,7.720675578334346,1.0856814023706338,-7.924901889019617,-11.372995656074663,-8.930441454850225,-8.21277176739096,-8.644974474779021,-4.493732104522188,-1.914884317717231,-7.4692258508047935,-11.048414653128035,-6.839549122979996,-5.296920209727272,-11.464145632476807,-21.305998761749557,-27.432063487045482,-18.051092473681344,1.650288305485466,6.216109428668369,-12.096037386082157,-36.426488739426006,-59.66258470284217,-90.23430099539223,-118.11447932236288,-123.28428236454162,-128.161842517414,-159.91773550339732,-177.40522013720013,-77.42058323271253,283.7520063161163,834.2281251427829,998.8087370000444,396.19798206006783,-310.3332145236966,-373.62278139545015,-150.10007965756512,-173.6180880984156,-225.32414701392636,-125.52120550952971,-86.45479006378011,-105.0744875137188,-58.53653079155103,-27.12570810232633,-36.601213962258626,-17.519929537253688,-2.5981781436752236,-14.697900506093863,-9.34934832352586,2.4896333202757805,-4.184324920207178,-6.096381957406585,1.8147706366672978,1.4357562969700481,-0.0060029751871986115,9.639287919259552,22.409865831893782,31.85461630869917,40.54238982836321,41.712559829723986,26.759924475698398,9.024977081871128,8.597421650781467,20.13125550929941,22.686261999503223,9.664998148224557,-9.551150267124594,-25.828506842762067,-36.96707586878657,-43.02435843220995,-42.03529477846105,-33.360229905150135,-21.463523519926092,-11.962558495815388,-5.3440771700526035,0.9169567876434996,4.808700960493772,4.381481713765096,5.66671570768539,10.069361236215176,8.182783852495525,-0.17348843205402886,-4.322284124317168,-3.626620214823687,-5.573575972419283,-10.361013391029616,-11.868444290718099,-8.258308593774016,-5.3809815470758995,-6.239009011837391,-5.347007338369963,-0.9219963723724103,1.5221291909852912,-0.8298645796295148,-6.534455880666137,-12.334292361153917,-15.048619817717206,-15.886568113553283,-16.889040766126357,-16.466526563636556,-17.14297960387685,-26.858952259296206,-46.599661769007504,-73.25680901456487,-105.39586297877703,-127.73679858129067,-130.96725229944877,-145.18970906929053,-183.32715831862743,-172.2795405283889,38.88411796670806,539.3695005278391,1016.4470197574699,855.7399058083132,91.71078744273275,-410.8742370119255,-298.70062294040287,-142.64639138717064,-209.2841692110735,-201.9698856137091,-105.77538108614073,-96.95035602093292,-95.87836021348984,-46.12362571759159,-30.735202597041337,-31.985425034343017,-9.77932246304801,-1.5927658950927963,-7.079490955002431,-2.7816004072878755,-3.2193381148993083,-8.062881227131458,-2.168978523038529,6.341474067589152,10.128760708662575,11.927487997284343,8.209995932660341,4.3833552832682745,14.624804226265347,30.133599873511038,32.36115242662315,28.41259012145081,27.619363029968216,20.9555936339022,12.565506557676583,12.440611738774038,5.719749248068609,-14.52396839083379,-30.788802061754637,-39.732443847676734,-45.86069925171992,-41.74639216219221,-33.45495120826439,-30.982339283180774,-22.58261508587218,-6.425439145606571,3.053427010715028,8.670993961000795,13.24464961862482,8.133978585912702,3.4440760437404343,7.785588479499442,5.160565667341186,-3.6000701263695554,-2.682532190968839,-3.0700340435987385,-12.67129376662622,-12.354649558614058,-1.9409564994073385,-1.5203141969460887,-8.005863624503121,-8.336634085724814,-5.7928636678907495,-5.829491693506185,-10.51118026520004,-20.824504871489243,-25.877165509769103,-16.462018981634323,-5.511911150944286,-10.247953624558718,-29.950818309751448,-53.19827462903288,-78.1551858102582,-108.99675387349424,-129.95845658009173,-132.5339457075576,-149.7589044191216,-188.08044898617896,-170.7577211678528,49.981593779511684,572.2726053381474,1068.8224591769135,878.1769777770963,57.53912714833382,-449.23465950618,-305.3889489308516,-150.0982260966935,-227.8121773801421,-208.30767537235175,-108.01179567685551,-99.70539714550154,-78.69177321479353,-29.452695083217563,-47.68847355080571,-51.584072791367554,2.615288362567343,17.5038995262093,-4.740363159776155,-6.586381065990256,-6.753163714421863,-10.767719840330042,-4.462021981265572,-8.369117541905347,-18.571632453069206,-9.99892693056731,5.898414408826474,17.838164406127355,32.25192399245577,37.56915385556172,28.885879599513814,25.21707741313159,29.326338143807646,29.32803739827197,23.508734045295384,9.638463537047668,-11.11653174051364,-26.03386365213665,-32.83180186478255,-37.47241509328978,-35.7592534259333,-27.304794318703163,-20.74809112137313,-18.060407000131924,-16.901517948934067,-15.289187840182432,-10.758272800890015,-5.633625106215391,-0.6421085833939184,6.526064466966906,8.957893108807491,3.6404328658823086,0.6046151553644918,-0.21842687841238018,-3.9708355614922883,-5.473875700326467,-10.487819884579409,-22.054885810371005,-13.801033361309262,15.590782714371805,24.72625338653169,10.318803477172295,3.594784797703614,1.2054962997531486,-6.131675436116645,-10.703432383777415,-23.921148338409527,-41.85625284611085,-29.867697026629177,1.8220651352652038,7.903961645877705,-15.420752548839149,-43.35011680469821,-68.60445049930249,-98.87954450779534,-126.06982452142918,-132.0033967303903,-138.84554648062453,-172.72048341915578,-178.84885468850334,-26.15810032769886,415.01155513182124,967.0517681099723,997.1798879254656,277.02109187706026,-386.45829379325755,-367.54248453342825,-155.4963803435772,-199.15672598260494,-220.2408376866768,-107.30273977690686,-78.64986232997464,-96.12082386944299,-55.1980199118821,-35.460094526881036,-43.61783620575307,-26.771649220217732,-19.67149207718043,-24.428288629072753,-7.284508843437347,-2.1128138898463895,-24.515120713545542,-27.171388329550275,-7.310673703049343,-1.8925594119084312,-1.7716163214479472,11.343079125467302,20.740709258689698,25.36752794701268,34.639238239126946,32.776845331875826,27.59827092226356,40.50471761737551,39.84105941109263,10.210185639551376,2.5462209132046514,20.766687505908926,8.313539999588443,-30.219985077746056,-45.43344504635368,-37.355490194980725,-31.091774643396164,-26.33029023933682,-15.999625811925954,-6.85448906188077,-10.146107839926774,-21.197525280161283,-15.810115328821318,8.791084920127238,14.218983955784473,-10.644300933301976,-13.828201299109727,23.884399746060314,40.07351866509048,3.8265095831170264,-30.286962938011122,-27.342077407793024,-14.552367781527177,-9.474874270128572,-5.076319249636276,-6.108644943684233,-18.65556603754586,-30.63876832329887,-29.39051783184235,-21.59262560465072,-20.860527517889587,-20.871974860435568,-6.4697954971090645,12.37542939314315,17.232834052850663,11.996188553508649,-0.32497624407480075,-24.554445905807803,-50.199432102353356,-74.83483840359443,-101.28281259846652,-107.3717529834644,-104.15366088428372,-131.33473915932808,-143.28546538969763,-23.799299550096435,313.65195792112115,747.3039817080328,803.6866848855424,235.87258018596515,-344.38814380851545,-339.15589026441626,-125.95700466591194,-163.98292361035084,-211.899399623656,-105.27480192123366,-60.714710339622215,-87.02872177124897,-57.54000773012268,-27.39075527272665,-32.56520681839662,-23.062489149005174,-6.643197418385798,5.959893514754807,25.610726804086546,26.666031187010326,4.199325678876409,-8.11513352874254,-11.638513810625462,-25.605857548548478,-30.698749153434687,-7.244800264222407,21.40365320809362,33.156271486279095,40.73999864762155,49.173108669038555,46.88029926991237,50.74974746821756,73.60711583930569,74.82935629755968,38.847203820965106,16.143756959957066,15.043563504345304,-6.4184481589676325,-35.691336487846094,-42.20746646137256,-44.1794322228527,-50.82054347484539,-49.948591140306135,-43.440240098308266,-28.265324093384496,-13.405054273479625,-19.8066353489511,-24.186000544803704,-10.853759333471075,-7.930619438572752,2.0094956596139566,37.07589929497672,39.96048939983898,7.619402242039198,5.622384777732766,17.223532306512702,-3.845134861269962,-35.88750109800024,-54.32347586153316,-45.342562175462184,-3.3508967756213686,21.468294894544318,4.995641870279903,-1.6579024751757174,2.2959022589942535,-26.59394163659116,-58.304295732995264,-61.308827177637596,-75.9985649036286,-103.7640725197065,-100.70394526930686,-94.58725854486882,-106.10644594873744,-20.740485144936173,268.16659392717963,625.0843211396104,692.5059920571234,286.72877311273896,-226.0004066706427,-338.0436225481968,-148.51562196524623,-85.84511602647297,-148.49981417494783,-123.67647781919302,-67.91049288147278,-59.56098388631385,-31.998153496678956,3.7840215101521437,-3.694887219551827,-22.11251677517138,-25.00667832807904,-19.548895709475744,-8.220902189783555,-3.2047841693760173,-6.9789455167789285,-9.461997291578687,-17.981365219457977,-28.89752586949865,-14.51558264951091,25.130127240848857,48.69198775134706,33.78401723714722,15.694577538114522,28.535682326208622,50.351740789022344,55.57294960637036,52.95084848434446,47.578159674444535,37.207018310206166,22.499449909924934,-5.545113548442487,-38.518145523271755,-50.42465984603776,-49.25518268433581,-54.07025258794326,-54.19641386290926,-45.59070143049932,-34.00599213313275,-10.572473387693389,7.282373149367913,-14.356478927849018,-42.483282146927394,-16.50444433136815,32.6271953771909,28.18840428475032,-12.00550226612429,-13.491925447182766,15.386008958471235,17.585428244429472,-0.7212212332412502,-10.078329708684095,-18.615735172104266,-23.71816822029567,-8.217566571553183,5.167616603303255,-13.160446146600627,-39.610054778288045,-35.25028072242575,-11.896660085222978,-5.263175029481252,-11.343162413332424,-13.483546758136974,-25.154841770530183,-51.27426027606855,-78.96491634903543,-103.14460909972291,-110.40404181381443,-110.07100902168108,-138.871888595322,-146.69055316966484,5.754371716895264,386.2136706387052,806.820799665729,810.9063525356112,232.1599206283201,-335.4775736408033,-353.2503259244952,-160.15484193976596,-175.5931111361968,-206.48408359936332,-116.90029539511069,-85.17441854724949,-98.0082259368597,-49.98753481696483,-16.768558160370745,-29.666531682003644,-23.969277522175297,-8.993413048406243,-10.735378221423868,-13.77592445242967,-15.150983792087075,-15.642396464695222,-11.46055290867369,-9.604508107222106,-12.104205505372532,-11.73404576126624,0.12770558331794746,23.881937679868415,44.483687968363895,53.32184071540267,54.932709565513235,52.39772738990199,54.192350698381894,60.51961296488595,54.26097559103224,39.78938899584401,28.801405512731478,4.9396817954307055,-26.477478922353587,-35.807974549271364,-36.807620141407625,-50.172736333650256,-53.54018651640645,-39.8465832379741,-29.606482101971096,-22.51225074919756,-17.19372216889039,-24.618759239493755,-32.16554961210156,-21.585960278422387,-4.992818681234116,1.2030955866962998,2.4247487532521923,9.15680356356489,19.10090854281598,22.43508786612115,17.291385802221388,10.068946281964548,3.4662182343845895,-4.368376178685185,-14.307571646260671,-18.57201417757441,-6.483047737718142,5.106028627228817,-9.12997060603037,-30.074924814309625,-34.71017510938227,-42.386979045149054,-64.16991489244398,-90.04368902085469,-111.3432203900678,-113.08840976649292,-113.37741820470902,-140.73380011936882,-132.41715077928097,30.691480091505042,409.16389151797813,821.1924375349723,778.9381229356667,145.28706466868786,-387.8985593889098,-321.7004621600204,-120.21350936537279,-175.0880042978568,-208.45137755127138,-106.05512546450532,-71.10303952033283,-73.11957990326282,-24.368134071645265,-14.719892014102228,-44.451735788007326,-32.13888039938816,-7.852040406719755,-12.477049820023716,-18.436561033735988,-11.868168550413369,-7.235581596678536,-11.501567868616146,-15.553696695916408,-7.728207036543992,4.03483313885932,8.966452831405078,15.543037071281965,26.986993741975024,36.40370644985822,48.0207361695598,59.77443850477528,56.56102267520629,44.81731602594108,40.711028413736145,30.207504393176077,1.9241538542475265,-19.675200222340578,-25.59248328368084,-36.421792947668706,-45.83863289974764,-37.806279786050155,-32.88334188551737,-42.11316504828789,-41.3976288674722,-25.888908744591383,-14.555235773312848,-11.0792684707549,-7.505052176651047,3.3994779689817696,20.37822154382348,23.388817036974995,6.500846345950098,-2.679550180043454,3.142915768424606,2.739056213849123,1.7798200714302599,9.613394318736216,3.026156754884413,-16.060286775329644,-15.902948918121563,-5.654041931802361,-9.898570102682385,-15.541557040223879,-10.133571106339886,-1.437170297753818,5.795435079990892,0.5628734041607188,-22.388725329193655,-44.531004981390765,-69.73073261964673,-116.33346655806942,-147.44972694865783,-137.5422979109846,-146.47465668430982,-179.58822253339258,-109.62693687700184,173.00812193090522,615.8251401001892,897.6586799254214,616.3427378006475,-53.435869765186354,-395.3633142110048,-238.9449141538802,-112.2448613500778,-183.40101099418888,-176.6893975864345,-95.21831360660202,-79.36394944803885,-66.35678717845879,-33.922723088858916,-32.996653287223396,-25.484478169581838,-7.213195129273712,-16.579711458098327,-20.95879571211156,-12.842222764944854,-25.901969606848404,-32.74905334313407,-17.606988778539225,-18.59458383894766,-27.422049637364577,-10.587341809130038,14.17535554020742,25.718064128803825,38.08540091645915,58.47956216470854,70.27528134466579,65.32545262890703,61.66453138448692,67.69311613456415,59.1344002240701,29.5758137567608,6.562578176765849,-9.593503579606232,-39.433117423136984,-64.93412853517158,-61.43506032565452,-47.81620866831052,-43.894586875354776,-35.037659791202934,-14.311893314478358,-3.2372531879611,-8.880945320855389,-10.443210267792715,-0.8958490281311837,6.702725947131145,11.07801706398877,15.775325230340016,15.182461875489526,13.032803050237025,15.645526069575801,14.892725392087772,9.797041773188518,9.18789139748206,7.898028754419956,-1.1453379410896254,-11.44421115089684,-17.370452078018886,-18.33290589110677,-13.960857289141142,-10.50814641449912,-15.190987247526607,-20.008646806939836,-16.837015418659135,-23.216555687003833,-54.46231158357174,-93.77760446854249,-122.12571463416168,-133.45911291845616,-135.56222094423848,-157.9191815895814,-183.9757856976983,-117.49670026849046,139.6262952620691,596.7236843403534,967.090965628824,744.3195999171774,8.629864238463107,-430.83228920974153,-291.2722606582832,-143.85074376967498,-210.2008093481218,-191.09946869553386,-97.80065381888373,-97.13111828317113,-94.57419018981633,-42.46558552632302,-22.760369381255543,-17.368561848726223,-3.3339427324339788,-13.347079250392053,-23.78323234795639,-14.133822219181354,-13.417090988450042,-18.567846777251383,-14.435197006876779,-17.85568248924961,-25.356678604740868,-11.70400299013526,13.924625982516288,29.001822755369624,40.79125359390969,56.70151234590398,64.0275332359327,63.92001057854412,67.52241315204246,65.30917997655905,48.16094793467239,25.17317898080187,0.887819938798429,-23.564189615654303,-38.65479998211861,-42.94528610070128,-45.155247104750494,-47.744975787713464,-47.16765000439093,-38.87758236605933,-23.848510040658326,-14.899327985742843,-16.782361229261966,-14.548436742595882,-3.875926409506212,1.037466786447169,-1.0561160120925273,-0.03841444273767891,3.097707782102921,5.570383231819443,10.202569499485524,14.589182042841315,15.632711927456413,16.355300432757964,18.41653313060162,18.288226469011867,12.71780619797359,5.554934609387804,-1.218101358507834,-16.25108688494469,-33.56729399208257,-33.16087230996821,-23.500604419659744,-22.33864669027666,-23.278392198564454,-31.145552477799676,-59.87492762740028,-97.20063318202067,-124.7163321649337,-134.55470151781088,-142.33213905824556,-177.45208547864743,-205.6941689066931,-129.34873431098725,167.26983410376778,703.5794039571001,1067.2384914042927,685.9851647831349,-128.82001293772464,-445.5037694425486,-229.86395251382237,-152.18355212045557,-238.25445379292796,-173.1613740784519,-87.78292809785583,-99.70228801378477,-73.71109353224188,-31.57258111538011,-43.47241296820118,-34.48785550150545,-2.626327867696503,-8.149725686063718,-17.755399782182344,-5.348554490972646,-3.030343018162572,-12.991789668432318,-16.87076541877053,-16.4997387096439,-16.149137756937673,-11.016349629928364,4.405025412171659,25.449173322633126,40.30503502193788,47.32398165865296,52.01476076673436,55.74464525631043,59.045318340993745,58.01493857862662,45.17271739124322,23.350574032371064,0.144435108046699,-20.4407698529235,-32.66066099485955,-38.47662619299525,-46.0024393459482,-47.85572774034027,-37.726195494196986,-29.921546121664957,-29.157332421339845,-24.086457786118405,-15.516984664890852,-7.292111612585668,2.784901695945681,7.64740393228782,6.638528417642632,11.226867680249788,15.973417895440708,14.071312836326605,16.928611383903345,16.587442306346333,-4.296381993934439,-21.960220655094695,-13.977152127182292,-7.881800029791368,-21.6519362711542,-29.62849383421309,-17.716114042476946,-2.912119667145994,-1.0268054921270888,-11.036200215674562,-16.228951319563823,-8.56301323983952,-9.5756258681429,-24.549407299292966,-19.892052270338908,3.5811501003553747,5.659323680854106,-10.594125953260917,-24.939929524721556,-51.402768580889585,-81.46186231706471,-90.52680032034027,-95.68932944776122,-111.89055456941468,-136.38541875448865,-171.44353068536273,-176.61867255378618,-50.610914256916516,325.03584211038697,854.1651994428676,992.6297242688443,391.23879030955334,-310.58725269687494,-384.54461186780406,-164.37884622897124,-177.35668273566438,-225.99423707648523,-129.5982717818058,-86.56944345221483,-104.36150346495579,-64.78647131252318,-29.3412157342364,-28.237658311996597,-12.795497706851615,-3.4130194143667865,-9.458549315145373,-6.326207777632732,-8.230110291404749,-16.471429647787893,-10.71403130515353,-4.847645914643678,-11.181712270763766,-13.978423851290776,-7.43641415187923,3.556283999185883,18.61299269587523,31.561461784661628,37.77604411668953,43.37123053395926,48.69809180301107,50.11636716379522,51.567513461302596,47.08276913171543,26.809582303256025,6.8441239459971275,0.44179310596125454,-8.632136227704253,-21.450436414075945,-23.33529704480876,-30.709269134012974,-53.85522320876992,-60.74618976570527,-40.9922988893337,-25.848360523148163,-24.474323661874458,-18.32166119949465,-5.155276527827867,2.2852583191496514,0.7676521348748171,-2.596260273482116,-3.1763267349609645,-1.9966439824478215,0.2784268645675674,2.014747469533617,0.3419287015284027,-2.1824786029729957,-3.2235233818751166,-5.694067747196243,-8.798793369289964,-8.866054249868672,-5.773225092343912,-1.3370156131264288,0.7186447663812494,-0.6866779414862343,-1.5606756608683092,-2.6451073720734293,-5.290322365715735,-3.0505662423165134,2.302682308985185,-4.417584140040546,-23.360816258432095,-28.51488647980374,-8.080699730182067,9.954914069698557,4.790220216728368,-10.421744585150321,-29.275792394120586,-55.06328663602615,-81.27241472675611,-105.37684856868987,-119.57505060109014,-125.58744513507541,-153.2518860817391,-183.7395611779449,-127.24574639308153,133.22885502570733,636.4855969800183,1012.0892410986851,686.5737804983225,-95.27488655328293,-425.14762909142183,-220.56863607339164,-139.34231101386717,-232.35381097617304,-173.741902528954,-83.96383711472464,-99.3497195359869,-78.48122641203439,-24.958080639865774,-25.95026434191346,-23.012085916484985,0.6654024411971644,-1.7435076581995332,-4.92116372472082,3.3972231366655663,-6.602451152309435,-20.145491769141067,-17.489023329751426,-14.307785465434485,-14.166316660329155,-9.982707675459078,-6.113618702041933,0.5233850200994752,16.155198863597125,32.79290781115411,43.127275241498765,49.04641398235964,51.12134589684904,49.306856100350146,46.83795762258585,42.69237230477742,26.243761813647872,-6.765311578629044,-36.67315772983639,-45.81322721186093,-46.45315132303827,-48.11564571962871,-39.7995948829235,-27.704007731233762,-27.40585295171512,-26.891038829440213,-15.34148716257879,-6.995838321701221,-6.507405738461067,-4.364455114408978,-2.662763793999325,-4.750668805553124,-3.9848542912035576,0.5394585270692698,2.225542168545397,-0.1835336269848753,-2.0590652989314755,-0.9803295394720397,-0.7044859247116566,-3.9609414614152474,-5.773606340809463,-3.9756241765658817,-4.348853121262437,-6.378255157612756,-4.086338404345874,-1.398819913335572,-4.019161938038332,-6.045977167602651,-3.555706356068809,-3.332007415133905,-6.853424132645735,-10.01860915770151,-16.19552662998914,-20.74634023742247,-8.764094350151815,9.403304151130168,10.467168092147627,-0.8314598515347855,-14.812011701587647,-36.438684344725864,-63.19180374315873,-88.91620724230106,-106.11396194080618,-112.18342710398228,-128.98629467102353,-153.52657262822171,-125.24759846401943,53.5716072113685,460.25199529427164,856.8218486155481,699.9611188363631,17.977047564073203,-391.1272698844648,-242.88235814407238,-103.76608076820362,-182.39200105352197,-171.26565997530503,-79.5895255862211,-76.2660483983632,-73.00114729183304,-25.877815656636287,-17.39685361500787,-21.031198167104638,0.20858926312891768,6.006059285091954,0.0866959249853565,3.5572772808791946,-6.984123767372726,-28.31855793157169,-29.43269843130009,-18.667008116205608,-17.453109449998028,-15.964927516482767,-3.3242132323061524,9.876325212106934,17.36407934384259,25.788176638856296,35.53705158936097,39.017570660519034,36.01314082526573,34.42067815241355,34.40913791056451,27.288081292428277,13.054422859015657,-0.9768750851841084,-13.920735204655275,-24.188751683402113,-27.56413549013751,-29.5505667192855,-34.49259602704696,-34.74304116055407,-27.85053456865846,-20.24177272106973,-13.675262007932147,-8.358556442909393,-6.41641957839051,-5.575695364260261,-2.122914553879232,3.9616753937210847,8.95688876371314,7.3414915504589455,1.1909557560905508,-0.229179240524779,2.2733897484766548,0.626015194868712,-2.6619819131404956,-3.2690188356884065,-5.612974957043043,-7.710814319494206,-2.5492317907304827,4.0945629228552765,3.7126096691200257,-3.1096249641637836,-13.152066600334006,-17.70207595569269,-14.067716775640374,-17.03728313914258,-21.75507162610338,-7.773438584542976,5.366959627617295,-5.088754868778306,-19.25594274860542,-31.47858371086391,-56.43420431278163,-84.67740857162562,-105.15033187002777,-113.85568410131341,-115.83636557368668,-137.9867865567402,-154.68886865105037,-54.947931023140285,259.7732803622132,705.9084963713283,869.5028198812257,412.6851798780055,-229.08129081882305,-364.80733188070406,-155.5630224835789,-130.96842824993018,-197.3498228284073,-122.0094154267949,-61.45439593586041,-80.44935563863575,-60.84131226324848,-36.70033845782741,-47.959609344346944,-33.24050114221523,-8.35057555122615,-12.64504750657396,-16.407203925345677,-10.078881217460655,-9.917548531888308,-13.236425771090374,-18.592919249070547,-20.931353208899115,-13.034037378660795,-4.715667031443841,2.6398356427791203,18.615203305879458,34.697158903209036,40.467092410548375,41.38667110891082,42.68560269883906,44.31549908210535,42.95367698495306,32.67582988226615,16.563251822207924,3.594282864574729,-8.087540436374903,-25.554006860715468,-43.52281151055371,-49.85534175057725,-47.217972815287496,-46.747780889257925,-41.84741928661576,-24.37006737301545,-9.505663302408529,-5.2409289596842115,-0.06721884752777996,3.27629626602066,-0.30874756742307596,2.0106830653660257,8.174282999019816,4.740079801209028,0.3911051067013105,0.28976585490087814,-5.851373644707575,-8.865605785334703,0.8094944146453411,3.5602830369266893,-8.011013275840991,-12.419746346619835,-4.562373044741825,-0.5306955638519852,-3.5470687040877813,-7.477664214685877,-13.802413185726294,-18.786146115522758,-13.833734425792088,-7.741712767935123,-9.101294936689648,-10.790992538449546,-23.511598223192447,-56.84491323605988,-84.57084588610293,-101.05271664190447,-121.01681323023423,-129.70881054846015,-141.53585963227394,-174.50209789263545,-137.32640875032456,99.58072699196953,557.2767860981219,971.3799106370146,820.6245918950592,83.33458769764908,-431.46381259525856,-307.6502396219679,-123.96760865407379,-211.55146362710784,-227.3373484956557,-113.96811858836651,-97.72885449719894,-102.69071511781178,-39.39127047950671,-19.60913790632111,-38.536310389979626,-18.382928183098567,0.1647256973617317,-9.422040676473614,-10.584893091620202,-6.358567746913479,-11.76747808955652,-16.11674549616592,-18.60000394704869,-18.860801889226686,-8.351489171949368,3.4176662837417204,12.070199014338984,32.35187837321107,52.1902185399361,51.374497869661454,50.1082256370061,55.35917915314689,40.3025205449481,17.939791383740104,15.370797528507543,8.482725835114607,-17.33182232826645,-36.32313683378151,-44.809435734873546,-53.322848418446284,-53.718724013201275,-46.59054080779515,-40.14130006277044,-31.456247886886477,-21.795605644700267,-13.477523395700654,-3.602682934903436,2.6058032040037773,3.605818236027666,6.952666401879182,10.536791493754004,11.31534795529497,13.143746040230068,10.419379158963972,-2.103913042548145,-10.886300957327347,-2.1922625981427863,12.24070313078408,7.9757053621335094,-10.673975635818204,-12.430681681709117,1.8973188672254295,-0.4837770436983746,-14.009306544171519,-10.054989913286645,-5.147722039993427,-17.31265752608543,-23.414951252391397,-27.79496060275304,-52.86495539821988,-76.44178403488944,-93.4589425916692,-124.26315024439312,-150.5508845980662,-173.0333107775388,-193.05362276747624,-131.82286864887072,87.24264558403257,505.16556819841344,962.1242022988513,897.3166001509878,135.02800078941175,-464.3161305169474,-331.38081909877394,-107.34112012835632,-220.0671372460508,-244.43373740326663,-88.82307592561482,-70.63951580051894,-117.36319433150297,-62.266125924328804,-11.287725228009023,-15.989308736806564,-25.615329012263594,-29.43741692107419,-2.1155150394646114,24.55523832423048,-18.353483702129452,-50.750665570204134,-2.440242723063207,16.487227026990233,-26.38034807092263,-23.74023146071781,9.929356836193236,12.46223190198863,38.257970442668054,77.52025843684095,47.89423482849205,16.900489160007805,60.04924766656413,72.98933835732092,11.015404426183473,-17.658861229449553,-10.332269319750022,-34.82070792891835,-39.04915688737812,-12.944240087773677,-37.79930706432394,-56.89264867928673,-7.615004910550189,-8.18826653320841,-62.49328305576601,-25.518496779451464,31.082563511870497,-16.167663449425966,-39.90242211742223,23.59231419001523,34.46478941477787,-13.298316280240105,-16.7040440053386,8.207047934037998,19.00713869457721,11.990819831720035,-13.147653377094928,-14.1683422313111,11.313579474921431,0.546633988285885,-17.37867477280448,12.024122710536805,29.76458019664142,-0.8051829387977492,-24.115966085229775,-17.40020426932125,-19.506107340136182,-52.628924862923895,-78.87557296685623,-80.76422029735161,-111.11289222177756,-142.59657865135472,-108.4570501622974,-109.96536148626174,-182.93489078385818,-112.69231092470918,201.931142725897,615.6195683947155,860.6955820522297,595.9260737138077,-60.31313095409578,-395.0341981076342,-218.75682449361307,-101.87470292049842,-187.8620133364256,-159.04631899474828,-74.97782475434332,-91.85074768155636,-86.95160543181326,-41.351777734874744,-39.64876048316621,-32.9226592999566,-9.223135295333556,-15.930803306998534,-22.443448629570483,-15.019527957846527,-15.892752118992476,-8.953012181875835,0.14747686180164976,-7.0417097317114035,-6.836507054860718,6.4855450287734815,19.63021757369537,40.36280421020795,52.21579343958109,34.865210200167425,18.597241558580958,20.129233520461547,14.853278277974884,1.9730407381116848,-5.958818276877473,-17.735096308082504,-29.122424618049816,-26.26509076596429,-22.77829779350857,-30.361871715565506,-33.04237682201658,-24.21614060123423,-18.555378497631413,-20.33079099655543,-18.305461455757737,-7.576382775321125,2.230518174999446,0.8774067514524013,-6.254787045802342,-7.572341322391143,-3.7234454789973235,0.11100024404245623,2.508948343224926,-0.999967745650288,-8.530992460889113,-8.8531755093201,-3.578121633630637,-1.6422652875734087,0.3274594160142037,2.9983008034751304,1.0721749487590984,-1.7152106740186817,-4.986255270875372,-8.115914638634653,-2.6506382718685018,-6.104668753095787,-32.674666135243726,-43.87066556002492,-33.61625050217122,-52.88814284784065,-91.14082379132228,-108.53608480828852,-122.51942275632966,-136.44617786985336,-144.89314391228174,-174.68731177288333,-180.32499392060922,-30.802200408571395,378.9660175247857,908.4466821053593,994.3995111033511,327.4256919875189,-376.7119715249032,-391.0528699385279,-144.74865846547243,-185.88034380778012,-241.7734159605949,-125.31405057763405,-83.14153611528936,-108.67489766815727,-60.99962108098691,-24.910728679678016,-33.75556021607537,-16.851722514970742,-1.6313484220008831,-13.597092773350631,-15.365249041989252,-7.134516102224076,-6.704634610265501,-7.702965575970065,-4.119731913922163,2.984313738482326,7.148654940543649,8.080192643958313,17.391448916787855,28.35579551300417,23.22511408298365,12.461102825243664,12.551054546785643,13.849381015156911,7.071839673110919,-0.9504059299115148,-8.032370687553604,-15.968757767284698,-19.739788556138496,-18.37047625349807,-16.79971978359566,-13.99645031143029,-8.339979250361557,-5.603952588384367,-7.54198567245934,-5.425929301104586,3.7842783805975255,7.976171914340146,0.41135100013711146,-6.944549216457414,-6.3849401721526,-5.52348528412668,-6.373574629828706,-5.205877316331502,-6.301650958247988,-9.060595942076494,-5.6908179317787315,-0.7378650173133217,-1.020394342802609,0.7121799746601649,7.209586882425229,9.699304644260183,6.782418140238995,3.049393001293815,-2.649748164507656,-13.76263757068358,-28.49445680369236,-37.20943307757342,-39.48844314877411,-52.845965923175214,-78.53980289155142,-102.18661066765074,-126.5875194997944,-145.06103021476642,-149.3723038287875,-170.5232878911488,-200.7190795056858,-130.07022467967624,195.17571687348192,777.0800496857945,1144.499297532989,712.1101084746398,-156.79343838025747,-477.4361321813943,-233.434837918315,-153.65988473758313,-258.4748069707363,-188.82773860776373,-93.12963069038128,-116.66443970545296,-93.47211617361882,-31.258394892264818,-32.866943199637504,-30.73170981272615,-0.9978750641440435,-1.124568934968618,-10.099882258948746,-1.9017764978568508,2.747097162870137,2.5073448860658285,3.3180701887111876,2.2903506604189907,4.31955621011196,9.351502752987868,14.22461363381396,20.002711442165296,20.6489142576562,14.340568656190596,11.23603698854107,11.770148584720388,6.516936194450304,-1.6615118520872874,-2.5854657405107107,-0.9569486873913808,-8.709703926362636,-19.119517320290516,-17.778812741089503,-11.083788616541398,-11.30903512267679,-12.933886990157609,-9.765870568198382,-6.881923788363923,-4.8086660135800425,0.0018041582874932516,3.952309448630004,4.572136420207732,5.3620053362456765,6.79269491244599,8.658463090438824,12.347517064686645,12.096392575725535,4.498087680284241,-0.4745847786687296,2.3103165579110083,5.990047283652933,4.35249721057953,-6.899116395247894,-20.34149025213623,-20.57459067939037,-18.083749220776507,-26.938254794020537,-27.87956662379706,-16.41233355822162,-16.88408836992134,-29.3814508458499,-45.502216419799744,-70.86547485272627,-97.96083491325686,-118.63971029721331,-133.3589125249206,-144.33621763802907,-171.0441050945044,-205.49774160348824,-150.77779853995588,162.36504028673727,766.4658271883051,1183.742483048104,781.4590294769642,-109.80586519750486,-477.2745115787867,-252.5751761936748,-162.04672374829528,-261.4734197771965,-197.79929315155178,-100.35304382438116,-117.5085893310464,-95.73282726899401,-34.41179615367825,-30.324313529761277,-27.902803181251507,-3.964549031403868,-2.412703751620935,-4.3382008559693475,4.376656365343489,4.249034901749679,1.7641942410671483,5.5491216942752395,8.31867255106313,6.77535496365821,3.8294176777153037,7.882711153411793,17.24669934930079,17.775426960101303,12.511780856277671,11.778915105500595,9.412161476811573,4.077621686120061,2.786586442759261,1.7608765026584077,-0.5311329850317696,-0.10449780330684799,-2.604380446612392,-8.9485377343169,-10.631432777265609,-9.419475782805195,-8.446147358782763,-3.9978266657374566,-1.0946597002859395,-2.9130481936983195,-1.2458678732184083,2.107999731657509,1.549032113903082,4.058932289802515,10.059762414286684,12.714202206736921,12.81676866540871,5.238540670126575,-10.697619569633266,-13.422140843362394,-0.874462525658755,0.6041054180694996,-7.812353225988147,-8.313637865153861,-8.91200573359443,-14.932850966590525,-18.073594652278455,-22.41367610916587,-25.53068342898994,-17.524398392312868,-11.428673758501283,-18.70415806297783,-30.558801350960188,-48.69067410339158,-82.53073724838396,-120.37822473566447,-139.3843557120322,-145.62499490439066,-170.55444399525652,-205.61121983739383,-166.94473613135216,104.67338521978388,683.1130350981701,1151.728595003641,847.7984093606568,-17.34790308415505,-453.1230607116822,-272.7027107185942,-160.20709293794,-250.61686350927639,-204.0344551337033,-101.97229684993005,-109.47365921407182,-99.18365889752485,-45.95760189549138,-35.53556302819375,-28.273906987510465,-4.978637886488372,-5.615281584703368,-8.746244007372631,0.5464439936514189,0.23658900922304227,-1.0501440053655635,5.198986750625409,4.857605253336271,1.2837512087970682,5.368719447282144,12.05147292786382,16.35563953833103,19.858957277643214,20.602077164247767,17.452216703690922,14.138691810438912,9.586230958342181,2.302696946216135,-0.18728166355293885,1.4112639669123253,-4.930535552021757,-15.063599827829893,-15.889898506893962,-12.932188320107961,-14.448254899530356,-13.32055066270086,-6.230786494598531,-1.0330828213361665,0.2897191062215736,2.3825854036890326,4.459332895449681,3.4743042085786007,1.9680805690863896,4.065363936696098,10.619603727928734,15.745783902237854,7.745677682322292,-10.505617849779904,-18.15856763196174,-11.772630650213339,-7.030489522804087,-5.163301834684258,-2.2227909688674323,-4.015167569248831,-9.937280579960547,-18.66064211615771,-28.76713836748224,-25.128761949058344,-9.54720065941814,-5.263228860303984,-12.863573457398394,-25.685340066557533,-52.53667209067188,-88.13762382198377,-117.01876566227519,-134.12708317007468,-144.85833784160883,-166.1814333561328,-194.09244365676122,-149.17117822517903,140.20138323519404,719.0896621282102,1110.8145758796302,713.0886075049461,-118.9856642464493,-436.74701291109295,-225.9028221959149,-156.84021758621287,-245.8845842711168,-180.5245306965695,-95.57434630482565,-110.2047613764538,-85.64834630492597,-35.73985895028209,-36.43045731665373,-27.544820486037825,-1.308937847544497,-2.1551227064469174,-5.146970287990634,2.307989103306589,1.4159473672075116,-0.6245412180147234,-2.3305189710414673,-7.916273740734516,-4.792534419978702,3.760792884244114,6.6644809532649365,12.720987500535045,22.75930893600163,24.122438425925342,19.63628587141224,17.32092276704948,13.249771178150079,6.716667252229077,4.622616090498527,5.787630611802637,1.0166143944465826,-11.112871414477606,-20.848067536898064,-21.867913707602533,-18.219365834304906,-12.926695328709636,-5.2553379629184676,0.6772858338809344,4.203112641742731,11.794083682031603,14.762364690006477,-1.4036250187922583,-19.217748528128322,-14.918940892972488,-4.006385482379233,-5.713985439459133,-8.709473369242279,-5.873395044124258,-4.418640141649803,-2.885166767489297,0.13394432219487484,1.1031656953763527,1.8998260995582612,1.539022399853815,-3.8385984494246017,-12.767684966522285,-22.396513532225626,-25.563241830543184,-17.938809640226424,-9.647933915517287,-7.950041673360396,-14.991915414367565,-37.5330098521288,-69.62566384041807,-99.00093097477935,-120.99774327556543,-130.7932467333497,-142.890984724723,-175.99411907181207,-190.50693874618116,-56.70990753599483,382.92388830066534,954.1925585935734,996.0285226661764,279.3510539797702,-369.9909514337287,-340.0034793254671,-139.06791411036312,-199.2396203290632,-225.53386969087893,-115.42715185567462,-90.89179519170321,-107.07704580453373,-61.22932177552164,-34.88951849919046,-34.70649170834494,-12.70996191605252,-2.772627782509936,-7.627605394148649,-0.3422150743237822,0.19739712121681308,-8.341590187003066,-6.488262344347293,-2.7332332086980315,-2.6140638092273853,3.0850072848243952,9.722920906699418,12.409108665792061,17.60659806924852,23.271516989764578,21.915084180893476,17.775927995488168,16.545777860241863,14.863949608562555,12.22143810454778,11.047736383121174,6.1929726071724565,-5.113651754605699,-15.762918808508896,-20.92264024394515,-21.237114199213423,-17.302281034270386,-11.192616365107973,-5.263265889071337,1.3296410561269747,9.202242905324542,12.543983940422144,2.631315873437579,-13.688692346733792,-15.518041261575455,-3.7430360694335736,-1.036063510379817,-8.182487717109986,-8.412938651615995,-3.755203635335299,-3.3240527811015443,-3.065319521118383,0.4814950736902315,3.1830056137388762,1.0321989289268316,-5.370430201879294,-11.046090600128586,-16.089806332377094,-23.55556847797802,-25.25866018581822,-15.168033481671888,-6.463375302507185,-13.912167504855345,-35.826239501482306,-62.03675230439732,-89.18250143762175,-115.10147811178686,-127.7386839155246,-131.6501253475136,-156.06879272452142,-185.72545762574072,-87.65803837155124,312.6356421067678,872.4573825076058,981.5267320648446,355.17129958070234,-312.5727202820597,-360.64067459086004,-154.79620841060586,-176.3768446074298,-220.68115791940983,-127.2228608845917,-89.62273537671385,-108.36902006838436,-65.45010165137091,-26.902534595759576,-28.912044703232368,-15.733175139750497,-4.158240595323452,-11.318360922910422,-6.856508715916959,-0.041145463375222846,-5.749252241535698,-5.658450729840329,-1.0341945873971348,-3.10452017592905,-0.08625850822905479,12.004156266228541,20.737677638244627,23.886773993786083,25.16838497332629,24.583987635086643,24.4348664500872,24.518056171932614,22.711159292608123,22.215244147417753,20.221815128295333,9.052159318989304,-5.719953725690845,-15.893909638474856,-24.7287893615483,-33.02491791602075,-34.72241691222063,-27.825049373566664,-16.464982028363544,-5.784791452570595,5.103325538799112,15.391796873488325,11.814101148218466,-5.5412912557227685,-11.968314376398034,-2.2449663156046906,2.506853252453393,-1.5175214928467557,-3.8160633255928005,-5.0205449655818075,-5.437869928069665,-0.727699377756533,4.321952980112901,2.148075229008727,-4.318899895531231,-8.039399075139421,-11.75466749647667,-19.383902910572477,-20.52767538504716,-9.759693507339907,-1.84561229850015,-8.283238593288125,-27.803681196331524,-54.604315095710234,-81.06276540318726,-105.32227697172915,-122.17090976711626,-127.55632670172731,-145.8486950145192,-184.66375673937858,-161.41846077986008,85.06119684579932,600.4848444782359,989.229955821776,693.2535601937063,-57.10636145026193,-401.21869980078446,-220.51169348898551,-126.41877925277745,-213.88129000629976,-175.2658096722428,-88.61309832878055,-96.40435272866529,-83.3658767935988,-35.39932612677116,-32.82823880609628,-31.73295259229453,-7.517088771403074,-3.3098735364185643,-9.377862925543628,-6.562755695316184,-6.755613047934361,-7.014966589120977,-3.3003301356758,-2.4899080415559247,-0.6773507227476596,6.158423459950826,14.681493056847387,23.739028903063808,29.224183408963235,26.921050307391823,22.458168383451536,20.69075278431687,18.98620963551197,18.383052114413577,20.315616167039625,16.589480344215225,3.381728037087122,-10.16592124622749,-18.653328340291676,-22.932727127535298,-22.441633630022988,-24.085285140686487,-33.37115952079593,-36.01143297649262,-22.663869198410023,-8.720258852545523,-4.016025105395148,-1.035446425756808,2.096324434933173,2.3257020873203196,2.9770504819586243,5.529027577238762,6.3074740695212785,4.6348370106555175,4.133764511954943,5.837484535484789,4.549977658251791,-1.1399825734871758,-3.098214972872876,-0.4182429150468856,-3.558735524365133,-13.95910184689382,-24.105901925181872,-29.99031172160057,-27.25056387275138,-16.218082800323998,-7.910610330805861,-10.7486813119509,-26.970315521249166,-54.31286397364416,-84.81908060901438,-113.34901305959141,-132.74393471952985,-140.3913340804384,-157.90446316032927,-190.7725540256138,-167.53572749096702,77.61798776584033,629.9761748166394,1089.1940632461701,807.4293319487297,-20.944820593022513,-437.46074695057075,-255.48875901923586,-143.6092073733592,-237.43370438165712,-197.08104231570837,-98.34724444140545,-107.37923554409457,-95.68679966822283,-38.18156355441469,-29.128288811565916,-27.68285768203681,-6.632055461268875,-8.478128454504109,-13.748187926372218,-4.901923151022796,-6.5020105435883835,-10.366587631286915,-5.111925185922086,-4.912146564958505,-5.132754663391788,3.8675675894764163,12.52768161754657,18.738494446584546,26.92485252436613,31.11112023560572,29.899737189607116,29.72118263447007,30.820994324392267,30.030673896047677,22.799562581394,5.0376401177979355,-13.45807074674314,-20.781897368640415,-24.517317214823613,-31.844613071706455,-34.019087983470264,-29.608255056712927,-25.196234406507337,-16.61377153108128,-4.264301732953715,-1.329352693067115,-6.249291210583426,-4.976469395717658,-0.8562105471181116,-2.700393474400437,-2.8958340402303673,1.6987218360652738,1.474251390676102,-1.1936495470412325,1.8530314667589183,4.041938101342938,0.4359407890623892,-1.5659322044042607,0.07497606398397672,1.3092903156491325,1.8798261399792526,0.30445286044752606,-3.8913948670681897,-7.011575080564164,-13.566416899634092,-26.845947522336367,-30.724431336596574,-16.932244646866767,-3.851244448351002,-5.163560198850655,-20.474034686908293,-47.55541252559097,-77.90072698682293,-105.96464425540219,-128.1437205559494,-137.99014143197843,-154.58975142783862,-191.14936949095056,-186.32920612711325,-0.645830043322519,485.61264663126684,1030.440237449091,978.8915911020644,210.9003617564176,-401.82704614062175,-338.5222929358614,-155.3741909750797,-223.01706225197222,-231.20259799760055,-120.82919226129069,-103.5499470497445,-108.29062792431215,-53.32410937217228,-32.46066749007579,-35.172287958444244,-10.718857205437958,-0.3532888098932432,-4.817496374365021,2.9119154610027707,2.758221724347351,-3.1599649810569517,3.340976569864523,7.922780639699006,7.600674157866412,12.423927971313383,10.156404669150634,0.2699789089048683,4.504682134588771,19.933341015331024,25.141131462319727,19.963545314282765,14.94398114954895,10.590625281115031,6.947944229522644,5.941923200767205,3.0689310974731567,-6.085002345074756,-17.830106820769867,-25.632402812935926,-27.523444487927357,-25.675035378423445,-22.22951187164748,-19.07384845142439,-17.31123251333075,-14.039829396731998,-6.564449182070171,1.3874590969962597,4.666099304849585,3.8115838244014064,3.1463042928618705,4.643897732887643,6.478186168700329,7.311166535361134,6.597502068817103,2.7067162758215346,-1.8697030115794364,-2.2335475854597524,-1.3792004411451018,-4.406622818901454,-7.556533253224471,-6.375120363721985,-3.6924884318827385,-2.2731924465364504,-1.2649793032393717,-1.5391283304103318,-4.764814266220647,-10.151592198862957,-18.1251873680635,-26.000864358255008,-23.157743166448718,-9.59467683872616,-1.9771320904540968,-8.953956689849026,-26.92062783725808,-53.780671469508974,-87.12633973572355,-117.78716935092322,-132.759661589916,-139.8031032436055,-166.1554643398645,-198.531239212344,-152.87455967785678,121.63873514098628,682.3317202335521,1108.8657811322528,778.6335440383655,-56.214222937963555,-442.094337870525,-252.5683919789984,-155.21529789040483,-244.76975887518023,-192.58513606510402,-94.51988420374803,-101.94447044115154,-84.28283742855189,-28.702643777523917,-26.937793762581492,-31.58624949664793,-7.975682983899111,3.4000564278133822,3.0237182824334816,-2.66440169326496,-19.889889636184257,-25.69720996415225,-14.547188485695141,-9.595077856518248,-9.947344938204239,-3.7748501987535885,4.347423693459031,11.79995889619925,20.775985722174106,26.40916553320671,25.613821527313554,22.696785764421413,21.142813525008982,21.21964723634575,21.429049588281945,18.100796237078978,9.143445943185343,-3.1034226244054173,-15.356682593842653,-25.496052908436756,-31.29694989598978,-31.088068052963184,-25.961981425509368,-19.589405497903154,-13.820323764308341,-7.533773196535202,-2.5044160609414376,-0.5781426684253352,3.234963773429288,8.945152660385885,7.152675522910285,0.3181565051844588,-0.06786243140060844,1.7851783009030333,-2.5384748101307686,-6.782240546914671,-6.2926128718003405,-5.595506075824522,-5.1871084994310035,-4.694348689741785,-6.842678972387164,-7.87205508987809,-3.6356373350371296,-0.6619889983833112,-2.9549800524366923,-3.0424177334596276,1.1114483494239913,1.0218382321051358,-3.210899112226354,-2.4218655339782202,-1.2884912020740131,-12.58329104838785,-25.961788148815966,-20.561863279055377,-3.8902749736879594,2.5976325680968095,-5.44703019091067,-24.27475583268224,-51.10423213056751,-84.81379803126487,-121.23048999606783,-141.03336053853874,-145.7205780793563,-169.2346011326328,-194.9408699848798,-114.5661010813186,225.16965513290828,791.3812668816342,1066.379472586609,567.5028618071976,-207.28187885786414,-406.5203658648471,-188.42108511753833,-158.73099142210333,-223.3902991711509,-145.34904779071263,-102.95164820973162,-131.52683847395411,-83.96544737768413,-31.59461115153219,-42.08170927478188,-31.856963592275484,-3.634620241796476,-7.216942440072238,-12.836307065218616,-3.461894881806785,0.04244939917580837,-3.2671130713284136,-4.5431553170182255,-2.2689832664857406,0.19257040494883793,3.0467239844231933,13.114583083652102,24.15667451016995,25.81163087754962,26.99396264110836,30.986537778035064,26.82109701460805,20.83293769946954,24.32240288529748,26.98756943971479,19.877048829059554,9.263151318159347,-2.888223199921412,-18.019312170355306,-30.40077714206161,-36.45123423432213,-37.39972738966154,-33.35159176782229,-27.579408969842355,-22.544934950379428,-13.346631990590724,-1.9155195815639168,1.7814166084718055,1.3072938033859582,5.807916510036932,8.207506600489811,3.7560509456236333,4.842609225154847,11.129316130449691,5.536174500741236,-6.637899559457082,-5.741357019843754,1.2963110987769273,-0.3575714355700974,-4.0499272537809485,-6.0197259011474,-11.208237625260924,-12.088175215731102,-5.9112346073238164,-2.8931999554218155,-2.029757410368777,0.3969846753705788,-1.4621205349089301,-7.179387500908575,-13.937084020745193,-20.11392306951506,-16.36086297821444,-4.869970044128478,-2.0921322820143073,-11.454028251307442,-28.520739480997406,-53.973497587111495,-84.40492082732294,-108.51725054803359,-121.52816768605254,-144.99584082192672,-189.11072575229662,-201.08817819094497,-85.7224187738298,279.3626394364848,839.7213778868495,1053.7200782936113,480.2088895151693,-286.09539116537127,-413.003643342121,-172.15480532206925,-172.41941033987854,-244.31769176053123,-147.59022543262492,-90.76453032046948,-112.65341809152586,-70.72863565509952,-29.250402803842093,-36.647376417699036,-20.61069520253667,1.1372596063052036,-4.211971906659212,-2.9612737664194633,-0.26250032762924747,-11.0257537013641,-12.154515577687711,-5.299610364741355,-5.516805244163658,-3.6974087250142684,2.7065134629212135,8.983578496404942,19.966762840205742,31.342429241490233,33.58230022780774,29.9049021206205,25.823414448411583,23.35665673381738,22.782705745498546,17.833156927682307,6.591790311296796,-3.936638082968173,-14.27732400541883,-27.096095998940303,-34.521907322678324,-32.59289126431956,-27.86679368889219,-25.98282362409491,-26.965026662667654,-24.06181042655667,-13.02440746827423,-3.278453299746726,-1.0912973781626452,0.7005118233506806,2.8795050133993634,0.7735476336317717,0.4094189569765643,4.718109045116216,3.959760067639877,-3.3401362133608767,-6.473047518263316,-4.389079336692415,-4.914590940014264,-5.724258308188441,-2.0298911889882483,-1.198959468391216,-6.306244505860322,-6.90017004453736,-0.5781755322266129,3.9863299387796607,5.75757104463482,7.60093695574768,6.243044018453377,2.3099069245736956,0.935098189373349,-2.0863440622953426,-13.175622961131054,-26.061483502187432,-29.69570130333439,-22.605666970752843,-18.98054003224776,-35.661582407179736,-66.34075889948218,-96.9074625515047,-126.52143589799319,-143.7213480838381,-148.13191421084946,-171.89821010051645,-199.21301904239374,-124.56727775635586,203.88933259140924,784.11764716883,1127.3546034801836,677.569026350365,-156.94767969325167,-446.71903337986043,-231.15357859964925,-170.92308433925098,-250.84459250749882,-176.58674822404046,-97.6176296606061,-116.62622911295898,-91.83737948821005,-40.31069099694476,-34.89827846288452,-24.979676033405383,-5.6294486019915055,-7.8145386524287375,-6.607894248835013,1.5198894873409365,-0.7035977134198177,-0.9645025985593954,2.3695761940674664,-3.7650160823786933,-11.17856895372433,-6.690969871673522,4.377494359864352,10.657404116449378,13.20697270837423,18.155740721045763,21.14755227573393,19.281124666357435,19.681966848205203,21.090289469067866,15.857560708338827,7.915268509286303,2.262266743812293,-5.505584168161393,-15.957340145433333,-24.00248307875674,-29.356627474449013,-32.3167795630753,-28.721438509475455,-19.720257255387146,-13.70613664580512,-11.197092932943523,-4.586025506551646,2.529126588147946,1.0132562235589315,-1.1351336753246581,5.191870772746634,8.700880151499032,3.655877220742328,2.4615710275718587,7.199864818224384,9.56116671754792,7.805118580673291,-1.2736642681144463,-15.81861099061086,-20.775849580834624,-14.167534229586025,-8.846203354236447,-6.256621905891155,-3.575289717336906,-3.658860061547948,-3.798369788962848,-1.14233560079618,-1.3423543543446215,-9.453705418783994,-20.54475186136024,-21.912024631325526,-11.267446659567774,-3.748547164965636,-10.773492978757744,-29.803345784344856,-53.800699619739646,-81.02713956743958,-111.18760091640412,-129.77276304758945,-136.25696608364504,-162.7316366353919,-199.23313669624872,-153.47108668717334,122.83195980251696,681.3132055737699,1108.5247165907872,780.5269044229918,-55.290951848685594,-437.59705461995975,-245.27799392854354,-156.6698695232726,-252.5243619472853,-198.53265364256927,-104.98548583847052,-116.81162387432174,-93.82605530261239,-35.77755799093377,-33.31322403047273,-28.992253742556905,-2.428346469721893,-1.879379699754356,-6.439308140532553,1.5570454745439477,0.550836353160431,-4.3807663023362196,-5.267640486859165,-7.990473563764127,-6.5558186806437995,1.272879910775595,8.246891501110632,14.50307140493097,20.334389045769626,21.45537687240712,19.261669250106692,18.35392125682908,17.458393543903618,14.659158817946984,13.696234347562763,12.959079915040483,4.947079503766592,-5.846848688410478,-12.03410621216277,-19.19682116342529,-26.555792263213,-24.687517194532603,-17.313835413892427,-11.15735902892862,-9.707361727064432,-20.763709989884667,-30.52478360441551,-14.821888392629496,4.480834665767754,-3.7169921306015272,-13.860859123526996,-1.2919933418222875,7.237495566440211,-0.4712768603785875,-0.5740060669092273,6.431437643005972,2.695312762002617,-2.708716990772716,1.4470912278624262,5.011501283903129,2.9775561567138595,0.6753453289201126,-0.6444014166876251,-0.9010171905045166,-0.838277743794098,-0.7289901150780445,-1.3516275192253495,-11.987383163213668,-27.465405198267575,-23.07045182619418,-3.3404890775012817,2.6542837260944543,-11.853222752460356,-39.712077131771906,-73.4904768947222,-103.71815205576537,-126.48532326215168,-138.15676423593038,-149.25301718095514,-179.17437200485054,-194.32604566419474,-75.8899765328638,333.9933961708821,928.9314258616537,1086.7795186929873,432.6760615633153,-318.9296717357796,-394.0973423940828,-167.28039475572797,-189.34201543619866,-241.65449821086196,-143.07845453784986,-101.06007930352445,-114.91264329400362,-70.89207816931005,-39.47248232315651,-39.12818933811852,-15.894202551327767,-1.9277452077117676,-7.7407396345616455,1.2799879761946897,9.76349772197468,1.4849223563707383,-6.976509835520375,-9.018390837119831,-5.178579093495468,3.6197894927595353,9.775410366319866,11.960483368631277,16.255988911611027,23.703757246117632,27.533522418617707,25.177450284633483,24.68687620292457,23.224159937558913,8.029004189082865,-8.844178943212034,-9.314043427023801,-7.240550431497387,-15.345309145799956,-22.24973210850858,-25.829761279769052,-30.043180309242203,-25.179486082618137,-13.343531990015723,-10.576916319180487,-14.227208473542195,-11.524785807909522,-3.654176538099005,2.6081511871340686,4.355595041656295,2.510258957069002,2.8360664729168663,6.177324147336172,4.988759871829797,-0.552593083179354,-1.2953871782751492,2.286593986130365,0.19805129207543537,-7.3526907265433055,-8.609547385044838,-1.2322003149287415,3.7789678478113125,1.2568674107118198,-3.528738496998159,-7.176595093469128,-11.679315122287484,-18.310115310592952,-22.169641746021437,-17.715673468760748,-7.700408578593022,0.6384144189751275,-3.4566850762693804,-27.873416031860636,-60.84060664149449,-91.03195900007861,-121.00710619528968,-141.2580671339027,-152.8192387567371,-177.47015218566062,-192.58979038409822,-92.34684956152836,286.82808458021395,879.8339668978572,1088.7114588815823,483.47863363803003,-281.4908606358147,-394.3281753028806,-173.15745010794743,-191.13648320712394,-249.7357147857242,-143.91803746527367,-91.41108016718748,-112.604614758165,-70.61100167269251,-30.31593925882305,-34.04637534425041,-18.427974249316723,0.3319062655889109,-4.738577189265683,-6.4056722775894634,-2.5139478452233632,-1.920161146876712,-0.8815795276810476,-2.9212419995640264,-2.0527383985232763,6.698440564925612,13.15738710053016,19.871216592734847,27.01323467570306,18.802313695633842,6.92478898371111,13.171049197869202,20.17669266783027,16.172578840049944,21.961757319483013,28.752014436638788,6.595798772101577,-25.112717976574586,-30.872066225214798,-24.293273330548246,-28.26271849072367,-30.263853528920542,-21.35230278593791,-16.196333163523924,-17.065474954987657,-13.43402019537499,-9.197144589218038,-8.035330756746264,-1.8567058792088904,4.52838657013287,0.3935219844031792,-4.653421656879976,-1.4014590543164545,1.6728440449136706,1.384663015950025,1.581235270159235,0.22887488708055947,0.18241725221259664,4.63694729484694,4.6871134728292425,-0.8417965329593269,-2.845041691076231,-4.301448216738212,-8.326721731581378,-10.799467814312234,-19.147318776479583,-31.826820955186292,-26.165077693517482,-4.364530120744535,4.355596460443303,-7.634088749520404,-28.73504294495879,-58.35249992693258,-97.4245044723199,-124.88383956926259,-127.34142071334372,-138.95370820540722,-178.72267851477048,-188.400639936481,-52.2115642379774,367.28643180270774,931.5869263760507,1010.5189252033067,321.8686751266114,-351.54611466181376,-349.8670664872013,-149.58252448459524,-208.61545964948368,-232.0177920308059,-116.5620491606188,-106.19663834692307,-128.31300530947559,-57.26615855689195,-21.465632465580313,-33.99800867082019,-4.54755229368849,13.640915606156682,-5.283170665928683,1.1953960778802841,17.819472935767177,10.13354895833085,4.964781115111002,8.23202270711499,2.9180581285847387,1.949415263441956,14.492673741162182,21.026735213782864,10.939983464260216,2.665093011939898,9.787830106400612,14.77078425784393,6.653515731263418,5.058303450154321,11.486346040619399,2.2193400124186757,-13.545319389459122,-9.800977266446225,-2.316617528932948,-15.054944284230542,-30.21086064022504,-25.951207194238673,-12.769591666907575,-5.4993126456834975,-3.711003955568092,-4.028671599820521,-3.627118854274979,-1.2019104027372407,-1.4565189190825443,-3.8918996705769064,-1.1816201750110817,2.7764148548907794,1.3099690187917474,0.8063338737903951,1.2223918136461922,-4.308961483643214,-6.334438066045234,-1.3549886834603555,-3.022689594024687,-6.035187335750372,-2.5380028733473026,-8.535016404033549,-19.281540366664203,-15.317529173238364,-12.212612141308812,-16.18903828453019,-1.360952910786997,20.496819803741616,13.36269813675424,-13.751034852931316,-38.04855942761434,-65.49328501991168,-93.03630353543522,-99.83641840997556,-98.77343120123867,-120.18426427882943,-147.6517126951989,-120.20474001994984,73.47489207008618,488.6259956736082,801.9717699100987,542.2870011798786,-64.8017725583722,-308.58296866853124,-156.41284356501222,-107.24942501281943,-180.41998749116408,-136.16412691424534,-70.59272346755452,-82.55631168777597,-66.33492849047352,-20.517489108593526,-15.272637069094195,-16.927645122476378,1.7671491358656422,11.186920649735685,4.799162217976484,-6.772027110078238,-19.33339440015093,-24.02959305813899,-18.71871759318231,-14.377015914611707,-13.067252136723312,-4.293443856489096,8.800419798648022,15.150356753959382,21.92833796012578,28.306154323511514,16.45692168028335,3.372526072057523,18.684421104146,39.30174188321982,34.19798917553395,15.923279561609984,-0.6454818659823696,-12.597086558714608,-13.484286794266412,-13.637826048063133,-23.802310216235824,-27.50069395047543,-19.967117939615402,-16.688327642588927,-14.49539117216506,-8.00211066164794,-4.34424312868275,0.4518173072554532,3.90888454671404,-4.253754975991233,-6.011641488102807,8.061448736810366,10.66526748639559,-1.5299312580813442,-6.862446885106474,-7.52919473244388,-8.05069884882803,-5.457351999293069,-10.053851525945458,-20.285455153891196,-19.41348251593645,-6.392429654137329,7.78844695718565,10.283034161020332,-0.3548850744060026,-8.002292400604695,-18.329820108042497,-50.533162512451604,-82.7935697973237,-89.35069337067458,-89.1414460354068,-102.44589077577888,-123.47720586321678,-123.50935749099307,-14.980814097773049,289.78713422196154,636.4343368720566,623.7276537749235,165.20429460429432,-234.57046128476279,-220.6922475563672,-90.45071455916607,-119.2046585304625,-145.6932409445749,-88.30644283160397,-72.08874866448326,-77.28130374036327,-41.38647067147282,-23.201789385563288,-29.285426283599882,-14.261352444050447,-2.637402332906765,-8.667466659937713,-5.394933332785403,0.16316635901542043,-5.115547785523924,-7.354805824998822,-2.930098413833086,0.6736930301201358,6.015947827205508,15.396249549353406,19.689821937737765,11.301565791547432,1.9649597148466844,7.2193515437850735,19.954017176207632,27.253271693138743,31.24343090144765,32.56767522190692,24.697123104329354,9.865190088700125,-3.60358089022883,-14.953160085827855,-27.633329568310472,-36.55156415835536,-34.026890385255044,-25.536448079595242,-18.439535956290094,-9.37351184551706,-0.9304536072282197,0.2836661856841687,1.3048482618251604,5.817210574860413,6.200221273632311,3.3171788339404866,-1.831873504592993,-11.672516784925001,-11.390933882480553,3.338857889137934,3.5517894928505136,-15.261786588569127,-21.67520289081861,-18.307159750837528,-26.653443280355972,-25.12452733650086,1.6588341145612695,17.765348164220672,3.199567903733202,-20.08881863914304,-42.63016574554297,-70.1133918384706,-91.57429344122302,-95.6267633540921,-95.74655457417822,-110.40962707974211,-132.19811070626136,-108.29146421854017,84.11853541485692,488.7368783609213,768.6802305589566,487.9790328561238,-104.94725778404295,-327.7465806413535,-161.1666034649688,-97.69027268885576,-165.80766008551714,-125.44534371379797,-62.502550445910835,-79.06989614969014,-68.82418224974843,-23.4051874920363,-14.61210128702966,-15.410403130302154,-4.048619041341645,-0.8111811374087807,0.8205091851631181,-4.471019971748724,-25.304162060860104,-33.06738586698633,-21.509729449020256,-17.31167552614064,-18.456327914678308,-8.29392085854936,8.147979209526786,22.186238260338023,32.15132175164598,35.116715168843456,31.81799764782678,28.928361319819906,30.29320608637016,31.73960037457023,26.020391810597168,12.434690794224558,-2.9202349449217566,-15.952308269637888,-27.128420011967158,-36.07012993757253,-38.85922381827849,-33.729104900348915,-25.33296565975697,-17.837690979496656,-11.551957630089582,-8.218533501998511,-7.336504245117503,-3.4486333640386544,3.1187066201909186,6.0670100993269,5.7117002499843785,6.408953388736676,4.820006634141313,-2.416804658143093,-5.960502371886413,-2.883262390144189,-9.3883980268463,-22.583628380579057,-16.906672732066983,-0.4910585243339991,-1.1378140423749503,-12.867426136526712,-26.89484055487057,-54.04813619665693,-85.28944226372134,-100.71601213118159,-103.05510738765612,-109.45552843268425,-136.90301969085058,-161.6011645738089,-59.14631448737758,296.86021650535065,728.276730003939,744.6967117387082,215.69204422439475,-273.7550713786414,-278.9811879777816,-123.40214457575773,-143.43972765312253,-172.02571538821746,-105.09581746140978,-77.16743596031645,-78.46430432515612,-42.33526490397532,-21.69502530620597,-22.952106157200845,-6.665755085998587,4.143416537238293,-0.6795563080597908,-6.556557593529959,-22.779550235439032,-35.95980724037236,-26.405432224018256,-16.73797104367551,-16.561529261231783,-6.177658199935839,10.165665706568104,18.72047049896184,25.757853554598157,34.06475123532269,37.02841140109669,35.585647760865285,34.15267625728038,33.330666569230175,30.052618089278862,19.01006765094707,2.3960531734998955,-10.190124401220373,-18.362557262261937,-28.60432444997508,-38.51155539118518,-42.807111162573946,-40.94690209266314,-32.1715640546398,-21.899262731267353,-17.761620276231444,-11.365636219977374,2.090696897987412,7.346095994511426,5.479529920382034,13.139654905300334,20.415550075498665,14.343935590908687,9.089575198404006,10.378906304448474,5.039902752528459,-10.41857699296498,-25.160633134766144,-23.524232534960852,-6.950971855938289,0.14284970572933897,-8.478030166407256,-18.906909411207103,-37.85503404183827,-75.30461274447791,-112.4695570400543,-127.23637307825129,-129.90942635980835,-152.05509904240964,-193.19434933231304,-167.36442396401912,101.12262756612924,646.9553308853726,1008.8096700319328,639.225195729301,-114.89902583107113,-391.7063766081168,-197.91185581771683,-143.9864796839396,-229.7081101081836,-167.30665454966598,-89.37198870392263,-106.67955199093204,-84.47558668119953,-34.298289515931565,-32.7225571203541,-25.126405421554715,-0.20087197814786606,-1.3788066241463,-7.337837504561957,-1.1536315599380664,-1.9192393322983747,-5.862417759566338,-0.9123140275507868,6.13472125517999,2.789691699434462,-9.22531202115051,-9.287469609911303,9.008320168330775,23.859353047293475,25.54897282636086,25.582624616283297,26.01173175359309,21.862033527760975,16.823302688390175,13.478504045822206,6.8873487860113,-5.151498601290928,-17.65912133288244,-25.40087198703054,-28.072202895022272,-27.867606828375678,-25.594211877486064,-21.186327898240584,-16.449877856476633,-13.091363818551393,-8.70019077971342,-2.079033918859494,2.2075344085739363,3.2592799385473716,5.724758013170009,8.87001238787637,8.428679965694393,4.963810358871008,3.153064216417901,4.459408131179643,-0.4303311254814304,-13.865549007976782,-15.419045921317661,-2.0659952743080536,-1.3198175580616693,-15.289685145457462,-25.62304764283392,-41.97394870781287,-77.0486953573796,-116.33634867318327,-139.85640813113744,-148.18950928519803,-167.77564969428295,-207.25522978880585,-186.62781632718293,76.96322045832176,652.2722676961324,1104.2485573833,802.105710346995,-20.428076820885124,-422.2816412358596,-249.56446256948118,-152.49477056134475,-244.79854905952843,-200.43581656066127,-102.65561936131965,-110.66525645881183,-99.60584529821398,-44.32537471530114,-32.29688963624189,-28.00900218789037,-7.3442177653126155,-5.329064927255647,-6.45118988128543,-2.4806564369564903,-10.236583599771254,-10.604341390671847,1.1831384130663878,0.3518655449721404,-3.9139336422171667,6.495607123826483,17.36884068982812,20.368863570900835,26.82812838511305,36.49927671902522,37.11705887596908,24.040097003816747,7.748681692036721,3.4753999225722016,6.937297590592289,0.34443570191960937,-14.431992652714541,-23.549102466902717,-27.619344392598098,-29.985260823994054,-26.940481302464867,-21.34823054632978,-19.148069685208274,-18.641630155788093,-16.617975512827705,-12.434053002265966,-6.233469262136227,-0.8436560497713934,1.6230301526838957,4.0922197235339945,7.781205720192913,9.346574474100699,9.818672574465147,12.896413413819138,13.246382233206715,4.616691611376842,-4.213493728946906,-5.407070897092211,-11.551153877439333,-27.330698349550968,-29.673083961432248,-11.409458731606685,1.507547286383212,-4.687221608191612,-23.09981111803868,-50.59956858041103,-84.4710054251557,-117.86975981028752,-139.52969772600937,-146.51361752642708,-166.03081401852617,-209.52875103400265,-197.44728861069683,51.94248449898859,632.7588734078364,1141.6298501171507,894.4532327487157,38.794546982276884,-439.04335600333286,-279.2283361891199,-153.58277986947286,-246.9661020586774,-213.60034924656773,-107.85154531768428,-111.69630473264726,-104.91151758544821,-48.67346856886738,-35.445322439758215,-31.181538438176055,-7.799631276968416,-6.984854999166529,-12.379059384850294,-4.385403832724826,-3.75655359785366,-7.613326282390474,-6.6727298904463055,-5.379410873066455,-0.7303334994928363,6.234844733125023,13.46415819927621,23.41312862737439,24.381831438475146,13.801596055990201,12.92967469211343,21.708939088616972,20.93190140126735,16.099016679556566,16.186706847589008,9.149244069162158,-5.419607510211877,-14.11524609306181,-19.330459142299645,-26.354244311495435,-28.27447698090996,-23.844616383697087,-18.829898867773306,-13.745343885567056,-8.378494937542747,-4.359719583546857,-2.211738822640662,-2.8879481843779526,-4.933936090837571,-5.257251722399418,-4.652035617779983,-3.1083807919865603,0.6305247680641104,2.508732085621306,0.9841934472138343,0.9810906382665081,1.676293965112599,-0.92085112088286,-3.307889591191077,-2.8326727888764367,-2.7409951437454145,-3.2508164450781267,-3.3291346364312453,-4.987260140190553,-6.647228229646091,-5.292211276198125,-3.4036508422886174,-2.728876526633421,-1.9703773868368897,-2.049948918653408,-1.9867595299567338,0.2611814480531649,0.48681312962574275,-2.53809750791188,-2.8833095714091703,-2.1565603056272327,-4.69774855259981,-3.7251871442431446,3.139978836825625,6.038259654067974,4.309855560619001,5.3454979713990785,4.6653535050127,-4.509219754467312,-16.842642175351777,-23.285859861970607,-16.883567871642448,0.46751620039683406,12.29056955861526,9.653832697793403,-2.2624671571854584,-26.070467580088046,-60.208052736247055,-91.22214689102155,-115.58930909614463,-128.58568697167715,-132.79146325806852,-157.32282204658182,-194.19574648198986,-156.24772557305724,106.88010650778492,656.9386252137928,1088.581616364849,776.4534140882549,-47.37339485458406,-436.3895343398108,-255.12575477568922,-158.66926632631566,-239.84874340573919,-186.38501431644303,-100.37493218194057,-113.87591059278719,-91.35428128892715,-36.71264719023423,-38.41079439997847,-36.287268215214425,-7.512680015430073,-2.872212132542792,-6.207562601023923,0.7865425111452282,-1.5812674766763841,-8.748233635838591,-11.334481165785252,-12.863660692270571,-9.641259788354093,-3.308224111341577,1.1464213947931068,7.758467812017772,16.15409896343415,22.93256429522112,29.211144652686492,32.598875317636825,32.25453333911237,32.1546793525495,29.597524135045077,21.295011099689496,12.08803441481273,3.274897831855692,-7.99321518273947,-17.10747977236597,-19.89646189990207,-22.06112325092159,-25.53577092471962,-22.699400735335598,-15.29680805687283,-15.066322256851947,-19.20582317507028,-15.117605530522411,-5.76255342709424,-0.5365004574968903,2.11162543165109,4.007209062647144,3.5670531758551003,4.332475011752579,7.870702043269718,8.881930822170586,4.3234105340258555,-1.8620675430547875,-3.396018748842855,-2.0952012532256106,-6.128185838223089,-12.040064551238284,-10.844911250997852,-8.315078044716225,-10.259855319535092,-8.713537815742928,-2.411686804711196,-0.29983292773467873,-2.0442825054145892,-0.46485212467396586,3.639684875776192,4.293328301619177,4.26281301213111,10.172204277791446,11.155849174201258,-5.599335213028905,-20.83029827862819,-14.511605372183283,-6.738259648328576,-14.696664725608244,-19.771217725579707,-13.039548978600932,-9.15446504697374,-8.823239870945951,-3.9397311206624686,-0.11703118726169137,-2.1929001251347398,-7.007458647088939,-13.632463613193352,-17.702433754792594,-10.307933106762547,7.2362961062791165,21.614579510199647,21.189964109157245,5.115249123908773,-18.552617768718875,-40.38779999186708,-62.627895305442706,-96.86747019862057,-129.20845834159095,-134.64920171421633,-139.54182456782453,-172.46062823750842,-181.90725020326866,-55.609366107063295,335.3406822767687,874.7191413681694,982.4174155862866,356.5133256339089,-306.3996480393844,-344.53449674089904,-150.2496242814108,-188.12095439876333,-224.3803047571134,-123.01342000954821,-91.12079888259856,-110.33898969181861,-67.14018500543494,-33.09649622503049,-32.16333244111503,-12.93334507047213,0.70209544141861,-3.531727218986667,0.5835422826077519,3.660617446850429,-0.6020483824507501,-1.6475202065080747,-6.134415061567179,-12.592432358224025,-10.524507976902685,-6.013094776106806,-0.5864713333232097,12.368435405573411,24.282422078745075,28.197038848762265,32.96338158948226,39.18624060630222,37.8311108154754,33.32545026384042,34.33524151558133,32.58944680711275,18.76714672791061,2.934376677910474,-6.51792126064548,-21.266361314160264,-44.535195243777096,-56.75885708669254,-50.83028118923393,-41.86900759578532,-35.896296052442274,-27.76563719536536,-18.6770402573038,-10.264008750614483,-1.9064291777695423,2.124819185163762,1.4402989250894525,3.3593903459576184,8.508315417507392,9.282462205547882,5.042058937380153,3.6323569974411845,5.340238820938849,1.4168643546256625,-6.114910413148383,-5.743582985013548,-0.7563956157264755,-2.5699426182240153,-6.540490364219657,-4.732788410658117,-3.565980787113503,-6.639220522579302,-6.525994599954714,-3.5531748447506786,-5.923833236948647,-9.577272012741282,-3.787311638234936,3.893360257331169,-0.9396521123493375,-7.683608549315947,-1.4445705152968378,3.429745308205848,-3.477815065567097,-4.781394861849621,2.6409456711985158,2.308078531661957,-2.7993034964256767,-2.1612954180714423,-1.2948853013514086,-4.112003817877678,-9.33697380348551,-18.84910293627234,-21.48398937650616,-1.6810965053415794,23.423857851903183,24.29121967972507,8.684570363219002,-5.803067220372633,-31.307894165897245,-69.91465125072295,-99.70871519128254,-116.86207295796397,-128.02963965206317,-137.37743043778454,-158.9666591782666,-164.70102905582007,-27.903254532289168,370.42178147938967,848.2677543000856,882.8046945719557,291.91612528916994,-300.9800094837103,-345.80023848296975,-159.93618136557654,-160.83791894358112,-197.22968648293877,-126.64581551140837,-88.58687765135745,-92.09530463751813,-51.4538276560114,-11.637977993823768,-8.602937789897915,-11.695418000977998,-16.912094645313168,-20.63032311747073,-14.291216230983885,-13.409658515466823,-18.928995391582973,-19.818806436352265,-20.506550475862383,-18.386887233387235,-7.627385086915207,3.200534226946059,11.81089066262981,23.284225261953114,34.498406970566826,43.8884091279236,51.893423406548635,52.8480308826387,47.54747668543321,43.86226951191155,38.689011190142324,23.777731499681686,5.30565250408954,-6.201561293759453,-17.805228722505408,-37.484077200605455,-49.232485555826656,-43.14491125773018,-41.03106497918053,-51.09652575486776,-48.45619818470807,-28.574942616817353,-14.368412614469333,-7.888355580700397,2.805684259730299,11.379604785028596,11.545444755601888,12.3424918903901,15.41908654721681,12.998077775568245,8.416688555112481,7.77733867558566,4.355220755835214,-4.234037624279105,-5.6138097978249695,2.0703011806822467,2.865861372098185,-5.888321361229618,-8.2830493706524,-3.0775067964643057,-4.601197391551574,-11.113970976689954,-11.243642817399852,-8.398444531312238,-7.824525315400381,-6.572009563345917,-6.871824693515023,-9.056461000252328,-6.624745714622172,-4.545393975903464,-9.287577990859022,-9.959554923440876,-4.35937398781234,-10.057196927143849,-21.006134839884396,-6.408251068992209,23.469847445760315,25.75579579961781,8.59424189370311,2.7947840428054107,-16.741117307707803,-69.88092216051673,-122.75388619564401,-155.33657439551848,-167.80391585924266,-168.49486030524395,-191.81147240198254,-219.66718866502904,-141.3729312392992,187.54532564199243,784.1666166272362,1189.8937268713685,779.2089302932973,-119.16714810740922,-486.3603301486618,-260.3166682766861,-171.76743767041057,-268.00808265780046,-201.4866361891717,-107.86303084017861,-125.76598627874317,-102.1297288727288,-41.93755735926637,-34.22644731349956,-25.23867092196265,-3.5502940882618006,-7.068174787181881,-6.132659715091133,6.209002105924167,2.3363128070360553,-5.847093413827203,-6.364630614738811,-8.917020494173224,-10.676994466434351,-5.065917343258687,5.510269086158399,17.740514921065834,27.308730694559053,32.17416359383628,36.09011443770022,39.62732813542635,37.74033049713179,30.167945592974863,22.206611961741075,14.336648206158841,4.258004134594034,-5.731976690511701,-14.362983461550034,-20.982191381000717,-20.927389916633437,-19.3657014365799,-28.19083984833715,-38.25726430251903,-33.87893464613527,-25.80419181512466,-26.069620898235414,-22.697180182137746,-10.399243130585607,-1.102541990514812,2.356124540457813,3.702835183927805,1.6878460244229831,0.06180030806651615,3.228511040278489,5.834018273864233,5.2789060429599495,6.332180180543599,6.732048729929354,-0.32107623366519356,-9.57422598106799,-9.7821348641138,-3.7941721500422023,-1.404191935163869,0.22560903318253622,6.608928822685828,12.614069988807211,12.37462778361574,2.664471205088752,-15.005127028300548,-24.844951664157513,-16.711316240783727,-5.439437552474512,-4.0883311832343665,-8.86756311056137,-18.651548607278635,-29.96420178075344,-23.576306793002118,5.422734632523215,25.758019929038856,14.002223198017724,-11.93459002638089,-32.67897498060717,-54.56962711432915,-85.51882653888447,-120.40244896533679,-142.92870323507557,-152.3138715942074,-177.22195895404064,-209.39429944942287,-168.59328739109114,79.79944916384167,623.2651281275471,1124.9477551304458,911.1744502006701,59.72722868063532,-449.768006403455,-297.776050962265,-155.6422872387833,-247.96114267526465,-222.6616944422411,-113.61292750531405,-112.01904392299626,-105.28088790403413,-47.75320488566767,-32.07943950045407,-26.999647401371007,-1.017911910606978,1.5400881530268151,-8.452379684685354,-4.563514025707388,-1.9942410695186794,-7.103953519806868,-13.49951497906585,-15.28198963424076,-9.278651070038975,-5.007798145826911,-2.250947179641953,10.024917683075019,23.89913670767004,30.609774213655957,35.511080965062604,36.45881027825409,33.66137728145066,35.1721042483555,32.74734434607931,20.418327170456603,12.249089568949806,7.805096057783055,-4.551687969682469,-16.606588034158364,-24.457328339610964,-36.91022893817868,-42.98227110146649,-32.46900273322835,-21.413694581960435,-15.159335709599869,-3.199880039826848,5.4154173171208075,-0.2582402412279947,-8.243001895408899,-9.011681039216054,-6.361422384251151,-2.903161620083388,-1.621670731483686,-3.480739846549845,-3.416571901454132,-3.2870067333098394,-6.519284158595905,-6.790992147599729,-5.6308158850705645,-10.35037354264211,-11.866894993540873,-4.0976578291041275,-0.19006485532460538,-4.63839322781144,-8.809771345916044,-10.611224524890822,-8.132925675910219,-0.30154273891036176,1.7969607225565412,-4.618899015903139,-5.755958972019668,-1.3222240899152453,-2.547217197651232,-4.042084345000969,-0.018982521327110646,-4.542761268827164,-21.39292706172609,-27.155594545301614,-7.427949209829039,19.29930939290415,27.358621725150105,11.45924768678665,-17.329924296913187,-43.393534471472044,-62.381435657091274,-90.84308149590419,-125.10102840655301,-133.24068615821605,-133.048185388895,-165.05049732022073,-181.96784980784372,-63.27591775938933,310.14458845305603,829.6392487627619,952.0596785360929,357.50141731421445,-306.65899011860324,-352.6403209420668,-138.46165593918965,-167.67891760785608,-219.59640500238118,-118.24358129918248,-76.42197385814725,-102.73823967438939,-68.0599856261262,-34.1113465628579,-37.67545318616553,-21.207635228276587,-0.5882275855134029,0.1643100642082267,1.2839406479917521,-0.44474138024360244,-6.447247857232579,-3.5430281528858956,0.11520233596935547,0.802617587940647,4.284049756959659,-0.40778174907034526,-10.304106370598468,-2.363415832848367,17.53749019710618,26.11705884270424,26.676906297679963,30.426725220568564,32.78362132649362,31.38626151170445,29.45886508704395,23.145836291485,9.488742831945874,-5.891168362414533,-17.701324780209056,-26.481917306457063,-33.620934074901875,-36.75374524084092,-33.628970349292956,-27.185776344828255,-20.991003481413944,-14.108272918040939,-5.41033663935473,1.7217507138728365,3.4414713676642057,2.388693872032688,3.2566616359438507,3.6547471099414928,2.2000723629408636,4.345205381707726,6.499354673812615,-0.25310262816540074,-7.764817342776178,-5.929494946829976,-3.384605331274873,-5.423942658269963,-4.670015254141088,-2.89318340418572,-6.362990866951307,-10.417305864658655,-10.615139196639173,-8.434098782882963,-4.95236107377718,-4.03135762881905,-7.3355158440003265,-8.042095865977174,-4.592445423193961,-2.60567186534114,-2.5882621164002835,-6.80341264953082,-18.069188276622043,-22.6419267379045,-7.713619109412273,12.314447724405001,17.698586703838455,8.516255688208236,-9.363225589975753,-32.567822761364965,-56.15313856699991,-84.47805925936973,-115.8888320258942,-128.35664828488066,-131.16927868841975,-158.3036250745878,-181.645509529205,-108.74058600573888,187.18063632846886,702.2565503233338,983.8866652744638,548.3066683608412,-182.50124265243946,-386.4763430446312,-174.81768961073573,-141.42056764013392,-217.2319380712584,-139.10495618225286,-69.40964548661626,-97.61971933479035,-87.65154716279679,-49.8425699137191,-43.52623349150406,-29.835450094672915,-10.445919663544409,-8.647832357553757,-6.023128304097156,-4.331875573520978,-10.880294999358977,-12.701602018130096,-12.204121045630647,-12.991451710741433,-8.59081690504719,-3.604950447012092,2.5141923691020933,17.54295028365145,32.58604021893158,38.219379569720545,38.718573144796224,35.70049038749896,30.654643041117573,29.865219183123813,29.574732968467423,21.02419711917636,7.287080747227126,-5.127356563485707,-16.983181144222026,-27.960079220457338,-34.27434295350632,-37.03650150130236,-37.87587306670584,-32.57106358379565,-21.675247853261187,-12.331681639772963,-5.597452916604379,-0.4752972337102772,2.0677105696582965,7.1012623091462785,11.774317648375556,3.094959534102955,-7.901936158562867,-1.544145642210145,4.972406959580659,-4.5731025599258865,-7.257981997269519,2.3795872200825183,-1.3646701053563763,-11.474859870058658,-5.1008503444705955,1.372613175985153,-6.489252332642382,-8.822574863623556,-1.8272320805720117,-2.753603098436903,-7.466358749034622,-4.843880192859594,-1.1913967018508451,-3.3340350092333075,-8.553641642434773,-8.892613584829459,-0.9961165754241623,3.849915151898035,-1.8221027483904049,-13.043055921737118,-32.65706018279052,-61.10333399226668,-87.31741806237117,-108.10200658110236,-121.70996724226336,-132.71515650759588,-160.39876689471626,-177.2421311620221,-68.70254164861939,283.0526632720579,763.3582873642627,896.585455760676,392.61529314616564,-234.47891308063714,-347.43094965191733,-157.6517415649367,-137.20501444012507,-190.33265299063186,-138.5306721088081,-102.6722780338166,-101.99073447600793,-57.365881774338675,-31.783951825157544,-48.322703280772245,-38.285995191284435,-15.138738758763722,-13.459217933689924,-12.265245646612936,-8.514517653542153,-12.192426924529695,-13.275216046565028,-10.838761337133686,-10.484587911971762,-7.521718811305903,1.0513569047483573,11.91772874803437,21.250599881258577,29.587589761655494,39.624419340716685,46.53364505018897,45.33940130720732,42.31228169085263,40.86269128418718,34.53004927880534,23.40709502850366,11.362944683216272,-7.053267819456849,-29.719936693606446,-41.53384901367531,-44.63019675178186,-51.9473793168294,-53.80370595198603,-40.52068373636783,-26.963983584285224,-19.738579808793926,-10.122482526758427,-0.8104086291850727,4.255958466964341,8.546605256724602,9.63557109688562,8.710586285022558,10.84880012968025,9.996919427624668,5.220761178122746,4.335990649208048,1.4180497694536705,-8.232617402626465,-12.107133339900292,-6.544761013604004,-3.1859272453980765,-5.986323369450391,-8.809432673402174,-8.527478273218211,-6.554536551279355,-2.007487087848002,2.2438851981891688,-3.8174259624348466,-12.191015487400808,-3.251555104836209,10.618979861943796,8.451138117539774,-3.3159500661223547,-26.047574681768346,-63.02063675311908,-92.42510462872804,-112.38730843971055,-133.3465446614499,-144.23114403380106,-159.7261166992579,-191.35948687243064,-167.02262661812014,48.76858067868844,532.8884684870004,996.4325875635758,839.7667617236847,83.24986951151766,-409.31422517038584,-288.1829366457564,-139.96948927473682,-216.95162526689637,-204.75775510026853,-105.25583721049756,-101.97962499165862,-101.91990289742373,-51.649210534131996,-39.53841395368754,-39.11612909572665,-10.314894329324334,0.5561455123608887,-7.944711195239563,-8.853435753963048,-10.94267917666992,-12.963841602473956,-8.747536804102538,-9.236534537733895,-12.97311440923169,-10.896549890268442,-3.4411833969945427,9.960868702169577,24.68214597441031,30.932590198384162,34.03552584991832,40.207679869470404,39.8543165935021,33.46062674373606,32.28622049563731,28.400479854611813,11.73947087889966,-5.294827125615917,-13.994248841725415,-23.270675949508853,-36.20943936688397,-44.05489439063386,-41.65751942750812,-34.50280683742159,-29.431353849779683,-23.261024763891577,-13.031849173435202,-6.199157439524198,-3.3805731695600496,3.2853798346185306,8.11587574984496,3.307855417252103,-0.6558310559215883,2.921606619104356,3.952672642630729,1.1730507788144529,3.2972199974131655,4.855904599764151,-1.4070273367294206,-4.27521786216932,1.9230026458595262,4.589572415971993,1.1410332273359831,-0.2909120203089124,0.10413240812841273,2.182392206920799,-0.17508875986808548,-20.018582754987314,-37.8821451751528,-25.26862535993918,-5.099186630724374,-8.603783897306148,-26.777623561465298,-47.958591271271146,-74.22539461155577,-107.14220503166968,-138.7399497418823,-152.59891771570273,-164.87705063287498,-200.71309590988582,-202.19557891957984,-27.18146021263317,446.4515872389214,1016.1072619885828,1037.0478073720885,289.4876096482245,-394.57465516317785,-372.2781783847321,-153.25423066235714,-206.75331855632766,-239.69442662060123,-132.07126714577373,-107.98949057817175,-118.76172370488881,-60.641253506546136,-33.65604507806343,-41.07124367281379,-15.651782227414172,-1.9473516657480552,-14.299551010776803,-8.723701250059957,0.11494793035810957,-7.224969838937646,-10.590157195888175,-8.127339770366888,-10.715160757237317,-10.611483504621443,-1.5734257136810799,8.95585027908605,16.400650732773286,23.70163404839436,30.258222565786372,32.79061927047084,33.50230835893476,33.560098106845416,28.45316156378432,18.37707375253245,8.894340254896306,0.0816479105044996,-11.024915657907702,-21.344164501829376,-27.200025009039752,-31.01678379254782,-32.94628041477616,-29.13843318891744,-22.60613988388203,-18.70425209053902,-15.765830583217145,-12.10151790262773,-7.037036304568009,1.971049068697182,9.965453885918476,9.81660505532204,5.925245938458873,5.321976622819712,9.696263249809762,15.06444203587206,8.145260786826315,-12.64484953327597,-24.242827335585794,-17.711954805094773,-10.878781558613165,-9.818818128283638,-8.018826133154544,-7.671636200595426,-8.340867695233527,-8.230742302412729,-13.252376440888018,-17.20571708100239,-10.207474708767467,-4.658248013654436,-7.847349405214333,-10.704669103676578,-21.70617134713359,-49.776250030910504,-83.21772207631042,-117.20295689152715,-143.22228453022473,-151.58617817585943,-169.71488633221307,-202.7063581816341,-160.81631167951414,114.39865478081103,674.4193665741747,1114.9291355410674,814.9628249262244,-19.975989595219133,-440.8084795644463,-263.15142474775155,-148.80817896123642,-238.17851210485276,-203.41719846421995,-114.4816523546578,-123.16215242381611,-104.57101275466215,-43.099313944827784,-31.885263200845813,-28.797952717600637,-6.52839852420791,-5.271671147096061,-7.164516835891018,4.316205238881256,3.770531289646552,-6.44425117909627,-10.304314543649976,-10.998572138701439,-11.58466465987538,-9.492626729961577,-0.6398890889532982,14.48262912987433,24.947162736569773,28.142183440250317,33.70614843111508,39.36612860972264,36.03509409599711,27.842552700975396,21.25660057619346,12.999563514347498,0.342318969793717,-11.225625090916182,-16.251094469715,-19.18158556229359,-24.914484722406613,-27.744651385448016,-25.944237558024,-23.32425120057462,-13.86826420622362,-3.4334769373917275,-12.898418742841837,-28.7128861626556,-21.09561709269916,-5.566728462631357,-5.773137694479791,-6.868394537189426,0.06939325566921539,2.0010818924665834,0.07939160849163507,0.9231992319184137,0.41686941784433706,0.2537184380626307,3.1251431947745605,2.140095700725386,-1.3738932107653614,0.8748557224897695,2.4946086711750493,-3.668770436127506,-7.789661908434802,-8.93680841753418,-18.385519133650767,-23.904824294735825,-10.340809202822694,2.264967147263363,-3.9854895719865553,-20.101861813756738,-41.34424424591319,-70.36939642873241,-105.13505910777938,-134.65450522311943,-143.89054053301285,-150.64261442552046,-182.5166395994842,-191.9608198654301,-34.677738686127526,430.4080808829607,997.5921038228406,1013.8625728425766,281.3338849750742,-373.7221937431199,-352.9543912023967,-157.05716473986521,-211.26768058130764,-232.35103018607407,-123.91308511785286,-99.9524275973593,-111.26618312706539,-58.76709948705923,-28.23388507865961,-27.66642586863096,-5.951207607851607,4.667557361066525,-4.502350018155585,-6.789934714150874,-9.587929813637981,-13.287514336086515,-9.035461243284772,-7.32065363375453,-10.052967084550334,-8.36274486907696,-1.6508838573948,9.274559250287314,22.316221353872685,31.203670883662287,34.262185648886415,35.43835009671855,37.04844524841709,36.27471005018899,30.02937186366116,19.506298108657056,6.27057256119212,-7.761256987578131,-18.314179093944823,-24.219614127166334,-27.264971936945592,-29.95003510985256,-36.42268550974923,-42.59957214298399,-37.295697344820965,-23.688398282798715,-14.90098749430873,-10.943469161281449,-5.24973938089626,0.12846308228993308,1.8655233503674769,3.0588055359050337,6.501435524585988,8.11413860213894,3.2948714076576016,-1.748162423612193,2.417613003307679,8.644662363600002,2.2254650802845823,-10.122262162434161,-10.491032266537118,-3.855062851173681,-4.049876064515399,-4.469118245262333,0.2668026178795948,0.2723379913790076,-5.189037334840297,-12.307487370171966,-21.519987313208382,-20.91160359936963,-7.37012328198324,-1.123135082311542,-8.339200431116618,-22.973767504970642,-48.33657401461021,-79.56679091992874,-107.4602997723932,-127.48005398961934,-136.6420536073693,-151.96260340340277,-181.89346763944104,-160.40846047797288,71.95443230718325,605.487797629186,1070.5708913805715,824.9198847046824,13.831831002945151,-424.6863649715733,-261.66281026269087,-146.29541241785108,-239.5193821736015,-206.70693879212578,-106.94519604182764,-108.66938320046782,-96.07179580942794,-43.18035293877233,-35.9488367545997,-30.099262219013852,-1.4363634748641214,1.1043212450515938,-5.540979887658914,0.33361878047273663,-3.3152703004495407,-8.733179428787228,-2.9359126009416574,-3.3779898972210756,-10.763468741447351,-7.734895755190627,3.6438981480572683,13.188573230854274,22.53222738347149,32.66421048651658,37.50993800261796,36.737301550632736,35.684865318704496,35.76196910604299,36.077723270710706,31.1298085543512,10.503814538832112,-18.51548280339088,-31.971659671904728,-30.848734473637098,-37.843972374694516,-49.248943675200394,-45.799441325287276,-33.95710110628726,-26.37049573249936,-18.044823149415734,-8.212850822605787,-2.398836907047727,2.827507835369728,7.034101319551388,5.237006534148787,3.5720253603391976,5.627252800094389,3.876473442839396,-1.2493420554861796,-3.226985006622451,-3.684634726841038,-4.45134876373848,-3.1857361282659973,-1.158256138632085,-0.7308520639144085,-1.2450825144455298,-2.303515580613002,-3.5171661087484054,-1.6843310950938157,4.298024856165892,6.82160538377683,0.2808828499433105,-8.652516625813423,-17.27981289809609,-27.18530381185612,-25.069919951321783,-7.441128430723995,2.3395967816122276,-5.396049485389758,-21.10646214937003,-44.448706706091365,-75.16959254307056,-105.54976378791412,-125.80733007865794,-133.6921853955692,-150.2159775338141,-180.99318583987287,-162.8111736203251,45.489130916526875,541.1451436610477,1012.1498376677185,831.6612097485294,60.177656098859956,-406.70353799519796,-264.8409505506403,-130.83995483065334,-220.69750017728384,-202.65617754339,-100.96963611987364,-100.48575543604014,-95.19856132788418,-38.670475621046464,-27.01505200683301,-28.847052769521632,-2.1076249620503553,7.619849516064164,3.4732340721914916,9.521357940796822,8.847001903214874,0.5773703116157627,-8.498836987754022,-23.55512777608652,-29.277705072783178,-16.068889965087834,-2.5910967012370136,5.1730622554410495,15.827689081580656,25.357456446387086,29.048319973395973,29.969820665415252,28.720277254427295,26.06627138201061,23.783661304285932,19.323506709008445,9.666978590677608,-4.1422885676071335,-16.779083423400515,-24.015647441625703,-30.035527341977872,-37.816075550728236,-38.252305894763616,-25.951746262270824,-12.498394195483465,-8.797054479028672,-7.964318681494024,0.6701315751571695,10.24318339364976,7.4645856617303386,-1.7644627340531986,-2.636499852258403,1.8246164140772914,0.4363310857770948,-3.734903549179551,-3.692218981864219,-5.045957767962454,-11.213433715586365,-10.345320023082191,-0.5111468946494337,-0.4830794890640586,-10.898430649160968,-10.022316467160346,-0.8299410699378864,-1.2439368792425647,-3.2664513055378492,1.269217160538382,0.9592003013937891,-4.85800820690131,-10.615576434541484,-17.305321258363,-16.046270680102158,-5.830590818188558,-2.5844741461984446,-7.766397998319649,-19.273024833935544,-42.1375101931568,-67.41942167094265,-92.16462954459237,-116.35258081808493,-124.20657996115648,-133.4892295769615,-166.9759953782139,-155.52518511031224,42.32789775736515,499.0530977658482,936.4424256213009,789.7417829088813,76.9948083791269,-382.6038352164676,-256.6018208679665,-112.31198561777947,-193.0114504281319,-193.71384562056346,-111.98072001045955,-109.8344258838706,-96.53257984265016,-42.95216555534138,-35.07981322001909,-33.43790894180361,-8.671632631523364,-6.082765491485755,-10.755015212688239,-5.046371039880913,-9.77062767823747,-13.046315775853177,-4.801587787454096,-2.2442443021112517,-4.2016971758165536,-1.4942062027902026,6.478729566840755,21.017638333183164,34.819100221321285,41.283683453515835,43.73596090553222,38.45463812639531,27.089502853419216,24.659594003916087,27.1653479292565,19.21904471449011,5.766923565158038,-6.957303162307228,-23.332290979796564,-37.897644583826505,-43.72572147054401,-44.27249998982622,-41.35130491132038,-35.51576954850756,-27.384078097706194,-14.907650833661304,-4.364946172806487,-1.6323340562808841,1.889583143222521,8.067088155292641,7.5962893469891055,3.7631971069769623,5.348853959625783,10.003057754022134,10.763968192842515,3.9719088101916222,-4.174332805702365,-3.7112611982116963,-0.1003830142513511,-1.8060449475808573,-1.633338446151325,2.198692569591868,-0.02703495313618376,-5.730328986147827,-5.849006514933269,-3.348284034583374,-7.286632289560934,-18.57690151640301,-23.435186443204948,-12.716631269625378,-2.918609212797419,-10.49774828802039,-29.734222527693387,-51.421660579784586,-72.8204556558976,-95.10301626999158,-114.54919543813335,-121.69049279038035,-133.82613652236046,-166.52636755121495,-146.66884077652662,68.48715784338046,528.2593606101453,944.2986363197083,793.8462601829222,91.85472780425624,-395.3309845558683,-300.5501266790744,-136.83176079020927,-194.76945927182518,-197.3166348562713,-105.09977093146445,-93.0728723383786,-89.93173584112262,-35.224087488032744,-19.15989183714597,-29.193183418914273,-16.747375830762778,-13.282383513854008,-16.65508136632058,-7.225380707998376,-7.39317825471322,-15.900455067467576,-14.261718143122339,-11.932023000296324,-11.300085526647955,-1.7081391692701446,10.837652024630096,19.93497809823017,30.538630630848186,39.36216803508377,40.075096550881696,39.14756891508037,40.02759727057397,34.58515961283451,23.284797406255063,13.801314495462133,4.073832017723758,-8.282465078427315,-19.96482229489121,-31.70657104299897,-41.26569951493623,-42.167965924033965,-38.364835689629075,-35.89400471172667,-30.89485525132457,-21.74272608706628,-12.954173581904122,-6.6868820443302575,-2.7994232713070506,0.536185718505962,4.774773507182751,7.128070424277238,6.795835548775242,6.544725742151454,5.483061659359481,3.033085314348172,2.1965538944436256,1.5615072190764874,-2.129869527632316,-5.220298238186521,-3.6383285303795905,-0.7713401864823162,-1.2129297410589288,-4.560755987516437,-7.560203540935454,-8.854628597248713,-12.350228020469771,-19.60362023718077,-21.79197047829798,-14.533532243413454,-7.746352120140193,-11.22665405551869,-28.087767248207868,-52.82475949378042,-75.74998719144604,-100.8315795362077,-126.08500420927189,-135.81131238251865,-147.73067765117008,-179.4614179891267,-162.9508404101808,51.62943446902787,554.3976554692103,1042.1868156684031,891.0751665930904,111.4227028392211,-417.736865548278,-316.87457917707366,-166.0628104838264,-236.0793232026487,-220.21139226714854,-116.93200794574719,-110.0166610875288,-104.77216409331861,-47.74352293895329,-31.64423760239768,-30.838031088427407,-6.301425062592248,-2.555605082545952,-10.875425843874574,-4.597680769759521,-5.547155288832382,-13.083831278141552,-11.016008353057806,-8.387922623045924,-7.89067951601503,-2.8583104142595417,5.852567843091439,17.835970218915115,28.294417116579666,32.7026467773266,36.98254428375911,38.234409132669406,29.994759701651212,23.984810874874075,24.461701849096375,18.14163736927767,5.535537003395625,-6.483778511347586,-20.963295670277333,-32.95319401316218,-36.62407836121112,-38.71105653641345,-38.491978727729595,-30.508421397041005,-21.633322518086956,-16.196572930861972,-10.196719187244003,-3.904815080440045,0.6446892752967184,2.4455266375331197,1.5290297390105723,2.4909354341536494,5.947806747668032,6.5143772412992895,5.500363262513367,6.737652172022094,6.076256938676982,1.0666500567583412,-0.5634116106267202,5.712364121897663,10.750450083041247,9.443823318588992,10.555845440026623,10.911516890781467,-3.7801762982600806,-21.608530070602445,-21.82062031051779,-19.249443631327836,-31.480454704138133,-37.78663853335176,-23.55252013843213,-9.499816426784822,-8.14290082661114,-16.237936625128224,-38.822265805977175,-70.56495805199148,-98.60128655171633,-122.67475267544829,-136.93505917939765,-147.65109597838796,-178.0381631308036,-195.9513789168665,-88.00725208657703,293.8827995612734,882.5639682848639,1108.8701331517518,525.2671802278253,-264.4931986577694,-415.8930274367436,-187.83208972849764,-187.73284739244258,-255.7307650018847,-153.34367461787306,-88.0155987727509,-109.2631029876643,-76.09681374973879,-36.108395898324986,-36.31790098989251,-20.543787484795907,-6.016873488063908,-11.802280551013428,-2.4807843109715435,8.55598853406296,-0.5345741173553513,-8.567086825164882,-11.334328128906341,-14.467826941947493,-7.279311024665283,2.8377158888202674,4.510054730468631,11.822952039249607,27.65498223246194,33.63243453874678,30.25115751841595,30.486840022877622,30.44050602867664,23.67477955236404,15.455975868892754,9.136187406722708,1.9542358355925824,-7.862082931477897,-18.636430621601498,-26.12903030145306,-29.204619400182526,-29.557349025583513,-24.861257146680288,-16.520556288321327,-13.741753992302353,-15.48352963540746,-11.473982527099373,-4.2208730654338495,-1.2933082000041942,0.6349261773952826,2.4436611924767204,0.8332136670338377,2.167552505655542,7.979297819593618,8.548702552784617,6.159851552760448,5.829123108122323,-3.2768455779321517,-19.655551019196167,-23.89801918866621,-15.333311233674719,-6.926301424065366,-2.8657034834479767,-6.267761625893707,-11.621118653737584,-4.595735765104724,6.014422797511733,2.1528367789798573,-9.155798257500532,-16.48081602732114,-16.649289135321332,-4.666216176595939,7.872822099444653,0.892753000477688,-19.609034071585434,-38.46940899642859,-61.518478882403215,-98.8427542506769,-131.70666419728948,-135.56989147432077,-138.5711649578088,-172.22732251459877,-186.63276745496592,-74.72713046666095,297.4964539072162,861.7699442479416,1048.471911918411,449.090896828052,-290.5056925942937,-386.9044477623848,-166.08402027826992,-181.98479839146867,-236.27693962655783,-139.56009839099497,-94.44552024907564,-105.09587632480574,-58.06205395931653,-30.293694189950436,-39.10422249827612,-17.183731871649186,0.10168768927273675,-7.422538241579186,-2.276639362988746,2.503354371571575,-5.196793920158068,-5.515595468656317,-3.498993184882238,-5.007669174346379,-1.0965411241632124,3.8155869782317104,7.528043187497337,15.451418112956059,24.838725415847115,31.796223719079258,30.615701058499496,19.418240856994537,13.188403198749409,17.790168181424242,19.163478830637825,13.312592395963517,4.080971012252988,-9.944739589848687,-21.672755617296303,-24.371034364827167,-25.887947199562113,-29.51217782198075,-28.906791251968162,-23.801742452296246,-17.078994858144206,-7.76223756775028,4.838686011893656,16.112906074802673,16.069833444823214,2.775003038224062,-9.698470882752948,-10.567830306233423,-4.660122847456734,0.41257987340561897,2.2418733835613427,0.5258606879525516,-5.936236172343865,-16.063080652609397,-19.890079728025288,-12.482123806588461,-7.484614684883926,-10.43794774077985,-6.853096724216818,3.9723797419246143,7.053286466626629,3.517039363559384,4.042576627657629,4.919033866978872,-2.2282225194344125,-10.915219128983553,-12.386939879693283,-15.141854853636644,-22.149285475888522,-15.93510623118273,1.6904917462124267,5.067682255152773,-8.88223034208143,-25.487251056920435,-46.95441706371284,-81.33348242423031,-112.70842398494611,-117.77987487532458,-118.80788801897734,-150.96258097976525,-176.44875923641396,-103.1324369345611,185.93676655299183,693.2787602106135,984.955643390156,566.5877475666696,-170.44062754449632,-394.57683448603836,-182.39726052637076,-137.23104083503944,-218.84678812901325,-150.87047223097844,-77.4626889195322,-100.44746333825138,-85.59214870562093,-37.073131160108545,-29.042451880449153,-24.030223172583135,-6.888100803525688,-5.4180819892284156,-6.742802495395239,-2.356267421352424,-5.2091701525873795,-9.557041244251062,-6.54271564047524,-2.381179386929187,0.4987820534072709,7.692847549047259,16.346385058240514,20.58974206627242,27.41495154686222,38.55530178596386,41.882770642723344,39.9654458745256,40.21908042615455,30.05346321056841,9.41254998777897,-0.949759316253936,-2.8801857177469508,-12.593993384688224,-27.24220923658937,-38.2498022822573,-42.652205270291866,-39.23396562350013,-35.93097546693621,-36.82924566391513,-28.80945640779604,-9.538352878719179,1.8333923047523317,-0.7250629833114495,-1.6513397430896504,4.558771960570272,6.736762141709724,4.2026845257541146,7.343307766753551,10.696650969920197,4.708244105382794,0.38287514725522254,1.3168595678956674,-5.892295853335721,-11.757757559566642,-2.441538530808015,3.369282281989662,-1.7503652112998154,0.10930785405454824,4.151520534088856,-0.1983786619497181,-1.9360074527581261,-2.3136713948896617,-10.558337568936356,-16.74183108589336,-14.56733807250718,-8.885366330112827,0.20323803073282143,5.851923219595245,-6.528692173221776,-34.56553927445643,-59.325977725843074,-80.2184136602464,-112.41507482984488,-137.0092340412191,-134.60084501266883,-145.41816483316933,-174.345216051963,-108.09506361732785,189.69242108942288,682.8100687100418,967.9085321449543,599.65690497451,-118.03893286351492,-403.0533909775582,-218.69159870959817,-134.28012938768256,-204.24049335516636,-157.02553063433706,-79.57462458137293,-90.09017871165236,-78.59878333204162,-30.925408984598214,-20.50604980503875,-23.122019158112124,-10.930261836417479,0.7470130756210622,8.976410724048598,7.297991842166379,-9.109155298835578,-23.65125637864878,-24.36893329429968,-18.647084586367754,-17.89368582169375,-15.388870128668916,1.392742597643236,18.310208328780867,22.8080694622285,31.381018301979125,45.44309472523815,44.79354638874003,30.88724224657983,19.125006193706174,15.692017637194589,17.971734562347393,11.962559390836104,-8.03861438564744,-24.21846430363892,-29.309070618897444,-34.76425569740917,-38.44732664602455,-34.64301870145539,-33.4384193463585,-35.86500406700658,-28.008322541616966,-10.999265973177714,-0.011240023254474707,3.0903782570929232,6.7374904773652,8.90635828194621,5.60510909148127,6.632909694641118,16.37179223051823,18.289005882672157,3.7072616581940467,-8.990849728938635,-4.8112022163159915,4.4584759630136395,2.8895646250075693,-6.51025283443153,-11.441276078450402,-7.801143250314002,-2.6988066554156127,-2.3989504359280005,-3.085490617692262,-4.679869323806127,-13.968327225366977,-22.740272808172723,-20.11157190146369,-14.293315541688468,-12.721614916324114,-21.98685570526174,-50.595921300726786,-81.9931785497515,-105.79062151020946,-133.40737672740522,-149.89022464375023,-158.73513529491944,-193.42096689229336,-199.5621923243765,-36.437547318610115,414.4953963138275,1007.0406176383752,1125.0436397352503,417.9889929835766,-359.6147361604942,-417.101091244494,-176.44130886664854,-212.5063622072513,-263.9248669492779,-142.94397659241434,-95.29196038525133,-113.47913824465486,-58.49687785986404,-17.67802792451146,-28.813726513666246,-24.7221815375742,-19.447920762410554,-24.42650485264989,-16.473635223390886,-8.361680882926748,-5.090361863346537,-1.5859131536250004,-7.353870158925986,-10.944232435103306,-2.635378254821992,1.9689709707603704,3.95811014780967,14.435214726766016,24.303467946750672,24.854319420783966,21.296882090383644,20.498296088275975,21.6563042776405,16.71074432943285,6.427335182151232,1.0961265506274716,-1.4887507333143848,-10.123802429613361,-20.34562873211177,-24.49014545065976,-24.604494297096927,-24.498136732154983,-23.103783502056825,-20.46723690311919,-19.566399359724915,-17.015117782712014,-8.343148273320836,-1.3633039303993986,-0.3568669008204104,3.1449479668925644,6.302900357233748,0.6964949327540584,-3.7040793502607405,0.2061802551730656,2.1697076013525525,-0.4383573815331143,-1.4866037303254043,-1.9986035938230238,-2.6221911858204905,-0.5026527913988481,2.2549257559630744,2.4300844521068727,2.003475535433073,4.029072971798364,5.435064550179973,1.502988294067503,-3.583050858315623,-6.497427460973885,-13.09649026272632,-21.11570490487548,-21.804590915857354,-18.411335997564546,-19.105674080606587,-29.00204565729913,-50.49170156862665,-82.02214051011154,-119.401919696532,-142.68813900013427,-143.9786959973511,-165.85919127108767,-210.0854463055962,-176.74906278838432,65.51284725599012,597.3245162347685,1140.194714824845,1012.0017492968667,150.57954283871504,-467.94374006861153,-353.78886895782466,-166.1683327855462,-253.5481550054787,-246.9609216853314,-120.41728779241816,-110.62247422253837,-118.5703985903722,-57.47842054953962,-33.652969007488316,-33.69240180538426,-6.094888376579512,2.496158605211498,-7.542235221595448,-2.698822958075528,-1.8935048971252826,-7.607803453726884,1.6618057971659432,13.283309446103118,10.699353931024888,4.4233305285419515,2.826569734357725,2.3698471647839785,3.775834872536371,8.882399823649997,13.34847303800451,14.795317302522648,14.892694860813288,12.329781648458916,6.186367840227159,0.5917251120954523,-2.5809734077852227,-5.8392818217146,-9.042364920534194,-13.21627725892133,-22.27993825434349,-28.135058685003237,-18.585904141178688,-4.272588608201902,-1.60416319067496,-4.376951440224534,-5.173497070587059,-8.776213900747834,-12.197197520154477,-10.815413661227762,-8.035566461266695,-1.1282486298995273,8.986475924365514,9.725016131916082,2.727853971165258,-0.9481393111576875,-4.138331273235351,-6.492637675278933,-1.1966843461949352,2.386517120480857,-3.404386572354639,-6.341509256061785,-1.2118557872503253,1.2002042848161008,-2.8489187110982,-5.385527477651948,-1.5142627565935047,2.4975695914242753,0.8332260501392383,-1.4033221118982748,-5.057986959373057,-16.369002256223162,-21.126899438708506,-8.77774618875154,1.5330523365599635,0.2754958074369869,-8.053494583301443,-33.11986473460355,-71.73046469715847,-108.84636307316518,-142.72755633604635,-161.55812465585683,-168.04523889180422,-192.01660856874562,-204.32244867092547,-85.26181235972598,319.46747633566434,931.7848728996494,1150.944025057742,529.7937487086045,-278.86622983359507,-420.6586189238409,-193.88669906709964,-202.21822303245932,-263.4709067144175,-163.07824326157072,-116.06336885807453,-138.003955439495,-85.39226354853135,-32.59771834861022,-32.611232054027006,-19.600339266666396,-2.1400590777087913,-1.465582696470829,4.503744617780786,5.960370848581711,-1.5889600684547673,-0.3644404497484821,0.5479439496238783,-4.0095038228982744,0.597859355418942,7.253989569254793,4.245650940192051,6.760985384252828,21.088211904790633,22.961184876952224,5.567458250345529,-1.9112013968604726,10.116444872758553,16.99126077792281,11.435431039865005,7.105422341380422,4.5074507083770925,-0.6353153481387235,-8.107820997028815,-21.65189664631059,-33.633006157905875,-28.599487892820534,-14.099797674939904,-5.810677991419837,-1.536183485157217,-1.4167724330301823,-10.895986021069769,-16.441768922909485,-4.834681908963788,9.199719222763768,8.897841533771102,1.9935298913258501,1.4623877651434825,4.343311512438699,2.5497184555619024,-1.5798424844868286,-2.9040362573737672,-3.5984994371704317,-4.054824786894208,-1.02160808702304,2.369059479908934,4.970502158331127,10.393710397437005,9.863075616484858,-4.690855120295513,-17.845449381954694,-16.33433990756906,-13.361925618502958,-21.924490256814593,-29.615426175648878,-19.861773203954957,-2.35000055278182,1.19324869535426,-12.037495329527474,-33.13656521752728,-58.70387533605762,-87.46285064039917,-113.21357810398504,-126.53521285211009,-134.05831373717186,-154.9845204473614,-177.3393561043498,-117.0734666396626,191.47023055629148,746.7560121199905,1029.996413914656,548.5178323084065,-202.65008300798556,-391.1446827412325,-184.7465090499635,-167.3497872805075,-230.61466305637845,-142.91418351929457,-87.06772262904907,-108.89304467715733,-70.85713846185497,-28.30294144404479,-33.19510106793486,-18.72858391527373,-1.4040062369833102,-11.782412800316141,-8.574370989484116,6.645958435955949,2.9004052866532106,-10.03517868996138,-13.226065917470802,-1.523682127461715,10.124822492743634,6.466951072013442,8.371230612012763,22.320039785318734,19.73113620115702,13.466996800082413,28.058954346021274,32.46401514076648,17.502400715271786,19.65425796599553,29.36296318901341,16.29814549352799,-2.7553492628171723,-12.913871744220039,-25.062626115792273,-34.49391473611699,-33.03083179630303,-28.500030888059907,-25.09942543699457,-22.56177414710662,-18.824651031367345,-5.853189697969835,7.9332943725141565,3.4634797402674176,-5.393384029459776,5.0455992190795484,16.43665632511714,8.950238514420388,4.066139527154988,12.723390703167016,14.719047958871801,6.930796710784884,-1.409363166072442,-14.35437217446309,-25.211950536059668,-20.036091630916484,-8.855487430968413,-7.287865471959208,-12.841863844285044,-19.31948266083466,-24.057555048398264,-21.638747133919853,-11.7230337653773,-5.8155429485966845,-11.102032138416156,-20.789959636051737,-33.63665132751695,-55.96526647174337,-81.13363933852824,-98.05343691149987,-105.70722622304015,-112.84478783856406,-137.93227635253803,-163.96654804168276,-77.09129126945633,255.84417152583015,723.564270914044,865.108685108754,397.4247964318217,-216.33760506294152,-355.50186439837614,-171.23051883394746,-131.58510510730775,-183.32367454854253,-128.76836002809972,-79.58785377295493,-90.2132770990556,-62.86646716170263,-25.723177140920424,-26.445511902727333,-16.40634914917235,1.6113640842105283,-5.551522404494161,-10.71586870424348,-1.9581536824211376,-3.044797684101841,-12.279520768118878,-16.462085119718036,-15.72406175374308,-10.461891272288668,-0.0993919546828066,13.926208537047819,28.417458339365012,37.155832028061596,38.843357827690724,38.351682290316305,38.65412341741284,40.69223140168287,41.323336600866966,32.74297409610265,14.458510701790502,-4.503261041977833,-18.311438504187915,-30.473840048219007,-44.991502581349344,-53.392895990225,-46.13183028548326,-33.850753746812074,-28.607080975650398,-22.470970633237314,-9.824173537935316,2.6466047165067366,10.725481343882254,9.309131101380387,-3.062213412761647,-12.409523998762312,-10.306071743033488,-6.317006021735882,-6.146022167525274,-5.3962136625345725,-3.055237901092486,-2.5413695063302804,-3.8355226581003965,-3.0378987483280255,-1.434687379923055,-4.603022110457591,-8.572811066338588,-7.317694816768874,-8.762741536958146,-17.372698631538483,-21.67371085214412,-17.131136835024964,-12.393657148241736,-15.053835210265095,-29.827959487526833,-53.33434566106233,-77.55295755425907,-100.90071126293884,-114.00751466393044,-115.99679869087903,-138.28329086837945,-179.37080682567665,-150.64585337630066,96.67866744527404,605.8480092644463,990.2046015074691,689.8256138640393,-64.72334467503529,-405.161391409056,-218.84263479402452,-126.51890173924522,-216.54293965387606,-175.81436440033653,-89.80066734433422,-103.83008025715769,-93.06284808095442,-37.76332328523219,-28.518010863633094,-30.94403791866727,-10.21662358015453,0.7720451259195258,-0.3772394065686768,-4.981038698299631,-12.91624703957062,-11.486853985089965,-4.669236650154351,-4.5703031899933535,-3.1644742901932066,1.7094197643148012,4.306086854969012,12.88666380648112,27.58864365851033,32.86303296175818,29.682521122502962,30.75065995519695,33.98620904410996,32.627802888713305,26.513944729884464,16.107347239278326,5.8411181916922015,-1.2215734099346092,-11.571334827838326,-26.6107815110305,-40.94361653350206,-53.04725295633434,-54.959523280337045,-39.91272602537856,-23.17621984102579,-17.270990617731275,-11.807197356514115,-3.1257914667417896,-0.5556309016590433,-0.513813663372158,4.229769293675413,6.908673654009028,4.164920371257514,2.635308280309456,2.3213651524085606,1.0373018205199163,2.222615416843734,2.890076819054215,-2.0789956068233053,-6.135088433247374,-2.90590031218969,0.4518673844074961,-6.78529566309432,-20.456802339485055,-23.856142517992943,-16.286960913806894,-14.939926626053753,-23.691839906079387,-35.32219759094116,-53.89232280766528,-85.90479491112029,-119.19729576902012,-132.15084502904276,-135.32041963816536,-163.49684181275128,-199.81985256919097,-127.18914573297222,234.84128262372127,832.8175426722722,1080.5532778232057,518.7724704486133,-255.05734967235966,-402.07028458395814,-172.06989463343922,-165.8289100156661,-234.9475626534192,-145.93836289420358,-92.47929512022053,-112.53911020778978,-70.5104343085682,-27.281166484438742,-32.8253564939029,-19.507241568971445,1.2480641371174492,-4.65462809720751,-12.72528479603853,-15.76857072873603,-15.175745686886856,-5.63243533238095,-3.4463055974933603,-9.66018569519571,-5.330051229010094,4.753832721340144,9.617755421120176,13.960160921961384,19.73161528821805,23.94850420167606,24.995828381296626,24.125924616364017,27.971089168994304,31.95006479342172,21.539320078925897,6.2010812330431495,4.157086746609739,3.420568676041542,-8.643824262845673,-20.733186148083036,-31.756542092197968,-46.455100760922925,-48.2112752690474,-30.363742896414642,-13.410572612222955,-9.176746010064605,-10.597087840205115,-9.050259913051296,-2.887450970386938,0.5470959908064597,-0.07328010837273524,4.235659708918488,8.433952193956458,3.282914063872097,0.08495529710303362,4.976337406474311,7.318667374848147,5.767712036097574,0.7469357688022615,-10.761139113588296,-17.35833201239089,-17.38980130139985,-24.49714523042215,-24.782875931123336,-3.622984549870525,12.02349377202641,3.195768949971681,-17.744701183922373,-45.036061210327446,-77.35263264492417,-106.50510578631537,-125.14224178334698,-135.61870567386052,-160.37053799525117,-201.10981127252802,-194.30264330886547,-6.5599458498205365,489.3922266656124,1045.4288783856705,981.5972393088372,196.70564997079924,-399.8675772152175,-314.90981716735735,-141.49301120482693,-224.312210349427,-233.1190918198474,-125.8350051525285,-111.39286524195292,-109.09534831537435,-51.42388277088687,-36.52943112892247,-40.054489844264864,-9.113207147886916,3.9571816409245706,-6.700719744303736,-4.894145088022359,-3.8603871141674944,-9.763722933462269,-5.087453744251629,3.5671131761390367,1.7789404704126,-4.545686259077511,-2.0486747974210595,11.25073310109619,26.067147641856398,32.55799027004687,27.95340884221695,21.925066102974426,25.161591395252405,30.085348106712974,27.0994987745107,20.221216616876678,9.5043913611845,-1.2184608938970163,-0.6032439353774084,-6.4970664272339445,-36.283558686980925,-52.925646023884454,-32.83728996928309,-16.76175075743573,-23.29684196435209,-20.103624952288865,-3.430742044373055,-0.14794400419241605,-6.162640174135969,-1.0708727467919275,4.941090274904196,-3.5546860280725774,-7.301622607701128,5.698141105236445,7.537266260305195,-6.123007872485584,-3.8788174549761365,6.765563357834184,0.842200134090973,-4.229515182551106,1.821226688196198,1.1341133359272355,-4.397374031794097,-11.481635792451236,-23.57160356409213,-19.65403527247469,-0.8469444586858383,-1.086750922453695,-15.698619657580016,-28.034677365174286,-53.33744469907807,-86.71846993529032,-108.06006516605495,-123.93732599647684,-142.3101851306588,-168.57739494290215,-199.2893311428549,-140.4792867607082,187.2437595759071,756.4282357268085,1054.9507579707908,605.920045520511,-158.67433484164533,-408.4401174551965,-206.38272183673453,-150.78801444480803,-228.04887729743103,-165.99666726409978,-93.14451603273668,-106.7542872734669,-78.52470123133435,-28.849737309667503,-32.215963646421464,-28.24972277709601,-3.405310364425951,-4.099182360375565,-10.255292143517174,-3.9249096776485963,