ECG,-13.828397743875325,73.7089155244329,66.03090131958488,-18.32239329678783,-43.77819160169571,11.373180209666415,16.75582450839851,-32.07042887022347,-29.000073027558525,5.753532001581252,5.03803712865275,-15.58155139016247,-35.16061621999746,-35.21054951419459,4.368164357299552,34.98394408753511,16.288542885924446,-14.004423591058792,-34.37129198818295,-40.56465735021095,-11.429073677076818,17.135521743333133,7.521870494481387,-1.4676119408728567,-8.932579189982572,-39.53069399862507,-33.25988587211282,16.356366039545566,14.664806254550069,-28.31659658630067,-32.429651760912996,-12.233835319352206,3.5528124848548224,16.58859335576626,1.000397196292603,-23.973023456003425,-11.540060241624424,-6.17444889974016,-43.50942946110608,-50.39638983833629,8.988570518343979,57.0914153605638,41.01060710817001,11.102896596726243,15.097124558823335,14.673043476958961,-13.479083393702583,-23.899782082690496,-30.88497094092951,-77.05598294042437,-94.70077917156388,-60.285651303777016,-73.90757288263836,-122.1957925420777,-130.96631198833907,-143.3112413521307,-134.76954787453747,-39.69480798273259,105.35053403003366,402.02212832537805,803.5612336550437,723.9768739055402,47.9939918716904,-377.1451136568692,-230.59605446845924,-117.41556581663963,-197.74796984716227,-156.52154087424748,-76.13218799042957,-101.90571876387429,-89.3340338843512,-22.848187589889175,-15.792268718195544,-31.540162195982084,-17.82393502276124,-13.677102014380786,-25.25735290843327,-18.90667382732342,-10.617529490363859,-31.10339207340833,-44.32801318036757,-17.35418853826617,5.886840735582304,11.051609789462443,43.23124333092953,89.35288214725443,111.97340265721402,129.45549393340343,144.67657809900578,136.97370302023202,126.35942749359997,122.71664662012361,95.61781738935578,37.744348889660515,-28.99719348628973,-83.99554771133928,-112.75658348049697,-119.18059573351485,-115.6491652290454,-103.13413549890643,-86.92349992049508,-74.27536015560115,-57.91137904913763,-35.77352128505796,-18.11498565992919,-8.910134928744974,-5.622539694706859,-3.341938382862864,2.854166591016906,10.675331489541811,14.693280566940125,9.378713531510698,-7.225164258361264,-21.695430198134872,-21.286090168100692,-14.015296963790544,-8.30566117732345,-3.279533811629303,-3.3210886319805333,-8.050612890918098,-6.961247792989493,-0.8480643033328583,0.38115226828474036,-1.6089887071986482,0.34487650325291597,2.8686385973389292,-0.6054596098051324,-5.970716627541773,-6.957686813215352,-7.726366420755301,-12.24399710926559,-15.435563661807285,-14.3345221336664,-11.737220513913217,-9.39024538717299,-7.493567525036568,-5.266499844894444,-4.051849660490273,-8.801052038005889,-17.714122825256155,-24.297245880131555,-29.26316186267672,-28.570137892780682,-10.359892063638497,18.143332024792887,34.93663255082809,36.05996691834492,28.543905710357485,10.898978190985549,-7.963176981609111,-14.848253234253145,-30.346119690764677,-65.03158520803453,-79.97870446571494,-77.62462451798167,-97.96889700031183,-115.509521360251,-125.73994162370978,-157.04529163639924,-131.39096903315482,-25.954656107813875,120.74991082836479,467.52000505148123,866.1695360514566,648.1315863640085,-99.42283318136671,-410.13253847770613,-175.6758905403253,-101.19773412615307,-200.27457237462923,-137.98884539243508,-70.41016165844665,-99.73542289459333,-73.0425917520917,-26.45763089384224,-26.651072500604457,-14.362756008528997,-11.92945769313864,-41.41098364069913,-43.71250519303493,-29.665107968071464,-35.28624484347868,-33.80107533213249,-21.693360725817442,-20.24001441601365,-14.08939952953483,11.08500978332474,43.54619874832515,73.63339769210384,99.30504387969003,119.46035791439368,131.20940170203968,131.3511127755255,125.2857057126819,115.04738855591962,84.7356293813857,29.191016229398404,-27.06823838698642,-65.60361429733756,-89.96858859893916,-99.96167440424725,-95.86874985561886,-92.03107454857333,-90.41846285467412,-75.47340128644512,-49.12008073234096,-30.154688711056373,-23.445239852524693,-19.408706776132025,-13.116897603962162,-9.048669368822289,-9.053792854117393,-5.006222488610444,4.8644134593008985,8.06023300428122,2.3291031345727564,1.2310407217073962,6.819296923655674,8.161713015463057,3.437080937781028,-1.6448465209192022,-5.305349142706666,-6.00995796324686,-2.0798184763715177,2.388515693811314,3.6597515292690783,2.496388042128757,-3.1667638178189836,-12.317674091847053,-15.146740945416655,-9.410509428526037,0.000900194249338071,12.995723490073665,17.87274033224957,0.583585806999082,-18.262271034731555,-14.204385098089809,-3.335838859862072,-4.222941208709557,-8.634836353279894,-14.872313417537093,-32.389023237861416,-51.8858473348816,-50.02913021803603,-22.064635700161706,6.887845854000464,14.651921047776769,12.402231163415511,10.179858234016734,-7.781886161848881,-31.93100014255297,-36.04213311471453,-41.43115491328952,-62.2245231655623,-72.92647687949052,-86.89385319882025,-109.74111091764829,-112.0013133164444,-122.47956157406057,-117.69364688369737,-16.457448811983816,119.3447731993817,321.74163802711973,674.7225828686181,707.8572090560198,85.52557998310328,-413.0779320687823,-225.4143189907528,-20.313200361854935,-160.49174636683372,-176.45636338684324,-47.70966524606236,-69.57388882521245,-99.11853748938901,-40.74386606881635,-38.971777366994836,-52.74552642724242,-19.824662418504328,-18.99404745273344,-36.96647067962483,-25.46782381108418,-24.28886278678688,-36.15580228971083,-28.310074662308892,-16.48935957584713,-10.23252709381738,7.616146775473204,33.793604558840165,59.9153982711229,92.35992625012891,126.15757320845981,144.29631717976247,146.95860344276713,147.6936921463241,143.41170288966055,115.10200654612527,58.811685911263964,-3.9824927224807327,-51.150803590862054,-81.59285981745201,-102.63067508105391,-107.4532346001399,-89.5932534779209,-69.88289131803006,-68.7416517221821,-68.27162101144336,-49.16456203949845,-29.166078013501455,-25.62582644141095,-31.80485092296398,-40.26692385901578,-42.26494697500663,-29.75437618157656,-14.873897742741029,-7.591331209884146,-1.3812212576972982,-0.598173121662235,-7.623667737447104,-5.319357017054315,5.4559457917343295,7.043561222318402,2.7473923451766584,-0.9519948102542752,-6.430494834857139,-4.0742027711324695,5.548108632884261,4.482290155204373,-0.7806505712213543,3.9098728532835363,3.282709910448805,-9.445593578630685,-14.365795099405176,-6.789478038155444,-0.12621733681372405,-0.018667725944251146,-4.8157881566510525,-12.124161474513745,-23.684306540849896,-37.63627163791332,-34.86906439032019,-9.063359605384154,14.192623337814794,24.505837604212253,34.95095613741836,34.12542494274942,4.730574532221171,-25.67371039539625,-28.314128987759958,-33.738453804788165,-64.18454512280711,-81.10688405810606,-83.09174975149193,-103.53412700510953,-114.96507455666708,-119.45829412914595,-139.70391188742911,-93.0772870293219,21.49466999323556,167.45985124267787,510.6915215463276,838.8574988036354,503.61004528578417,-226.1957145122911,-384.9079378704334,-99.18677081532938,-93.86569026721277,-202.33163726186945,-104.43130037609858,-55.04196836185997,-105.53343891456184,-68.41498308904208,-28.590139066598542,-44.211959479646865,-24.93749936836359,-8.707505260063337,-29.012930411119314,-27.79716374948164,-18.47065830803293,-23.920952666630352,-19.880872427426397,-19.9974345510677,-27.772306649322687,-11.443950453640579,20.807551181974944,51.80884514485197,84.80944895146914,102.31368199924279,100.81536269988308,108.84375451384528,122.8029063996218,117.77824749491909,96.40414321936271,63.28840970444721,13.354703497637859,-39.738286209383425,-76.25963153047755,-94.58186730328306,-100.73080599744262,-98.08729047988533,-89.35106969333864,-75.64486829647268,-60.152073769889626,-49.089586006358715,-40.17067613764894,-27.49981622112771,-17.99352646389964,-16.638023819702894,-14.234675108642609,-8.557808726151706,-2.794998479510763,6.381742088204387,9.623949288479345,-1.533879849065844,-6.487514435782401,3.8049745564814064,6.998414211946244,0.6765711423137457,0.8420708120392391,1.692136460344324,-3.66945025903701,-5.348151893699405,-1.610957345097745,0.7226747304539476,-0.05671621345725342,-4.113954131445759,-7.241813016953614,-4.032287952564035,0.415650705660763,3.1789689657466793,9.335585137640482,11.999548788616856,3.270121753341659,-4.030984203349302,-2.936290472025398,-6.6842635741603615,-18.71932725725395,-31.023953463558712,-37.067372395699834,-24.078305426698726,5.406069708398814,24.82517095393446,31.8292570158749,37.55851272762453,19.11228242921582,-21.819313439380892,-32.17238909958096,-18.57255225012551,-37.34901398891437,-67.47617974993733,-78.677698158565,-108.92274207422705,-141.08348652326123,-138.4195225890229,-147.1920212917126,-138.45195388800968,-50.131484088162594,71.97492303738645,336.9580534946463,771.1890811880772,788.6600075816115,119.22996471837804,-398.57510147800855,-261.85747126697686,-85.19673065623766,-170.75377283660424,-164.0176399126299,-77.59531620972109,-102.34140752909427,-104.80531787695524,-46.03376359414875,-40.32456320845075,-42.36590678218165,-16.01367460680811,-16.251214360190694,-23.102987619086736,-16.3000394130176,-24.191450498361178,-28.9280727068334,-16.269039626326464,-10.610887253508182,-4.938716929379372,14.149058886985244,32.83730905041415,54.24546092380552,85.60039087529992,108.20865510280477,115.65687501740672,121.60528299755406,122.72356953253689,106.75030790874371,75.70890309416244,35.75273761715643,-7.13051400824188,-42.976290737962884,-69.99830009710318,-90.99266299314075,-98.08543092338417,-90.26695795372949,-82.17405276379012,-74.13764447241213,-55.68820500458666,-36.72192672352933,-28.613221670060526,-19.91486537397013,-4.743044135142178,1.115979862111395,-9.165529837957557,-18.38997061716053,-13.673255061390968,-5.522625230700683,-2.9207530531294736,1.7056493813871398,7.019230076122124,3.229599304209019,-1.1123537774576082,2.6959454282816386,5.0096276867128315,6.628024449041872,14.158094841927642,10.10477640838292,-11.142059783079496,-19.388629527993693,-7.730227827086736,-1.9669988119548787,-0.5098031648054739,7.7878652577174705,2.947382185473783,-15.553048537987642,-15.922018688504963,-3.0976195801205755,-5.306560069398277,-15.514014325281607,-23.961800833614653,-40.64120873104714,-52.55433342214642,-38.358512562772034,-8.702206182779502,18.27503401970407,34.929974820313305,33.23737649878687,14.78634758306286,-6.683275073806772,-18.570709748043026,-22.25963938338183,-34.686497022382795,-55.01287175198709,-69.04709244472869,-86.09128283152936,-103.1191376697279,-114.78180253167241,-141.83627487181155,-133.31646592263823,-42.421365018120696,81.08389431811456,340.9389400275063,747.7583847746819,738.5049740296496,81.27367279732498,-399.3940822844164,-241.18414798258175,-66.67167278201464,-162.25006260915714,-162.87705003451808,-78.16600784773578,-101.88976322145992,-102.67369970009165,-38.42225675688779,-30.657757210794138,-41.109166089616906,-16.225091731381326,-5.764120635542149,-15.672411768779462,-24.832220411018884,-35.80034518860265,-35.25741549857335,-21.409865359632626,-15.816154801151878,-15.93771581983978,-0.9043522265616151,30.725297475284233,62.01193099176438,86.31543725403355,110.68270806459913,130.4356759667405,135.47445344557826,131.18921040825236,120.80414384613624,95.19621888344462,51.67306026720834,-1.8769819623689212,-52.317718906888366,-86.55694126247596,-101.43406762966248,-100.70330851799179,-91.37459082670837,-85.10124107189377,-83.48464764955146,-77.13275863819229,-65.59069147088239,-51.60325475189674,-33.18856967762625,-17.517745127547187,-10.816110184679175,-5.001319080056781,0.7821464014595669,-0.3397823560269444,-0.49308739610656716,5.696559307174674,5.713336814376149,-1.5755313273455123,-1.954934064781357,2.9447439900930217,2.5640293781600043,0.9400335639846791,2.437783168317342,0.3911050589763221,-6.329266252471875,-10.541212308609637,-8.743951802567574,-3.1052296825698456,0.7765447818504292,-0.48121088816848534,-3.1911550275815905,-4.580216114896842,-6.595278404200702,-11.080903042978044,-21.140579304708695,-33.46728281205373,-30.627664862882902,-6.144106057508507,19.730462898256782,32.97311332262501,37.381245478650136,23.910890098315164,-7.566853887777815,-22.204533243727596,-23.98406126848169,-55.07430081249443,-85.6089024500922,-82.59175103397486,-94.85136922444555,-116.99702496530989,-112.91795691623747,-117.41917515500545,-84.60266702316412,37.532773070128286,184.6181176298724,433.7010846146193,706.5195825438152,469.82045816946936,-195.13850132285495,-394.0966815328543,-91.15269141108426,-46.1820398482603,-196.210404482037,-115.77707077294654,-30.26470621676191,-88.46280734390307,-70.72171781769663,-20.873809966684014,-47.48402498512534,-40.89817652256884,-5.323682032477059,-17.84961951815965,-24.856595081093488,-15.367379005902555,-34.20682995051224,-44.52328981736639,-22.88018132314896,-5.7569375110046845,6.338796279347511,28.207242979839403,45.23288944897594,59.076737505767795,85.47669133996419,111.90801698353155,121.91629917016394,123.03166831154158,120.49704066840879,104.28106166172554,68.9382863541792,20.095964583390966,-31.362863203424343,-72.2178261130913,-96.42936807634791,-107.88138189136517,-107.89188933658308,-96.6369324140118,-81.9718505778772,-68.15598329908329,-53.25874816779093,-41.24966193629192,-32.02278202789116,-18.420594969780236,-6.005430394205536,-2.21888759144149,0.7920941897312588,6.235335760867178,8.407716180186467,9.62371937413945,12.520843319264335,13.238283568135346,7.9907953205104825,-5.196325665948333,-17.361886294981982,-15.57303196847573,-8.954637319786269,-10.858550722376632,-10.759611653615828,-2.528041777059954,-0.013711141213690325,-4.715103119230875,-5.251635983872902,-3.1995564581984315,-2.7873029396610907,0.4630687873942989,2.470157602100814,-4.882614015423677,-14.969615490682415,-23.242931862843765,-34.51317781396938,-36.34267696727705,-15.553981176430081,7.975648908117313,17.339415241604023,25.358043184901756,29.79813686903485,11.589163491238356,-13.12822432865114,-19.943133898385952,-29.3496369547785,-52.52141503847605,-62.071453277199836,-67.50599269646327,-87.88905341228458,-98.56136162236882,-116.25095806756467,-141.2765721534207,-86.0038099510681,27.262576113868477,182.8891192055819,534.8722359282128,810.3217529806184,426.6762340834622,-255.16193899166888,-360.37253180952473,-88.27143119479388,-86.9116350306709,-184.9132668813685,-112.46680392499869,-76.38111609445468,-106.98570690128003,-64.42520195142511,-28.501562995548518,-46.27319612754114,-41.33711384651419,-26.502140022958542,-29.480341506311184,-24.04489589020035,-15.630289263636381,-19.068602930266405,-25.94820301264975,-27.164616795200924,-12.579071313785557,11.86069110822412,29.207714263616598,49.02858652490552,78.89295368318969,97.1857713647182,98.79725307383525,103.10425311245115,109.80246533087353,103.02856065701205,79.68259405645048,44.109771640994104,1.7701461987867528,-37.812536114578016,-69.3398618314485,-91.3089603307647,-99.1386069690321,-94.39016504425055,-84.63503603235841,-70.48236879106653,-53.392177952138326,-41.230193589105184,-32.6785502173462,-22.047963324418472,-14.43297640272906,-11.805195079600331,-6.9721844056249545,-1.533084760832363,-0.35607717011575346,1.6802714609842404,5.237522529034122,4.039165118849173,1.4752651735500866,2.5964571680147,2.7776503775568795,0.1457658307654306,-1.0859371304635257,0.3890913348760652,2.797519659205385,2.349120781130271,-1.284176913746549,-0.9386850308464245,3.3642958898528406,3.660971520839815,1.617829778557046,0.4134024496662967,-2.801718649200639,-6.628542808344832,-17.378939795462987,-41.29971028305974,-50.76107417732128,-24.082163467956917,7.312704357797857,20.30357201529072,32.976837237990466,36.58009312972069,6.379639475161932,-24.304202715996826,-22.566934636055862,-24.708918558244026,-46.69945525532839,-60.63893142957134,-83.84010224729083,-117.79815694906385,-118.67704823767846,-118.03997260054157,-122.97322421143305,-52.80241008124352,61.06258132176417,242.17989974032665,611.0654308390834,778.9640283882056,270.12332068140563,-346.5133060738561,-330.27876181604495,-89.23276299547862,-139.32783776437032,-188.01295080578774,-84.17657022863536,-64.16456865244841,-87.41303198665796,-45.961534606366016,-30.875840054094965,-36.21834431263313,-10.90288055552611,-5.243174099445023,-16.60019929716092,-15.831197427192777,-28.080741241283434,-40.0795165672254,-29.983933424581586,-22.58763382443001,-16.553735256706315,3.1472320134437126,23.420685129620406,47.44966118713599,81.42689151262607,105.14851405039687,116.32407776414871,126.02249232672301,123.18394361279627,103.57191559295326,76.85713389078293,40.11115366729312,-4.404714460107081,-44.07457124158171,-78.95249789141451,-104.67963916771947,-107.25180343743321,-95.8697195932853,-86.81689947818842,-72.26597284754416,-50.595922731217215,-38.57522968328086,-32.50981416064,-15.531397934194601,4.556005904747487,10.983820890379157,4.935767463739538,-3.542982345576597,-6.06876555968736,-1.8649951505388138,1.485440098106661,3.6318719487674898,5.664425866401384,-3.0223542287497445,-17.296551037250467,-15.618131689592023,-4.306322079970478,-2.0552938556661218,-2.9513735771123315,-4.419720277497888,-12.843769002350577,-13.86062642463612,-1.5141154009250641,3.7077842038596636,-4.242368026421833,-19.787365498798742,-42.938944598131656,-52.97028930695679,-31.183932543204524,-2.0855449512490907,11.237688517156315,19.948603708667356,25.258841706782704,9.941032114440283,-15.33405414589291,-22.357605339022545,-24.631235577420714,-46.356254281767285,-61.56506264475048,-64.85961426462194,-89.07986345300455,-109.59664537939148,-113.83520623628915,-124.05606427359307,-69.2038957538266,61.357724315188946,202.83051855158268,468.70416923233125,709.2636373724064,385.5874939299402,-263.49082832590676,-365.2117329610258,-62.30091962718883,-64.54747350885579,-189.1284718561215,-89.95127297058855,-35.23197963906202,-98.74430024842148,-67.8481591748206,-20.465679635018063,-45.17467119709342,-38.584709670255464,-8.599938013108524,-13.776792864566904,-21.184091504780056,-22.977870454018323,-28.65295154072397,-18.65487048716254,-1.3899084245626678,8.993679793925192,22.477958478699342,38.830481892798744,53.863553468700694,71.0843802733381,89.77578198963229,109.1405986156978,121.36524770893504,117.0993696656657,107.24210396033955,93.09772577032459,56.54008252859822,8.61213817577179,-31.835538617879006,-76.4120777877956,-115.96234023813074,-122.00842503646875,-108.23666012806568,-94.2758543365789,-71.62754854708825,-49.34224261493152,-41.917515986993195,-38.260206655514466,-32.43069016120186,-22.683101549285098,-4.513714350743477,1.1656489775622205,-15.262626101195153,-21.713885882852157,-9.159782706145055,-1.3276250556235176,0.9415000838990615,3.8377915654489954,0.6650316166681911,-2.5621863007091505,-1.1021539034386514,-3.511963637845472,-5.1581123454617845,-0.9665224262058203,-2.4358915280554854,-8.11259311283953,-5.726128899851766,-1.2500085486539234,-2.542512207434571,-4.161338268808059,-7.244529850453947,-18.741194053062685,-33.614079624036314,-40.1913998728324,-31.990617167410928,-10.70814560010823,12.373937081693876,26.253309925996664,30.364484726743893,21.896165949710873,-0.7975822836861965,-16.84552374926854,-19.82184321549766,-37.93607544235283,-62.42447516211849,-66.34836804379802,-77.7751262687576,-99.84002874941099,-104.71490410706751,-118.31665234924291,-109.2996063352688,-22.01538665753673,91.68167075440282,314.89098757624936,680.1538665121445,669.7139815299892,51.56398676027452,-387.3074034502075,-216.3945560231445,-57.702915788722464,-162.59312978799562,-148.40612211537518,-51.376903554767736,-78.23065628585134,-81.90337551548394,-21.492617981375275,-19.444723897181888,-24.289095517398593,-0.31661339212631745,-15.342804136585961,-38.3290284662565,-24.071664484616324,-13.224656190298237,-21.171967254390882,-28.414048449131386,-29.034992884193784,-13.810551681202094,13.618294111816294,38.534291871850854,70.17718759050419,108.19431321524243,124.1462228039605,117.26580655976363,113.17515816982635,109.45593597677038,87.98573244273692,50.5516718849394,5.516692810230912,-42.61908738698146,-82.53398333762554,-104.30431509006222,-110.18395867160226,-106.00019577805799,-95.12804106794047,-81.43983251502272,-68.53675910459054,-56.06779745129817,-41.35289702061387,-26.07488837644873,-15.432522032464824,-10.07871284270896,-6.972271646960564,-4.0240315687474535,0.574115127629721,5.643340709414904,6.8076343399969055,3.865178424629084,0.9640063741537261,1.250035229864972,4.185603851447681,5.661976779926281,5.69976245245763,7.502821056768079,5.410722638196372,-2.1508124682800442,-1.702615207788547,5.626729586936572,1.9021327544379805,-9.914490907178493,-15.70515799759003,-19.54698307195197,-28.161827114163604,-38.19275740478875,-41.65814266544494,-27.675358013946504,-1.8021126795716498,15.129581574526295,24.00227641596129,30.816035197936838,17.14826099676034,-9.602817100665687,-16.202425799707314,-22.4228872750013,-52.104420234958404,-64.76675827084178,-59.92770510724936,-79.06287193302504,-91.91701555180067,-93.4055311943323,-118.90702725345734,-95.62460251320795,3.835661491838792,149.24879998841868,470.1739688546112,783.4012270333717,496.52123733485524,-194.28435684879463,-389.1612981877839,-122.51794940217066,-80.59143650900579,-186.36193332928295,-119.3440131049838,-72.42125467064372,-117.17397425399263,-80.24219671665718,-26.482890802184667,-38.80490193779235,-34.059725815112984,-14.441040232275295,-20.796313621316905,-19.78452705250063,-14.925798397637593,-25.28361155486469,-26.894945450658554,-18.471425210024062,-12.022086955016603,4.010659135899948,28.090878983475392,50.80709669196409,78.12932811435908,105.11764638549963,117.97212737358453,121.76082697411331,126.11059474805066,123.41974134533169,99.58308757625966,54.20855456182982,3.3015947954437497,-40.15020569098286,-76.24744210007347,-102.54578826614377,-112.20519193955116,-108.5660583604137,-99.20095060691384,-85.86322171477845,-69.56367513874562,-52.63535079004042,-37.51991402513855,-25.51625252439095,-15.209757079336452,-8.251411891081705,-6.806102867103412,-4.796033838646551,1.6578939579298009,7.38573190045221,8.699916707854946,5.32145950300681,0.5380704861366326,0.5160788470791609,3.4615275626775404,5.3592566496155865,7.753418596327718,7.429124339363096,4.602138336859111,4.845989356679514,-1.284467245073067,-14.282963684505543,-12.625252863755573,-4.855240466898948,-15.516224930910745,-28.230628164117086,-29.8524019420127,-36.011873971900876,-34.220232479507935,-10.081756083669438,9.737485651574957,19.119894765987876,33.75129141359408,30.487608250043174,2.242792098679651,-12.05464888189943,-20.929546380793035,-54.35439932839272,-74.1012527464222,-67.42997346383761,-79.77036013393204,-93.1999289164373,-98.45606904372805,-136.86124836820397,-130.49105887181452,-22.281647652820048,112.65914666789885,373.09921462217557,723.3725485035893,600.5421601543487,-61.28804516549185,-403.4493655657304,-179.26449008973333,-57.633550510305795,-164.15548518333665,-133.86140678377856,-56.249096422873166,-83.72665717513682,-71.97575874312696,-22.98697958876563,-33.00267659855156,-40.57534981223189,-21.731983423223525,-21.815651306478287,-22.643111819786178,-16.374675735996288,-22.081260273935317,-22.911366911230143,-12.033143310528084,-5.135395254594529,2.4681845195353596,20.978148548888328,47.67413334054642,74.66733837088631,94.36302357424165,108.96954625720575,122.86152929828512,128.71389604922103,121.72631848287355,102.75414810996307,65.52529713669986,13.519710863744901,-31.996892906462346,-60.27758681637151,-76.72835625441539,-87.12716475015573,-97.88711633216646,-106.77354290370585,-97.85176928437316,-72.77057381211786,-54.282320058680966,-46.25000948314363,-36.83121923182314,-28.53282671703885,-23.529675817175164,-14.228897318375818,-6.69857343555848,-7.920553771559998,-4.217213979338695,7.684625224854884,10.708064933263934,5.594675119708331,5.034856848264132,4.328947098646388,-0.06990130899080427,-1.251438631436578,-2.3999496420471083,-6.526517754755158,-6.020310976337088,-1.8552013657522703,-0.7109592284570212,-0.6806798540157608,-0.5858493655056041,-2.5250268491383494,-5.183619979437983,-8.798580971737866,-15.695828514555604,-24.96254142113233,-31.490516887210653,-26.04790355589769,-6.345435504042017,14.14604949684781,27.94291678991467,39.6965936764581,32.4697900102325,-10.166106917272085,-51.24494966004111,-59.03255801891105,-59.59642826408184,-66.41413267172457,-74.39168569200535,-93.89565438227669,-108.31828892237247,-118.2302966148862,-136.54226336671704,-88.1369783761565,33.787149446840004,175.78250816515768,465.184607046932,746.4222735453857,449.83656764220626,-218.90107634836488,-368.0708128644636,-84.10325979192395,-75.44437594002319,-200.55516983019174,-108.06430367059929,-41.299973169688,-89.50995644115719,-55.446513407976234,-5.941912095047297,-30.13488995340137,-37.20091428863264,-27.454495679135366,-37.61638709223159,-30.82707428227397,-21.295286646125874,-34.703779976815824,-37.59005726840002,-21.073321817269758,-4.989066615709486,11.82672944402448,31.86994205802122,52.8110643376277,78.0821966060383,104.30607131971979,122.3891717260278,131.03401878590304,134.92809457281433,131.54043072994517,109.67875590813952,67.45475195930332,16.50811551315409,-31.93135383622816,-68.13819638574843,-88.49889563894212,-102.44014109734243,-110.5605898909456,-102.34064681852463,-85.63347999699792,-71.78641700528806,-55.4425415526134,-43.051712682820515,-43.16624064269428,-37.48763730104643,-21.68850864549134,-15.401693752145711,-12.562723020256907,-3.3965300478251628,-3.188585495858476,-6.493206519104049,2.7562922612834413,7.836704239625632,1.8040828712216666,2.5503379808939215,4.184944184514395,-3.018768112166363,-5.494751128149563,-3.4375636656044115,-5.811962228099313,-4.907971135729662,-2.4263795160405195,-6.174620100952637,-7.145995462461325,-5.89244244568339,-11.77072331179414,-16.240977178833155,-20.012855258386637,-34.24523851034938,-38.07220224025577,-12.556803809345448,16.34888369374835,30.538081428443338,40.559332977506806,34.315445302384234,3.756344684560606,-12.869026144343191,-12.915695151003515,-43.083472562039915,-79.43424017832233,-79.4366096769595,-89.07779738219647,-117.05050426867977,-120.1072970054289,-123.88979650602585,-101.64182290180919,1.6895329812724214,128.6963360299823,352.6868450437811,673.4417057804408,574.0086072349096,-64.70653774761425,-401.505281172904,-154.29661466751028,-33.8806679237298,-173.4501619317407,-136.91573744062904,-37.01065587373016,-80.54287934655542,-81.27004913996622,-24.252913315510774,-37.904173861522494,-43.54650932066986,-10.628395746675183,-15.562646217505769,-27.116223537740424,-15.674897224871277,-20.159307913752627,-27.726957803797585,-13.713933816699434,0.9998262098464732,10.39393228855009,26.853401862212827,49.44208609330473,75.75628545215989,103.0198463287245,125.7404614393135,143.29174272349255,145.82471175832015,121.31540347771329,85.98770970764082,56.99592586501859,20.42207923401182,-27.560254434406843,-67.95889114012083,-99.91974435888753,-125.14501736719549,-126.39426975810376,-106.654670753343,-88.38130964111093,-74.81093839444554,-62.26747821071798,-52.82481222022776,-40.30052102205329,-23.746175955561974,-13.011455867198165,-6.630098024714123,-0.03861864195810227,1.1309410455064004,0.615160817062975,8.544346421268774,17.816816289028857,18.554744123205555,13.464810837124219,1.3499633259833814,-16.581472206112714,-23.57860709610864,-16.671018366722,-13.503674659066707,-15.948265396814506,-14.206973213452443,-11.33354140058502,-9.650143666135978,-6.770874329751326,-7.182028564743945,-8.804224262271113,-4.435005345739054,-1.1326848481655034,-3.827737651186112,-2.3760956412164287,2.3811050249521237,-2.374909563641541,-13.623260169061684,-21.90825347759595,-31.378058617724548,-39.57158851740623,-29.388821540798332,-1.6580752263890517,22.50603514860413,34.99389604505856,36.346992292403336,17.663733637633428,-11.533710050683506,-22.165247554825925,-22.142565854250467,-36.64609893162083,-49.4437313033023,-59.8132267246922,-92.61666476352427,-113.00883528024218,-106.97579219774137,-119.05300884238567,-103.53325737397142,-25.21688704791181,91.19406851355282,389.53912955347937,779.2906126026655,643.3433777693383,-44.7633944855163,-397.182240589712,-193.750282703182,-92.86383963334951,-190.81951136419764,-144.67391569029155,-65.79687441919216,-94.13914285477492,-81.59502717065439,-33.54022323400076,-38.97543624351691,-35.01901939920569,-6.6929773978421725,-9.707605353134388,-24.05000601626938,-23.210493212938108,-21.349341740311523,-18.262593268964693,-9.111252145615865,1.5787255977048362,14.861333512394792,29.24717243213366,40.32791427587399,56.28452733473806,86.09658155887212,114.5019386629388,122.04899706153394,119.62886878330417,118.84686780351306,101.18150965206098,57.616612714099396,5.232925880073454,-45.70588890276533,-87.74845822014015,-107.350037088509,-108.28681563957086,-103.04845467745098,-91.79338087720541,-77.37442100238479,-66.46459415566201,-54.13900606398913,-37.2295145315577,-23.22948195183257,-15.301747630513894,-10.196641720079398,-5.629773392918068,-0.6736703729893705,3.596172037630783,6.785147381211937,9.935284215607624,9.550581467389701,3.8393645942494423,-0.4739244344676905,-1.2880904131686979,-4.3755565060413275,-8.264772885817644,-7.392016946646475,-5.887716806862532,-9.175364321243023,-11.849833638111058,-8.877136220532021,-5.618290058527835,-5.1558230375316985,-4.022467676472818,-4.037143488420279,-5.379634388707631,-1.0859768042018025,5.17163827452072,5.718167813995637,5.036986547651635,1.063748270061767,-10.787322766145776,-15.186156466526695,-6.4090747986722985,-0.4961180362127351,0.8193870069159779,-0.2759043708797506,-14.153896647993378,-33.109121144615465,-39.55102591522063,-32.41422152368561,-11.625620898046018,16.445166035369684,32.55634806161183,36.43092190253489,33.10388413480487,10.003379129721706,-19.70489111333442,-29.33379555922113,-41.54328286303259,-71.66716173318585,-82.19004355304762,-81.06282904759365,-104.93623519375997,-119.37096843062669,-120.66810211675549,-143.51883878655156,-116.40553476801551,-17.535299558404574,116.90731358692369,449.13731572076415,855.20221946646,673.1754816934142,-67.22655585104614,-416.33974399069774,-193.22052646903046,-95.08779701111335,-197.52202639388668,-148.67030180202227,-69.5662206124208,-97.62903983873682,-84.89219997720184,-35.603453232016214,-31.64814728327371,-21.45239698648773,-1.5323801331620484,-10.006639652823079,-18.015248507895382,-19.432692042121722,-29.97105717473022,-30.849742565045783,-25.285295340828274,-28.76195791811776,-18.889902353908788,13.263030491524447,42.886165567942086,66.46854181478702,94.6829016232592,115.83030636054109,121.89986935927753,124.57273036949748,123.4333721721718,105.25243065756452,68.43707283169746,20.083534052649913,-29.305210631225798,-66.71157371109852,-86.88112178048284,-89.98433574661074,-83.43062137632695,-86.52010105995406,-96.86939718486641,-85.70435330020472,-53.97378146411709,-28.33080331686981,-12.923592352352529,-7.183107267577022,-15.839910761349216,-20.14569540754851,-9.053277158405827,-3.9210278014334463,-7.162205809618772,0.525723433041712,8.134396553276755,-4.93575158127118,-22.226833017698386,-19.17333844245499,-5.716263724675681,-4.006104688388842,-10.7634119484078,-11.421751116530103,-8.816748664040698,-10.413642091316039,-10.70165677813398,-6.172317260312429,-4.274509756162587,-7.3811427514680545,-6.918900708752146,-0.820291868351946,-0.7158926253540265,-9.58483117123403,-13.815552993784214,-9.572074990523914,-4.968182304444182,-0.35681769243232253,1.0294101811171856,-5.502797335780798,-5.582246415886047,5.07114693760104,6.246859421921639,0.210364669806836,1.782087773047568,-2.26250339597793,-16.289661052128267,-24.409397136962802,-30.975181371996428,-34.57818894389568,-15.116331108618722,14.924976966945403,30.469294661775024,36.49624881383898,31.25604370999083,3.1692750119731343,-24.89982937014801,-30.45413217266078,-37.084632884491484,-57.315192376591725,-67.65649691493745,-80.01010919112977,-106.87327796820209,-108.86402751260661,-107.45058943259049,-126.29269337179242,-63.383763597617886,74.18803226946838,219.523449003717,517.0689754904477,764.7196551259981,384.39171477131015,-289.5432088249894,-354.76655851644057,-51.4205290607331,-83.34700066947168,-198.7212371987363,-87.53787826809226,-42.464048621726235,-100.20045791547369,-66.93805445405799,-36.03735783050831,-57.487551916215125,-39.45646834157805,-21.00844668629763,-35.919102753999255,-43.60498335106968,-54.993929564848344,-63.101653630306124,-41.70495586190323,-23.108108390333918,-17.90223253315929,-0.2712794201775841,22.859030956432626,46.42907589896226,80.12417882203823,112.74867955891179,136.40806728696316,152.41450947319754,151.74685364125241,136.57006415863663,113.64940565755357,71.94638649540778,14.839887774267122,-35.62184299010375,-76.4387417874252,-107.5214634748591,-116.10493517444868,-109.79964909015166,-105.01695623896431,-95.06605764718975,-76.71441655111892,-60.83093949819735,-45.76434866930736,-28.374744231331135,-16.577185881945812,-10.379915472614798,-5.355798848520688,-3.933476605211979,-4.775818809751392,-2.610848586602149,3.1549082108925504,7.869825628974299,5.005154830243317,-1.9376263194774062,-1.8799533945591556,2.7941330165919602,3.4137196652608264,2.5033554422505127,1.9124075278477939,-1.47386605419379,-4.868077478910646,-5.550683896251147,-4.79321453350828,-2.3258870233144044,-0.72267284921754,-4.379221615504786,-9.965938459671914,-10.321786556977152,-5.1714052549597564,-1.5307103227479093,-4.499079037431976,-10.488450332805332,-11.78861948098895,-5.393227143129298,2.3629042477037423,2.2281760925577956,-2.796509340057737,-3.905011756067175,-5.591757335012181,-10.785252788641573,-8.959347793659152,-2.163065262995639,-0.29879785145942783,4.117244361475445,9.001746717931951,-3.3501214535637622,-18.975972530822027,-14.82462937712985,-10.744123531655681,-21.664049373006932,-24.01025118052761,-13.916453209020446,-8.021839366269194,1.4128771067744843,16.585318220522783,16.106447278799692,-3.3123646241721403,-22.118002268781105,-28.999591190127713,-35.94600475642269,-53.9954633979455,-68.37332149708698,-82.29472978962792,-111.25861447279215,-126.06550200125906,-130.31762684912061,-148.33384045590293,-110.23385710095042,-8.690167182605919,137.0832335444759,496.9029634875375,877.1762940332919,608.7363449512047,-140.30121068424637,-400.31435289109163,-150.78355390046613,-103.04052762773071,-209.71528584758977,-137.2965690422869,-72.02035114025517,-107.76803574035802,-77.41196696200089,-27.864088597340544,-39.72606856671521,-36.9072177767265,-16.91575910749803,-22.770187325392722,-23.750532762549245,-12.815714023764126,-15.857497582098304,-23.612233063969615,-21.097774130267712,-12.176820671896861,-0.05561366309610527,17.991491735325166,41.72444640005252,64.68994276071362,86.98562171733766,113.01926716632481,132.94635274054713,139.21358317672986,138.68299164812257,122.94463810893194,76.26365626015325,13.902198456335585,-35.323945501306476,-63.59462173426273,-82.07682937027174,-103.69189286190215,-120.35489219079594,-111.12360210701013,-84.23499424589244,-62.80866500959597,-45.18072968257234,-31.77408671991047,-34.678208529861,-38.488711987095364,-23.997602445363164,-6.964665734587552,-1.8035635986717367,0.30393030888290795,3.178098474675256,3.6324898463922928,4.797309644667802,8.067053600658713,7.738314229822008,-0.6406758210504684,-11.569249383826726,-15.056141537240538,-11.925054182848488,-9.398790743007917,-7.132904519818121,-4.395242856484202,-4.920402695116042,-6.901796785005789,-6.274334652967559,-3.8993890024212092,-0.23451908108756214,3.3411010363023195,1.5099709506356476,-4.750026581746555,-7.774027692203166,-7.685888889186359,-10.299114327963741,-12.77199209930479,-10.344441164120852,-9.377773866165793,-13.155337523006564,-11.94028425020432,-6.094105016313858,-7.696269906675678,-10.857020322231897,-4.280202902786524,0.22782550974281435,-4.543577666846852,-4.00516234028567,2.711106140041206,2.488352976539563,-1.5253580832719056,-2.764774940796869,-4.763162263868409,-5.975163687252049,-4.725672516505062,-6.927390823221259,-13.072777811327748,-20.200847658849984,-26.215167176043096,-21.441710763587736,-2.4455616795381605,15.805237346451573,23.171481346324367,23.782327797435784,15.299895667216116,-7.006827396735753,-26.73718968209222,-29.569032488208645,-36.02947084830152,-57.09863270478719,-71.21594942483796,-83.82708560546392,-105.71899548453484,-116.48973026931583,-128.94887557556245,-133.60726026376364,-72.0879612249013,19.356418773166112,192.25560524457137,614.9561095134015,911.9898679773827,477.1394564926269,-246.17298646715648,-379.4863701423967,-151.4519498765316,-160.732223292578,-222.09539349690908,-124.25819565727447,-87.10696560253456,-117.38084109347491,-76.21721565402194,-41.07565220434779,-48.22535415296171,-28.810960758658943,-7.919938950986101,-14.992079849889265,-19.983625554333706,-21.048494096701095,-23.485300621530204,-16.53870524459219,-6.123610522905631,3.33673434738079,18.598947460741723,35.714272350573225,48.30035007496645,63.089366509084456,87.6162931480664,110.32389325187891,114.83673307808037,111.42061277618185,114.36499105989338,107.16054993462042,75.328322113144,28.547239663276073,-27.92236676128131,-82.75771390025574,-108.35269420005302,-108.13591469142153,-107.61624545279679,-100.67339773899067,-81.85528993335922,-71.11047003578221,-60.06143361876799,-31.663713592855917,-13.386380287906988,-15.727760489318594,-5.55910396810771,11.325807850766278,3.2842677248533434,-11.680661648667826,-8.0274008250821,-0.17254951884997638,-0.45167141815468526,-5.180036920603822,-12.821166396335371,-16.57109893969947,-12.376060657376247,-8.157749114555799,-6.057246254035519,-4.113104521486406,-5.936187108677117,-8.860432701059658,-7.202972189514572,-3.9615725712347487,-1.005242766552895,1.8465496052893737,-2.342668362627716,-12.551095921683846,-13.42209786650438,-3.9875746094901494,0.5985045977259276,0.9214266220954759,2.6533866754083615,-3.8793044413149396,-14.30454583419122,-12.176546121814217,-7.0009356316665645,-8.369222089042037,-5.030528262032075,-3.970554821423015,-15.080428247676275,-19.06413743798737,-12.685291604949612,-17.055557364843644,-28.618423137068735,-31.406074742081646,-24.20584692466717,-8.135194829774633,10.71033282915583,22.648075111726072,28.90209538150728,24.125356504321374,-0.4851709155541517,-21.782536190815588,-22.009188218298952,-32.50741427493155,-58.10245818992716,-62.93948804224871,-72.45392561186321,-108.02231541058228,-116.46532727103447,-114.74176012177234,-123.3440021094555,-46.147140835925136,92.95359965170682,254.7671868286239,569.0922138122515,737.0966441896597,256.5471702492158,-354.65201725903177,-302.36778621954056,-21.190292227170342,-104.92470047090917,-191.2680878349135,-75.8706820133392,-64.96535605238235,-111.0694971109051,-54.34325007289635,-30.590495287674536,-55.175048000055966,-30.580997219851888,-13.334420905238687,-26.985244025309118,-23.110142788363923,-24.097969591724613,-36.676817713358275,-29.846207360908082,-18.11550822606769,-10.650962824273511,9.88358094179566,33.41544508413001,51.0803510849082,80.28236934596158,119.45157269123811,146.60490893923276,158.43088945749363,162.1035777666114,151.8942606023562,121.34530041551884,74.78541427090482,20.646021418149108,-32.21782766977762,-80.22247890509198,-121.27492950356674,-140.13755420798282,-128.31295337373473,-103.98127450122854,-80.5266974871827,-58.80911672330402,-50.368498360170754,-51.11028301871749,-37.04315389560027,-16.632689867897753,-12.338527255770238,-13.537435912882756,-12.715566095437445,-19.42815917219206,-21.106092926436595,-8.231120794677903,-1.3581745482027827,-4.877172843800103,-1.8643879412759787,2.3762326699515697,-3.261035445251185,-7.332910653138214,-2.971446156748172,-0.6750919594560614,-4.443282426881545,-8.680348673550727,-9.883459859566791,-7.298876241678601,-4.083082486877181,-4.59401165890214,-7.240514729891675,-8.819885928543863,-8.616726753843032,-6.182617353679744,-3.2289718348133185,-1.374202666362084,-1.7985493405205837,-9.56573827679625,-19.9335866164345,-16.987141122516093,-5.483037142185996,-4.674738371738762,-8.812655996213511,-4.181223918455997,-0.35053018386860835,-2.9752901163719923,-1.0602522162276333,2.3253345400149605,-2.273318395998471,-7.5233178814086905,-12.921195365637494,-27.784701350887133,-37.233038670427305,-22.43733614576505,2.8682265051415143,21.44099261901768,33.413061166830886,30.1230363354621,3.8910724580579146,-21.528521968353054,-26.384389092089343,-33.35820209649957,-54.67606985688151,-67.85293291194479,-82.0752439030095,-109.76775520463255,-119.26264065413218,-125.9726548287911,-142.33675717300122,-92.62739987818401,8.82741207807311,165.58062938555005,553.8223747793636,902.9393222152171,563.4940226085915,-176.70118331291576,-387.0376232577893,-153.43799648781467,-127.73514480271636,-205.6162083102068,-119.98110917456404,-66.92092910490675,-100.50028563211572,-79.18607693881609,-53.10538817277668,-61.547251670191685,-41.38322249848246,-19.213378369434068,-27.26246320238574,-30.994144611560568,-27.71703544768713,-30.128960637530504,-27.416934775761398,-18.140902253515012,-8.444136599489713,0.21831050728090418,12.694884280729624,41.48983848538579,81.33164416773647,109.32544313089628,123.84794604258644,136.70016592160295,139.23990747352798,121.44913297904094,95.87413044321198,68.2653898377574,23.931236055665053,-33.16377395990699,-75.14304480325428,-93.98649150841871,-102.75920085324137,-102.10711892350434,-87.66837409388246,-69.70854851770223,-57.386785706671745,-47.62515238860803,-39.08301944139535,-33.97823010518322,-29.436987057153388,-23.442985202680756,-18.81100518406905,-15.279534444447545,-9.877584625305921,-3.4079402573350563,0.4263517007266344,-0.5964670222300015,-3.522576970260655,-3.044275937836641,-0.3777974719662005,-1.1881277041876075,-5.049789841001324,-6.103597626869632,-3.315245226932298,-3.3436539420563793,-7.759261620792071,-7.0335448334446955,-0.13195719420519936,1.171615038826694,-3.260659600749486,-4.967953605423105,-5.108218742689333,-3.8084418208480066,0.8025654859987092,2.946028256314076,3.145919663799422,3.6419954137310437,-3.803734690500166,-14.218800452514564,-15.113508950400984,-13.600836748623356,-11.512264074481742,-3.2888498865062967,-4.783790612859953,-16.07683341583152,-11.75205170104131,-0.8366169995557193,-3.12724168403221,-3.4586332536245266,-3.5418711385529136,-24.38960715214997,-44.9873534658622,-38.87131098458501,-21.078441857362606,-2.601732473841892,21.71854761278021,39.898232478870995,39.52811951763654,22.26571725805588,-7.088496013033744,-30.903828400219304,-39.8655237303903,-53.29428916365028,-71.99764072007585,-85.14864943720883,-104.6432302225972,-117.4299035000897,-118.16211069542211,-135.3013672201788,-118.93699215304899,-35.224764559937796,82.85087827193775,384.4444423023908,827.636462279902,768.4837639468641,52.35602944355783,-411.9434415135064,-238.6889303266555,-91.53714335467497,-186.82759327731293,-159.7233172952682,-68.7286022677209,-91.476400018303,-84.96889001823378,-32.14219346174552,-44.31898610861927,-56.0228312550405,-26.011885110275436,-23.862451426410555,-39.2421077373062,-33.53030837483546,-27.908133431878774,-27.418703454162948,-20.62672855252577,-17.276830567469382,-12.70909721067039,6.489414739130531,31.76352455930715,60.53042544384576,98.25901716145054,127.46739697592251,138.22157234300118,145.25278589012257,143.97064762641847,125.31579550895593,102.08753409382822,60.81883155933765,-14.786209224461837,-78.39225542107405,-96.52422919412766,-102.36977019329048,-108.47722862573984,-101.07809512504747,-97.1563703995313,-95.86477317225089,-71.04150292369343,-41.55980149248877,-34.123588094062235,-28.879479002386525,-15.580766908743016,-13.032627223803367,-17.875978644778343,-11.893073120727827,0.2946332688692763,3.3314908271921126,-3.2143993882762736,-7.887686388515007,-3.9529283002033324,3.3326877667108405,4.0223795777060225,-2.593560384297131,-6.509657216720619,-4.498250157305069,-3.3762106731564963,-3.361117180559937,-3.5236923198676813,-9.660469888241316,-15.99506923468631,-12.164754024462294,-6.571610199627621,-8.402015032746856,-12.410595665930188,-14.452395792608808,-12.16031287626393,-3.2916608256755797,4.488860055467468,2.966108391583221,-2.4800694881322176,1.2892934491909553,12.815349499034342,7.821626410929065,-17.717771336216956,-31.183572343664423,-28.572055774656953,-35.19711346430944,-35.367145258827925,-8.366370053195167,17.543412282240556,26.528010494136417,32.79153635211684,22.840451089618284,-11.427462080031344,-29.482885592247325,-21.182517957499808,-31.639039862446293,-57.5875148807003,-65.77529683062176,-83.47825297268142,-113.84019091150284,-121.06113635560254,-131.73197824157265,-116.8802223160308,-6.585983605402518,134.3642706379177,353.3949726140216,693.8533194305974,653.0088100171967,-0.9692878983949953,-424.0659114632912,-181.19352452798984,-6.72534620654109,-158.01432944875143,-150.73814962127278,-41.91012901498255,-90.24367981975715,-100.89871312489801,-27.442996862551446,-33.110391577580835,-44.69905025175753,-14.240213981705116,-32.260630794266326,-55.74879520167691,-34.310004141399816,-27.569467175105416,-36.11460071066797,-27.46497895788935,-21.91586425572548,-16.48253515831351,8.740061405615144,38.002194416461826,64.50830546379403,97.6940093986592,126.05576416259618,140.79691786923064,152.3628574827494,160.0667415655048,150.30387644378618,117.34012378103091,62.72165522685139,-2.9820662773182134,-57.75741375323764,-90.99434874722596,-110.16109466537854,-115.19131885589212,-103.73355686805358,-93.03736300497596,-91.43130500473933,-79.35815785446098,-53.24567152771199,-35.5815490778512,-31.19522137563058,-28.74124216171006,-25.42886371378618,-16.740420915944178,-1.5225546186172423,5.555972749895162,1.709392720473918,0.622852507913283,2.016341746705301,2.764778124115887,10.090168378993729,15.124948266598258,5.814276503467456,-2.086500157303801,1.7428452136970183,2.1596474002310924,-4.120506852469747,-8.432672574103208,-13.077407863006261,-16.452265491642706,-14.450542571529947,-14.594948288939246,-16.31520630883381,-11.850593740535471,-7.078922506489482,-6.354527879814995,-6.1378643980503185,-8.234080322186843,-9.65884972742771,-6.573309774632381,-7.783056348288397,-15.77238357463131,-24.34218691466522,-30.445049856501903,-22.490356978208112,1.927898518845133,20.96922863813086,32.64311174956663,47.33937828046808,36.06228550270909,-11.864460141694753,-38.034961063532435,-24.77877813491201,-32.07380333943737,-63.1029719205642,-77.77698067074583,-101.90677006882628,-133.75983740197114,-130.18559121152964,-133.25756423285506,-133.33857883312209,-45.8914370082077,79.32148861420464,289.71602091854083,678.041551441436,762.2574554770582,162.37335956404604,-378.231353559451,-247.821510550659,-42.29862064039705,-154.22367342343688,-177.55914962363835,-70.97148665891487,-92.44252609783436,-110.75863285586891,-42.67029419290535,-35.88186500207244,-54.443221185662395,-22.077524888716383,-10.029973014334686,-24.65525152693816,-20.255460064401056,-19.919250214297445,-29.700128518930683,-23.357661886304875,-9.915959759736815,-5.452104987004188,-0.08059577543481744,19.736800301801466,51.96704281326427,84.820454918555,112.6545917206639,134.4154189904807,144.47030947347312,140.39030559699628,125.47930723315027,98.03441257266778,54.048194548972575,-0.12707084916605904,-49.905109237570436,-86.73078570826777,-110.25255517762758,-118.55391641605124,-110.20737214508469,-92.31347826425707,-74.38792091887827,-59.836211511453335,-46.87634711193975,-32.5570011736578,-17.96378796526133,-7.414458762274087,-0.7921325681218647,4.019263583298628,6.204439095596046,8.122414100012977,13.009081509654145,17.459508506750826,18.097684076900997,11.468590674485796,-7.076139593977359,-23.819607622584336,-19.19996006886318,-6.422893437461369,-4.958030045027524,-5.2733119669310575,-4.984346298496824,-13.55177855269222,-16.67375686661107,-6.801239514101681,-0.28322844909680356,3.306021068743302,5.585072348483628,-5.911618724676469,-15.957165506332505,-8.921639402655885,-6.8870370594449675,-13.967936426950764,-12.8820966574682,-14.816732870574661,-22.624539719052155,-15.798750424750668,-4.479734724034678,-6.949597722639556,-10.195800143953708,-9.443935976412448,-18.174492256404463,-32.97777461590308,-38.01979147695174,-24.530769106865726,1.2983819912173864,19.215996195694068,23.113070289557033,26.300299217555143,21.093971623236406,-6.54247420577553,-29.074407344469996,-28.999621384847423,-40.23652211438939,-65.73176070729193,-77.37996830045337,-92.83677832965549,-114.08039735330615,-120.48919762187654,-139.3446564342663,-136.70046778240504,-55.326129274602835,57.21108439623279,306.1939405308098,758.4339473319839,849.9480681338512,208.86129673449227,-382.5299093436039,-299.3777112170796,-95.9627322063484,-170.0575217681333,-183.19804279993195,-82.08660010003715,-84.41205929762377,-97.11480285756863,-45.11231215184833,-32.192745632069105,-37.87217136804594,-15.666393424560196,-15.150465976497026,-29.854779906583232,-23.961187929978045,-19.281331035553873,-24.6645504877364,-23.279072754208315,-17.926082352621922,-10.763864740731227,7.011360011823644,33.51795600612152,63.17114525921812,96.1192741812371,121.60435819835587,125.99578499112431,122.86951314731365,129.6603658964368,130.96469637046812,107.76806179372582,61.87083543341631,-1.4665265474546327,-65.61780375722128,-103.76880246049114,-114.84722667915703,-114.99839603688848,-108.68117745338687,-98.65305936184862,-87.02950849042244,-68.42130108354863,-45.672174073895725,-26.97462816915838,-15.154851902127234,-14.77697490926569,-19.639368585800035,-11.56585730638114,4.308243153052288,8.39286619200124,4.846714032838161,4.281561381654811,1.9756757062793469,-1.8333256025129536,0.6206940502055289,6.684293677561326,7.1833910143926225,-1.0333935296262808,-11.90852448239087,-15.623812469804033,-10.072108473006821,-3.5322519575859523,-3.7908950779855726,-8.096408120055088,-8.631450319139795,-6.982916322687432,-8.165819226506017,-6.974289151192899,-1.6041131936348343,1.4061027654992735,4.403710795832513,7.069916015289412,-0.3229644048799969,-8.985078361297102,-6.081652989953362,-4.519700380141323,-10.147816029193383,-13.449577294984138,-25.29197144323215,-46.909429884070036,-45.76801273488215,-16.946975520181972,6.997663018367984,16.212544745997956,21.908225892928765,20.87827428314947,3.7072330987631172,-19.574321223681487,-27.876479473779526,-30.980718742721326,-49.27054336280757,-63.974570523187765,-72.42283095527445,-93.57160875467642,-100.68867982439393,-104.406619467068,-129.10912735713916,-85.00839490768263,36.79905839589961,188.22704966441347,512.0594865039183,807.7896247527494,466.1734140087644,-246.13480265099173,-399.1436209133158,-119.72431534173087,-111.15905957580227,-211.10583224175843,-110.8995914504085,-64.186326087844,-117.0614274512292,-73.45807018902697,-22.724906227256156,-41.638117039206826,-32.30182080583711,-12.982007585175767,-30.274780012632974,-36.640619109316724,-29.212677096954714,-31.868780315441313,-28.070464138318,-19.288110270007884,-16.421011043239055,-7.259047278961408,12.39461983319677,39.953276888710185,77.51428268476646,113.77271761104043,136.6625496696489,151.1252685630251,157.9871737690567,149.1598467010984,126.19099231122013,89.32014881062622,31.203328517125996,-34.080003712985224,-78.22567375734613,-100.40486895266758,-113.62031327299863,-112.10171541286164,-96.42905207465472,-86.73885421197323,-82.92905732716352,-65.62115936993199,-40.59673217964506,-28.40105966847642,-25.572091467529454,-18.502544498853396,-9.498014190467778,-5.426633927676278,-4.434983245100877,-0.4106507081711186,7.814782668766288,10.457490572658067,1.3694988220683157,-5.908325154581185,-0.6784189893218002,5.034592532397186,2.0223152084871785,-0.8632054231983783,1.8386965556580233,4.9692343105362795,4.043510018972922,-0.5774947105144381,-0.6748101802380404,7.558984809822874,6.118389268671445,-12.48528395893211,-19.054267892213357,-1.8314354437616593,10.363117555547506,6.710289966166174,-1.029453625820235,-16.731743186317743,-39.20178881738091,-50.31264374225139,-41.65342355979292,-16.112995271182182,9.936563214731006,14.214753966434905,10.113691623802229,20.794362239888095,19.60073028280773,-12.34008845909365,-35.75238896263898,-42.64064721873412,-66.30098082933529,-83.66391184169126,-77.73095579030844,-93.45963048845303,-115.20211029981172,-113.13833827612171,-122.80999805082367,-89.40911501093328,32.06131906153759,167.29155528262564,411.36040702747005,705.7084030446931,489.02350801572294,-192.29660178453116,-411.47633779841794,-91.11350202039165,-24.043880896614226,-183.37679538352256,-116.95592689092598,-30.91142230702029,-93.27912281835552,-83.78765718927451,-26.559012732143636,-40.699565313068796,-39.583368568810016,-16.44566483905339,-29.294429204600895,-33.887154054685574,-21.92410449899898,-27.47103196174161,-32.00846743488082,-25.52245926967981,-19.49062899679177,-7.535075876478279,14.583962516360966,46.42995332411664,83.72432820892817,113.11761886946944,135.04346972006834,153.6735028733808,159.82840080683823,154.7934803937917,140.68816925982,101.88374820614538,38.975730191891174,-26.316820377084852,-82.07175701883052,-118.75207836912573,-127.26297234864242,-119.1764311387699,-108.92344925584541,-94.31919713050661,-75.53611223067159,-58.95098105158557,-41.28899321607442,-21.781271444359547,-15.608136704856932,-24.988711381479934,-24.79794086208695,-7.659709980542253,3.3407570419054764,3.5133896197941183,3.2282251130614164,-5.310775497230225,-17.923685149443155,-13.890384197445481,-2.794316379776326,-3.1583879892765125,-5.525392097272054,-4.099949418010134,-5.615403856731636,-6.151528677823546,-3.5760985421112395,-1.7089731107539432,1.0525663315015006,0.8814399077519237,-5.532263617623801,-8.10747678412077,-2.909557604813177,3.2728602625441905,7.454332123713245,5.276388564391368,-3.745259153058271,-7.866089045884049,-6.448894924186618,-11.006180945934208,-17.090254592725586,-19.259747450382374,-30.311846074804972,-46.00348859837611,-39.12616642522845,-10.012665909392085,14.919352363975435,28.6005580577541,36.51384125092966,31.720566466902543,11.002795136354848,-9.497026864272536,-19.134917513281188,-34.73676451294199,-62.74854251246278,-81.19841046127655,-94.28984667941783,-112.45945645762673,-116.67611022713572,-128.07562496406456,-142.43419905458114,-79.7596252980328,27.61304075370873,188.24074811619096,577.9703561420118,880.4801356777447,468.6066410814266,-259.3535229626251,-383.21226950807227,-119.0299731032446,-127.2292426102231,-217.2269926157021,-124.4117387355146,-79.36960450494738,-112.89308025507884,-71.9084362226753,-32.24482281619726,-44.29525403595683,-32.60072246852433,-11.856410293993843,-17.92358130207581,-22.266857435865923,-16.58488641530437,-16.541817239642032,-18.50403791553277,-11.747577242486944,-3.2099790326993185,-2.8545349746289377,8.427877920951241,42.96280766716376,77.0405668644963,104.79953051254981,131.7446791399,133.9901945951666,114.92176304772147,108.36765437596061,99.51050844756469,59.790928531270836,8.222419957533349,-35.92618177310238,-74.59421474340347,-100.68707935214395,-111.06166885619074,-111.9662967774899,-100.67250574566681,-80.45036973073559,-64.9563990030692,-54.44101082454489,-41.434150065436675,-26.903614879068684,-13.963129945369293,-5.195878540723605,-2.5903961408593794,-1.7472405331908476,0.5822705207669152,1.1087744259819416,1.2228600715924784,4.145587887244435,3.8300874857332907,-1.6555763888811175,-2.5780744726449765,1.862862690931781,2.9069156465407247,2.022462503719714,1.8988836986226083,-2.523603382270368,-6.142578395155198,-1.3762239889241812,3.6980943039364575,6.360756438916264,11.199018716525302,6.289251034541738,-9.263661643965682,-10.318533475419269,0.4411315882072735,-5.059099568523779,-18.432298219079506,-16.420502970927117,-11.05694005247622,-16.18251482699543,-20.012926749511134,-20.39602337290372,-28.439968609138695,-35.6869730933458,-25.66126729124764,-3.143152830793232,18.362362647219516,35.44225895351028,44.71166523086615,34.67759102938684,5.143330830343844,-17.76740732265772,-20.974041357803415,-31.6430211697903,-55.35815279349662,-68.85103059387288,-89.98910633069335,-126.578969782759,-143.44151071037,-148.01323937874386,-132.84036158087233,-60.180908020342855,43.75465187109796,279.3177152492915,722.1931860238665,855.0797338518306,254.3232028990634,-378.4915089562935,-339.75970724319245,-109.24037467311052,-164.43009731926526,-197.86875218222025,-94.66555671614387,-83.98728160719622,-103.6263843933827,-51.664772841140305,-31.538409141376192,-41.7190858641529,-21.36201718900747,-14.105146272118816,-24.524007809761706,-19.62049920599169,-21.83870619992728,-31.429493216644794,-23.78820346538737,-14.890656596037466,-12.85761908740231,1.7756130723021357,29.05464852370427,59.46855322473501,90.49312616576451,114.71320997279886,131.27866061912985,146.00376362203878,153.00922160936852,142.54489834085587,107.07173077739671,43.6557215670767,-24.957957193345685,-68.34102918919558,-91.5435248159464,-112.02223500013494,-122.07053088258905,-114.43494496868385,-100.16482046574419,-84.62343738269523,-65.50619219783513,-46.49834836043156,-31.335076096121057,-20.83494773171316,-14.72155937183853,-7.16814099906567,3.6320995230546487,7.636489288256698,1.9656603648660962,-1.646954670161815,1.4186479025972112,3.0705910929573115,0.9679920799908146,0.4298510140136038,-0.3411562259162544,-5.342106252395597,-7.728933934815855,-3.589411126103167,-0.35365465548641595,2.3493835667223024,7.114149751781266,3.712241058573568,-5.063343343227654,-2.1730369712683686,5.795325871984437,3.262299833241599,-5.138237897175026,-14.544537360871182,-21.198956672299175,-12.626010000908785,4.259314217114027,9.051465743347004,2.198846278762179,-10.113842781033132,-25.357274868147464,-30.903334770933512,-29.21926114833208,-36.47835029826616,-39.02570922074188,-20.411085312796388,-0.5281238081769057,9.03343517835106,22.416681609134955,34.00692872679877,22.812584836923932,-4.013697385876172,-17.89042743150661,-20.25170316666305,-37.70942401125936,-56.91453714556221,-61.26245534419303,-84.69226389897133,-113.84298728748874,-111.10556553335762,-120.43116525162333,-115.85154943980311,-26.632818356586476,82.18333632702092,291.4482917296527,681.1932333399245,716.9244576220975,83.4399712581551,-403.67001282502605,-226.10264912349868,-45.94694859876078,-175.78195816583167,-180.0750985040645,-63.1645083310509,-81.29486426715027,-96.88638479594195,-36.853673981860595,-30.49684069881225,-44.46367393765151,-25.057267532343637,-21.577865447808755,-25.268194497003314,-20.356364333088212,-31.531843171205768,-38.75503663355132,-25.25328264774938,-15.041225206460876,-9.684875608769563,5.607722092373162,34.1661326615523,73.26284738040627,105.32662045966285,119.40031938520767,133.38416170564003,154.84417723866778,163.15795851973937,142.81276946404975,98.47839013259204,45.86718870922378,-4.2184148147171685,-52.60806982311551,-93.47701181088121,-114.57555105655658,-118.74570262699405,-112.88720357126996,-96.41852841092583,-75.35232633169062,-55.78316618404992,-38.365488154663005,-31.531585502365232,-34.519288355311694,-28.87976328197766,-13.38632095442145,-2.5764249136594373,2.1664077407196594,0.09160235288056384,-10.14140772701412,-12.407443061536636,-2.4389238494791954,1.00887392981517,-0.4872287862294584,5.561007374572004,7.050648772612114,-0.4217028685618107,-0.6849756016930257,3.233929872672075,1.7267719884916861,1.755250368612863,-1.9523746351515108,-17.05988275633997,-24.79650754036439,-17.427633119030265,-11.178765965891719,-7.216681984544309,-3.481507158747796,-8.711111362681333,-13.25696522566112,-6.846987879214195,-2.5067389332978642,-5.6717115851676425,-15.478996033173221,-34.262594948151175,-39.058900577920625,-15.137829450632513,7.867487157433475,17.421866388443476,28.989119001813677,28.123636592061697,1.174937089451955,-21.877639133992222,-21.475596774524398,-23.66998020463281,-43.414688428769466,-57.56432896257983,-67.38286161891347,-90.49405207984344,-101.96703802334856,-106.7756340800813,-125.13105562222613,-88.48835099805214,8.455949663808184,146.58712535477966,475.56732433962475,785.6798874223686,466.60809733691895,-229.94502918643306,-381.22271777201695,-95.99899645226037,-80.97198003012053,-190.20523064086484,-97.2279885697882,-41.376054770894626,-94.87733003151023,-72.78022979867177,-34.60128720036802,-47.4108379074363,-35.23087423188883,-14.857027297991255,-23.00027435375956,-31.69135503095118,-40.53351271615521,-46.25111329777144,-35.57513723645309,-27.98356290804939,-23.22130563514127,-3.4369234367557304,22.838010864821477,51.96246318064789,87.48454224310377,118.11384977708082,138.95072955726835,149.73160213082696,146.87625166860636,135.62745901291456,109.49365519291955,54.68783988045841,-7.9247828560492195,-52.272064462811365,-85.949412915517,-110.97230397632876,-116.20360491989192,-111.00368044281637,-102.69159954943022,-84.7798808227372,-66.3468695463853,-54.21533844836286,-37.964454090018585,-22.018088173122425,-15.365259130444073,-8.99143527222288,-3.168386475841764,-5.240477878693415,-5.532914958387064,-0.4025122884581869,1.8200028869806744,3.9303735000376783,7.0810598840135555,5.492359846621792,3.2968761968617866,1.7047884490053047,-2.6535658986658053,-0.9220688345231611,6.382317952527554,3.5695316845842626,-5.518799816346176,-7.891445657276481,-8.877481159364093,-10.542525235609997,-5.9922332408405445,-2.9288257393531936,-8.42319852515237,-11.625434412943811,-8.006661679121779,-5.62089741871139,-3.56717947508157,1.816383216084322,2.0861128067700108,-6.235336257787486,-10.93651963010463,-5.971099807241158,0.548042671686467,3.2009554097596506,1.6325073389923617,-3.2555228478731966,-4.829707587218264,-0.2719013911104007,2.8275357510161925,-2.14995255503327,-18.38328267551997,-37.28970657818417,-32.81655783059017,-2.355572111020358,22.249270534592707,32.55816966284214,38.93440966955026,23.04647972538564,-14.870549482985343,-30.190844726377687,-21.952944808519643,-31.784030574408447,-55.59645269879289,-83.42647946879211,-127.40511494321026,-149.6726794736256,-140.13926563023222,-152.0838158683205,-136.08819226707476,-47.70149207658902,56.31393681414127,325.9988058834573,794.3209549696746,828.2549240752319,141.49504990730114,-405.49602955769944,-284.8589069143187,-100.5897761912464,-179.61859830262563,-181.96079251944252,-88.9354229425999,-91.56823107451632,-94.00274814600076,-47.00631137933274,-38.69421130318964,-36.363692827683465,-10.602506518819368,-10.391259209522376,-20.81519805788291,-16.614200242389174,-22.664722276576338,-32.12619526560086,-24.655158165611518,-17.170033296525155,-14.608610474856075,1.7643603440955715,30.46573245338213,58.27110931619964,83.58030464748063,105.64408642006013,121.3971576373783,129.97923388324645,127.70125466988719,113.289175766522,88.07568628394216,47.65701812667396,-3.267868559794572,-47.10839329986692,-77.71001375649739,-96.97099009143672,-101.97536710270128,-97.1703923161929,-88.3851565330337,-72.81429749204227,-55.52679721767557,-43.31349489251022,-30.048688067162495,-16.809400493633696,-11.335905032888796,-5.438540520158263,5.970180109949318,10.254707837069592,5.183081627139865,1.7322454995572443,1.8827216343434863,4.29582534163381,7.988619162934253,3.749664469503152,-8.941609699531604,-15.133482816015674,-11.032887953499039,-6.104059274536123,-3.590198698887935,-3.549060979868182,-6.042102483801184,-6.627747493262397,-3.951097058648376,-0.21016929884606128,3.089830293562832,0.06161008438297344,-9.578931279034068,-13.57960134613188,-9.434904055921479,-6.1169386261511765,-1.6845733090631807,5.034571102986062,0.6476777216417666,-14.409539863793388,-18.7172430629186,-7.896761756266795,0.23961907436475727,0.45905201422902486,1.4132703333421741,-0.31253084986780166,-15.287532903824275,-37.32242834632102,-45.07500958952802,-28.719711066468776,-3.73283019363876,12.302300632647095,22.32031734112208,30.2422347072307,23.682556792159886,1.8758645142992112,-14.28703755325873,-26.419149110665572,-55.00451652794885,-78.42735536411621,-74.74731673569188,-84.88133609996142,-115.84704838116892,-126.18024273306564,-139.58604464799478,-144.62772703995284,-71.24329518384495,33.75542995495792,227.88610988519667,657.205861290173,880.5429186917636,359.23324248560857,-318.5843867336651,-341.5415484099623,-94.7868657706483,-135.20232381867066,-193.3033814566515,-99.85173912566293,-86.62481971001733,-113.00602416092238,-55.392216532811105,-22.803999417502524,-36.29356900789755,-17.380192626350052,-1.9184933554700638,-19.76483951693011,-29.825492137355074,-25.679437488763963,-28.480871690896656,-40.096590263902456,-46.00422370434983,-32.17351528952173,-5.727363307078351,20.673245457238213,47.70622695610795,73.78227035013037,99.34424004824841,126.8802011255288,141.90299340123312,141.40863980045827,141.23130230414682,123.52650067245568,65.04092089937774,-0.9886864350470652,-42.29833173357195,-72.09780478805541,-93.93397384804317,-102.37635959657658,-110.59151823412128,-111.61126868289145,-93.1000579923565,-77.7389367945813,-69.56272175470204,-46.63869518257993,-25.43088469660698,-23.361509621901828,-17.490028278603848,-5.01351008093723,-2.7200581957407337,-0.6209802263998547,4.959216081946263,3.8818765144797283,5.500091731686812,8.993373799229246,0.6965350221214415,-3.6385905363285076,5.125104994531737,4.452441922589873,-3.582087185647463,-1.7380453659549993,-3.5952480099367,-12.686556776702016,-9.33220482352191,-2.877281897603636,-9.218086829035007,-12.663410225692449,-8.514186937045105,-9.770774949734637,-7.151925848951672,5.438694985998643,8.71306029718094,-0.1458985930847625,-3.6205568233378855,-0.17528090878820102,1.1385089168590454,-2.5693892624989303,-13.666681278794936,-28.45937843242671,-31.776322983680558,-18.609783389960697,-3.589813781417565,4.266565028716393,10.813583409525737,13.812638317284438,-0.5516340366594186,-27.2332011536026,-36.21982965585869,-26.301541437208552,-36.570423077191904,-62.59097881579769,-69.43227004050085,-80.2734922777938,-100.71873202640423,-96.0030806717171,-99.89962806774828,-100.2668840867822,-16.55730311823728,117.47856827945958,343.4166985870333,681.2195329999801,637.6770848389472,-11.492653291948201,-438.33595988136454,-202.81500829672785,-25.541521998838185,-175.3685183571419,-168.2330679370326,-47.66977167763053,-86.97561145074577,-102.03454735706147,-28.972388415307925,-32.26980696668215,-48.18142831079236,-11.63798022310741,-14.705562149479135,-40.482795432851304,-30.09158185814995,-22.26075145971206,-27.831213684971672,-20.29654469502097,-13.16256052414765,-11.766549421211565,5.098380673536511,36.8216008172723,68.21563747450564,98.37355098402472,127.27700314236822,144.62566006046853,150.8016993058395,154.80036188611695,145.33940560255976,106.08006140161527,48.14756410583398,-7.567835898814097,-54.09385601226585,-90.62987025994451,-115.93347313129695,-126.7949460046182,-120.08337296043467,-102.64760650260409,-83.97862572091012,-64.27186537884977,-45.09182935985184,-30.997393598314453,-18.54756234246413,-7.027524130324785,-4.528069288086833,-9.884611346283911,-12.179613676963967,-8.19717591510527,-2.5550304082685997,0.9725764189054473,1.581331203480893,1.0027502675225968,-0.04087027753057271,-1.3773050571939258,0.36402364517421937,4.2144800489600165,3.8790014371955763,2.8123972975112164,7.155448982573752,8.177353617374777,2.3333211468825397,3.478878138269989,8.333439766791043,-2.099655333807334,-17.05510271597958,-15.205485266362619,-9.06696223271393,-10.262324054200288,-5.5432786728030266,-1.0708446085909138,-12.958372329446519,-22.604161173915593,-14.247040915515022,-9.613062078744118,-21.976389685500898,-35.62431464838143,-38.74762342428566,-31.35707968806518,-13.326859780200959,11.448066247858725,30.292912825901762,29.142274710458192,5.594346459185893,-20.706863849199596,-28.636286184852295,-33.759455826480405,-54.55199832389745,-66.22697949394257,-70.41865102763616,-100.85578020425115,-124.89926611623648,-124.79150530828485,-137.0384209055027,-103.8461514004041,-0.7721643670777212,123.26078174835811,423.8457749603007,817.4730519117687,655.7942356277919,-65.69056991683932,-405.0652738466512,-179.98190268260453,-95.2782469203456,-202.52462861755026,-140.82801360460888,-60.38034005256421,-93.95715699010088,-75.33026877053145,-25.397718156934246,-30.529989410693332,-28.307850008469792,-21.0991520958923,-38.52011799759081,-36.3926098111317,-25.349047930826224,-36.00618235656648,-37.01671035890119,-23.414450568517346,-17.64240808392229,-6.147803492822541,17.710445342204054,38.472703208203946,61.77308623200455,95.53884716936577,123.34850534592277,135.2925805376107,138.9619198144012,134.30867136756862,117.18937074188798,88.25121811045653,42.300435125282874,-14.873871859441698,-60.65847033934945,-93.3242404871483,-119.5083401951077,-121.1286096020375,-98.00743478656406,-78.89723152905052,-66.98271618801645,-55.02086792815331,-52.632706719887054,-49.14733701677392,-30.13504947926949,-15.302833370242503,-13.072994424205522,-7.199295316602353,-2.0612064970113693,-4.37858425134641,-0.640842325157962,6.962602439305101,4.599723987118786,-0.1959800050679945,2.853967785514291,7.49809031717061,7.668121369317452,4.400525835227324,-0.07095169659779188,-2.9175630234267285,-3.5029281247563446,-4.272341788760901,-5.579064621120295,-5.990835457161662,-6.960648230456853,-10.179045164749553,-12.947768954314324,-12.647661789995478,-10.377562625969292,-6.6088989967866425,-1.3729854653694478,3.617860700019344,8.518912591517914,12.29759921195869,9.51306871326937,1.414111968863935,-3.5251066939777864,-9.550641194347197,-30.02416163790261,-55.11782381120288,-55.59802435634987,-27.667324547568256,2.354695183646376,20.025583339015835,29.57956133139092,24.502001065011427,-2.2393740113097245,-26.636564258649337,-29.289981368866062,-36.28666092999407,-58.204865306490525,-68.19784775775418,-79.18689571705897,-107.30921336423002,-121.86656910160198,-131.1099592350987,-134.98179076954696,-79.87277039585194,15.66093191634252,219.20304073145348,651.2739086487694,880.4064459553625,377.6071815109682,-303.39182404896513,-349.91729291271804,-106.73814317328953,-137.527248685144,-196.86652603831718,-100.09812147601264,-69.51953328539338,-88.65408292964818,-49.68160431990472,-41.24907345894762,-56.74719598964286,-26.69590778754817,-6.617393562781016,-16.249291185986273,-18.97323310596051,-30.541240868439168,-44.63199365023354,-33.94326514519753,-20.507211264363953,-14.555706456111322,1.446545362704656,21.813022213894072,44.29349274599946,78.40227955744469,110.34487364402234,124.33211392231654,125.20485029090364,119.81020611014179,109.92643621170414,91.72324718460438,56.86734738949646,8.898380516947197,-37.587147113619906,-73.56857514553106,-95.05080371933136,-100.19205968673995,-94.35719475853044,-84.23732478185741,-69.60937437579267,-51.79066810550492,-41.38758047596251,-41.93736205435407,-38.89526556410047,-25.20332658690991,-14.05893959921464,-10.040808661145114,-4.252473637039024,0.6155890993719311,-0.5986821456359444,0.06290053053729139,4.532901062022098,4.83188817094425,2.473216797740168,3.136299151239939,4.7305755141559604,5.554757188491861,5.42287096376959,0.096233227274098,-8.588250903139201,-10.06216851651819,-3.8203340500429377,-1.6204522557963088,-6.141379383795599,-9.570776520207257,-10.854748091324758,-12.837743518718163,-12.362047553168885,-9.18318299528535,-8.684261346149455,-9.092521316656336,-4.508287547183972,1.7698789938764232,2.7654999772882967,-1.1340314915135536,-5.088749247878241,-7.171109054816803,-12.193495108157737,-23.53265898217954,-28.152934289214578,-12.24173315142165,10.653547979808806,23.183786939334176,34.208600429851614,42.42943308963711,20.22150001402931,-22.483540546781434,-39.29329752799145,-36.88129771068224,-50.32743529918312,-63.793655402830865,-74.94157564507655,-110.92738788389889,-140.10700970674608,-147.06576042765235,-156.4299641128065,-112.04455060757438,-7.131514613478188,124.69871874347093,442.02976936901007,814.5749503328968,612.7853316309048,-91.51155620516602,-382.97855094790657,-151.57037427063202,-80.40512342789724,-187.32171109856003,-134.1334764749779,-72.7864883764914,-111.94602554191773,-90.5825310873575,-47.302101493592914,-60.9919381557255,-48.28854641601434,-17.634012644759757,-25.405448067969118,-26.160786885309378,-13.613070309571075,-24.52120855963198,-32.179069451608925,-20.322974477449094,-11.280107413645329,0.09283053752317372,19.419170369524725,35.497910935980585,58.22128162723116,92.65524093411219,118.84015896385715,131.27111817464453,136.97174487769755,131.64394464945633,113.37623922289885,82.97356741898662,36.878588257597556,-17.084320695438915,-64.01781703981194,-95.54736593286248,-106.23528925893889,-102.05683977218266,-97.39367458607913,-89.59527528072474,-70.84852985344565,-52.19213021461656,-43.099507255431426,-35.184279725066226,-21.922696368911446,-9.494747060186263,-3.2927679104763534,0.21835380829374884,2.6235789618202254,0.6084734927716333,-0.18512003917186348,7.210846011652558,13.761442833561919,9.89039385784768,0.7678033650440312,-3.4706741769232465,2.318472942069386,9.351887793460353,5.366804905345439,-0.5220046029519008,0.023975339353533798,-5.761281018402464,-13.733945920887898,-7.677567371694225,0.18123020199200468,0.4442136823247633,3.591748463006107,1.6116943387843925,-9.656394225562575,-10.182957120590835,-5.102351522778722,-14.612210022156702,-31.10888271570454,-46.31682599851119,-55.12069880723645,-39.29240182875876,-8.928057093714472,7.702561015016617,19.18171561713656,34.92836496226158,30.576385368338826,0.9826594326014426,-21.45677897581646,-24.1908390849069,-33.96949412454494,-56.33173479488862,-70.49001075605915,-90.69533412042908,-115.77677691897071,-113.5801351750149,-120.24009800486638,-124.61917459398848,-29.18696878062157,115.25733769679951,299.56166021200653,619.9888110027775,678.7619465306408,98.70509844069069,-417.33033949176627,-243.6606505780626,-8.367110280533705,-144.7989872681929,-180.6460688615757,-43.89814961048275,-59.894952711115096,-101.94512952236813,-39.69753399323887,-28.069585487915433,-48.31071971970607,-18.603646044465613,-11.117195374603552,-32.46683767833079,-32.73455051575961,-30.02464794793513,-29.144373522298388,-20.26530102163614,-14.340239383287656,-2.789860883475624,16.604610852810662,32.688682134626234,59.840500185903664,99.86635225726963,131.1948295073575,152.32297044203426,159.27549409196158,141.33617255127098,118.82507392771022,100.68282447295499,59.68905455759042,-2.0486090055865267,-55.942260519984465,-99.20956780970808,-129.02660277299069,-130.0409687331508,-113.57711258254423,-99.04924981464251,-81.85045407569882,-61.93374387820599,-51.903422878986916,-46.474551658161815,-31.739321672374764,-13.738325177534431,-6.773131277132578,-10.148198185013204,-12.926913427562457,-8.482399624592293,1.2130642657521946,8.088223198174196,7.363915164515728,3.6715435195714825,1.023891022869094,-1.9208198054575085,-3.571000094462475,-2.8389714964932793,-3.040818927167628,-3.720900919353536,-4.152840313447868,-6.640703848146934,-6.819910980531112,-1.382028453139803,2.3619724256436267,0.7188989443946134,-3.731149501459482,-9.504345932526984,-9.072358229526237,0.8716695508996342,5.3667468244784775,-3.87936436317905,-17.034028345189654,-30.376717350946688,-41.302119183642866,-35.85189129161142,-13.7027312554223,8.958942951796892,26.034460512686046,34.971880268840806,24.625023645605395,-1.7993867300512676,-18.851901465237873,-19.236279884517735,-26.898487174203414,-42.62257150470758,-51.11746516435018,-76.78700034529922,-114.28821870047308,-118.4723992064841,-125.47040986894181,-140.62100726444336,-71.7150080796655,46.60796967334693,218.4872007061308,580.2929238348916,775.2337590264498,301.1349716239803,-310.8778606508294,-301.3624077693656,-63.962621664925734,-125.89105258798664,-176.93465225438757,-61.81102302928448,-55.36391030682843,-106.71856120024516,-59.93691898828337,-30.421291362555976,-52.33314813446293,-37.5094316668909,-18.397993785596718,-36.68923098474178,-51.29405295472977,-43.39031696564217,-32.512029355628684,-27.15360207353089,-19.14674337347959,-6.371444732016068,2.6163121830489944,15.553462213230477,44.953371412983614,78.82825844684241,105.40042250439039,124.44309409779703,130.53770623234595,126.52053623215346,117.91661515785034,93.21291323770829,49.470980708417144,-0.35431360673908774,-50.31202866546766,-89.52751851518268,-104.12495608355198,-103.36827773477604,-99.02927684021246,-88.18257471444285,-74.90057787970916,-63.17868262661813,-47.416425600678636,-31.71122132340506,-20.590393533013703,-9.664280197432873,-4.766022925517664,-7.530019211707806,-3.95111280228517,3.353889164875447,3.083112762058718,4.309630579825486,10.403616443008655,8.763784072487685,1.1610418265203108,-2.830650140781426,-3.9889637408524656,-3.4896219239241724,-3.274089010866886,-7.82507937841298,-11.54213110521539,-7.222951057939886,-1.093677903417218,-0.34258716842418657,-2.305298834225672,-4.399073124829712,-7.084434159810751,-6.620772085191684,-1.1228378321204548,2.358688926180296,1.0716201551561824,1.3835564695619347,1.7445911474434528,-5.360172194195904,-15.86428889218953,-19.844897998033446,-13.894620278870422,-2.106513823565738,5.332086337806938,7.360229987875909,14.137918781362266,14.691765493133671,-5.1662744831419065,-17.972865163080694,-15.926124201062077,-41.23336591483784,-78.9952888195496,-84.81819839255841,-94.25488658762123,-118.58718396781542,-119.83149402666847,-133.07655248091422,-143.28071612817192,-73.42222253099328,39.1360052233109,272.9857571513761,710.1668732716892,829.2851185819343,224.634347522048,-374.6538108189486,-308.4653578358877,-91.6284921213325,-157.3798923450097,-185.31748815984304,-90.45357137502461,-88.35542951888003,-104.35749535445922,-52.67504944601332,-31.390833191850383,-37.37836509327654,-21.58467552644489,-15.873848462544201,-22.07919768155977,-19.39133813901428,-18.57500996724959,-19.55756338082006,-16.48316247593864,-13.59117754830407,-7.5891936906507516,3.9726756839765613,22.451090133924268,52.62934801164011,85.35666914160927,106.39864480885481,117.3989545422217,124.88914222240196,126.86004079689411,116.78478705953648,88.80726674152405,41.836752259091,-13.911530233423205,-59.06026507852841,-84.02655493535343,-96.3164022378337,-100.53559095053788,-94.4113944071327,-83.64327866940536,-72.92592303551146,-57.911734112128876,-38.59136113229746,-19.008213546606363,-4.892649033063815,-5.43797593215141,-13.170513344694548,-8.586502306652047,5.684153113814196,16.713105167413666,20.220030769966506,8.097513221442224,-11.015217372305418,-11.247519937854921,-2.4109888152439964,-5.167638354840381,-3.984959979514798,-0.8027169742652802,-17.562680523763955,-29.57325929314984,-15.15265635199017,-5.76481983297063,-12.218536290119438,-12.947010124055616,-11.553146224745507,-12.886398576875429,-5.6339093239099185,1.4484878268827366,-2.001309063670206,-3.3726825785618146,-0.009493264909703925,-3.2026665130611356,-8.911685152010836,-8.234732188925898,-9.51098480286463,-23.228536981822053,-38.0172773779092,-32.0151454257808,-5.3608677718018685,21.285146360941653,37.339397450066926,42.12634140479855,26.191120662453876,-6.998639818765582,-23.946352218817005,-19.237133241518766,-35.46150346295441,-68.55692814460365,-74.87789093339818,-81.74648943139634,-112.6061636989168,-121.27205252327192,-121.53665014475234,-124.75361099255706,-59.77550917885298,49.6488236104138,231.71376943862174,614.2861984008562,816.1009887500815,326.79771460904016,-315.50908922712904,-329.61091246842534,-90.68306244079388,-142.37143344776956,-197.62272507665523,-88.18558188442333,-67.26074376883815,-95.95329578662393,-45.836922187188094,-26.339577824716784,-44.02216416415935,-23.230972949320094,-18.291366039425224,-38.738644154978516,-32.60062050671569,-27.748688845592525,-36.54976830412599,-27.8652406078187,-21.844312583295626,-27.689888844577972,-10.242823954243633,22.880217710432284,48.46219520020705,82.19533137393677,119.1993873315563,133.04598445973747,135.84390123473992,142.16961674119574,134.40172861630595,105.40615984430082,63.03842855452383,11.311296018264306,-35.46527037160948,-69.53489597216489,-102.87961638729172,-126.62213988253777,-118.88226414343315,-92.27162264023377,-69.1521103672018,-52.44641484513993,-48.580569686411785,-54.32075423401942,-44.65351442678676,-20.850188066004392,-6.867990440897152,-0.5966423029394079,3.7213220132237836,-2.560732080939271,-8.37050258152826,-2.224423697032684,0.10837421305855344,-5.0027165546399,-3.9623600809596695,-2.40285748889308,-8.25535245522373,-10.915314305393377,-5.523278678622367,-0.8782125463163517,-2.6699675993704055,-8.538513521262551,-11.919759811471836,-8.397027709814711,-1.2805573200488318,1.9272550388543959,-1.3133931932753615,-5.948461889520377,-8.600376717072074,-10.281529614863771,-9.985170821017071,-12.53483643859989,-24.348285488429998,-30.969652205023923,-18.235511176226414,1.270963193184027,18.783777368198805,38.02638358234128,46.372870286400186,28.097989933974162,-7.104280098278021,-31.995520538068675,-37.90024936917546,-46.272562138670935,-63.48174888436197,-82.12194781157436,-109.47594223054355,-122.3672644721626,-113.44780400971416,-124.80754315496036,-96.89753204058457,23.54488941667718,153.65096443127845,382.6677976504226,701.9921816883781,551.9004624405452,-129.49081588334943,-418.4764359766094,-111.45410101170303,-11.086538635183103,-180.13710617432747,-126.17930218034081,-20.897743881975956,-85.3595250004833,-87.12611789972804,-20.320932962954075,-43.72147393851633,-62.016211390634226,-25.348139782622926,-23.377422642191135,-34.655328477655274,-22.791221241518656,-29.646359709675885,-46.32504958542015,-35.88136343399622,-18.53500314752148,-12.50088840127768,3.524207027830766,37.1347771942536,70.9983318370993,99.72855472816052,126.69777541225827,144.4883310944229,149.34370984271047,144.8941496579966,123.91681814994956,78.99768632071266,21.072685952502155,-33.16179632027265,-75.58183275337532,-104.32288274491724,-119.43207045146335,-119.92099582943061,-107.3809050382902,-90.29147339600436,-73.23706506199802,-53.560196826854295,-36.328075444336605,-28.561798904636525,-22.0568379087551,-9.27277679127043,1.043294307566029,4.296536439055632,8.49870105323766,12.600371523931805,6.852017290562195,-3.7266239664874234,-5.672930401869905,-2.7043426392288694,-6.940632234390339,-14.373031053282382,-14.752331067952149,-11.124348761987948,-9.83058252677353,-7.255507095875988,-0.7288366955424301,0.7943536567878695,-7.406391184530609,-11.9584266478028,-5.441481980361782,-1.5053214631620886,-3.6471152115221432,-0.8733881997507904,-0.6619136424601315,-11.137521072642139,-14.438761925417797,-4.584606052320472,-0.3107148137518312,-5.119601397272756,-12.862404678978393,-27.425051527871034,-37.482894792348155,-24.35652202395935,1.3015000992746586,20.836306246682526,33.80456164850081,37.41018493612276,24.367491133414813,4.443100420294276,-3.6970961297188767,-7.008012242940479,-34.9758383720807,-76.51098162301697,-91.15797001984221,-94.80177695992477,-109.19023256351281,-111.83350699172999,-121.5334596216457,-133.057608431748,-78.54330915183016,25.433396147682018,239.2207132335979,655.0166707664201,820.2816916661876,279.51227224114575,-336.239843911821,-304.39072802196057,-77.3223603568509,-149.36599478841114,-201.05333384167673,-98.66886866117235,-87.91786751494843,-111.17697610913875,-55.11822248613692,-30.806114129319667,-43.72627524873438,-22.6513330251532,-10.105584569374823,-22.840480317422344,-20.601106115602214,-10.412918065772086,-13.128587385579921,-25.87824197039635,-36.23553935855565,-27.75549838374069,-2.8435659918910314,21.406508756528215,45.3470998410493,75.41873885719595,103.55588762122069,121.27705008091567,131.00958165243594,134.0458602628791,121.31921615508894,86.97362349770326,39.952623030503574,-9.148849800217896,-54.54802144446174,-87.36962867264208,-103.79497789398962,-108.43844529837165,-101.18543883906366,-84.3998285954977,-69.46669433545439,-58.32784803488531,-45.446987323724784,-32.54629155297961,-20.263151784581503,-9.313396973052384,-5.5705686342642835,-4.103130643685404,2.3426289404157217,6.238928156375076,6.5825026176292525,9.183254424671368,4.723806685580168,-6.141847999868707,-5.120147427568384,2.130104490832501,1.5069092480617279,5.524936774245427,12.626458692349033,-0.47548948792958257,-19.52305131848071,-15.919272830323692,-4.452342026522272,-2.4034033966051975,-0.6902588410878536,-4.268193592116585,-18.74879651523465,-24.734012626286503,-17.654325726294957,-11.215474875726168,-4.704180050256678,-0.5007844788667839,-7.5207099582672505,-14.770418232385811,-12.786007797932324,-13.530152732000353,-23.095182364942083,-31.34949413911517,-26.960594446998435,-6.995576685884249,18.190018395127368,37.19491663183754,47.56375009484013,37.195937853161276,-2.5351104688930057,-36.85395184432305,-37.11182495983506,-39.50008476532939,-63.15318643769277,-75.76373671568912,-88.87071362183423,-117.84017528049479,-126.6061161963099,-130.81471017507903,-136.0509151263513,-75.21632685295032,29.96689246419949,226.35797741583508,649.2416688424328,892.7211380645006,400.8075265415252,-303.7561716951608,-375.1351621470292,-122.79303440766364,-138.72448243276824,-205.1530833034331,-115.53266359480136,-82.1797971758964,-104.3477591243814,-61.56756307716557,-33.19743856235256,-44.30602250213087,-31.293637596497213,-17.63559828323201,-20.544654282617866,-16.97716709285603,-20.675825675306797,-32.31605201188306,-28.190611167439585,-18.052555009863077,-13.866218763612519,0.3964516712435753,28.614454513394286,57.14508653345551,85.8878152685538,117.26617469268426,138.36953317746446,144.25715651270366,141.4527186600346,122.50606841411994,82.05968136928908,35.20145587044117,-9.181981351588025,-51.36908444763344,-83.30878088955288,-102.39722398795668,-111.07677328559055,-104.33082923821286,-87.33846123227306,-71.79396816867639,-55.344469938196006,-40.537439037296615,-37.12453486097077,-34.60146011671759,-20.998432519545215,-6.818689845791027,1.8176419379332032,11.783570269085555,16.28695295440363,2.7605151220567237,-16.549017604084256,-18.801260029643657,-9.296010276685855,-9.508743502742206,-15.683476517282648,-10.610098589512596,-0.47485880645328393,-1.482213564061773,-10.119048844701808,-11.586249140151612,-3.695401928905394,0.7696692219123591,-3.74663079390551,-6.528047120117753,-4.152802255323298,-4.489347545392967,-4.85226445111938,-2.0354063666247217,-4.357461923495167,-9.06639967257827,-4.660195129283591,3.8416077363483323,5.242894115642883,-0.6620620266796138,-10.466222808866013,-22.22237210532188,-30.911310474350252,-26.519878922423565,-5.412055557312183,17.247038907987875,26.026999443140763,24.59790884326822,17.1877843682904,0.1674106380710203,-16.303518279099634,-18.905370096175503,-26.346176767607517,-55.231288066250826,-71.18642331951396,-63.50050689504194,-77.62674272690182,-100.42997380863034,-105.26001310301841,-129.3200839581952,-112.09279957947219,9.972193691030625,139.0322114531087,356.527764052686,717.7226446986504,667.8414916066297,-8.371082056257094,-429.228066055929,-193.49562023633467,-31.63619871286513,-171.90191866204452,-167.14807047157586,-71.89923317097731,-101.30978549365287,-97.62649679573167,-38.36663960915776,-40.288387274314445,-38.141977432075436,-12.01306703347849,-22.427052436555257,-31.127091242940985,-24.802600705083826,-39.07951985318394,-48.054496079019344,-39.7873287496882,-36.410888039996024,-22.302543587786946,9.991615546744493,39.82866472784083,68.65917189938634,102.15367252548026,130.7455236058505,150.84860694799218,160.24125853160015,154.81293870538622,135.26603728315973,96.72134740395973,39.13253941360675,-18.746158450270585,-64.73680813342794,-100.42537122205233,-118.75945590512728,-116.85581668080223,-108.83170370705837,-97.82142786910606,-75.86445581840422,-52.03678065423833,-37.672162866552966,-27.162194881040786,-18.62198550755913,-17.177182435594922,-17.1186854771538,-12.220416930796905,-7.083381891721505,-5.225227459603776,-4.711736127886006,-2.5930277285634276,1.5632366257414532,1.7112393464167788,-2.715575968246654,-0.6918134670188785,5.667235237504208,2.7128065799797145,-2.041768218655289,2.679408985238961,3.2159212440245497,-4.510333567895614,-2.7233968335947125,3.7870723803462454,-2.8154977227506883,-11.897435513028473,-9.542038567719262,-4.602411858415719,-2.1177519279892643,1.1982256272097818,0.8612111890341598,-3.46937590150538,-5.027771778951701,-6.072190188259404,-12.533077912983122,-20.51822755960353,-21.126913971349644,-12.183827908341318,0.6830921164702772,14.879882737361463,30.540378352342223,34.41212902436047,9.209352913031054,-28.097928108334408,-37.286976116777616,-25.948865545883706,-35.70872548171823,-52.92139506554001,-59.483143766187695,-92.24954589827969,-126.00456160774007,-115.08790794769605,-118.99264945766811,-118.05926078601999,-28.15837224112137,83.26569367659062,287.92607188688066,681.937881854089,738.0375241700394,110.95014137534079,-398.21171997714777,-242.21721802716786,-61.81065053626331,-180.96768122516767,-179.27925440125534,-62.96338688263483,-82.37766515065846,-96.57087016699593,-37.7595096474693,-37.57474748063612,-53.65828692632738,-29.141561845682226,-23.759653201404262,-32.18672593618056,-27.986910528697674,-31.30036551975869,-31.51062800932022,-19.86008852885074,-15.524308004995406,-9.689554044219587,10.135757624452504,34.40545251875246,64.415777232528,99.63015554191324,124.51411310816044,137.63223358030945,144.23631212054613,138.37380804938192,119.48395650876643,88.18593636332407,37.48765471852737,-22.119024313656368,-67.53210901850895,-95.60790254036691,-111.63836268536576,-111.10246083028558,-96.71559342033832,-80.90286482651686,-67.73629670516505,-53.021695331700684,-35.77848950131307,-22.566346117208393,-18.720136298359265,-17.232535057272514,-10.11407923718777,-1.5937278407208169,3.5733375138533745,3.5341713212327868,-6.632324480142575,-19.159439137592223,-17.02928206500613,-6.97366329227571,-6.561370723078586,-7.4807082452864435,1.0027557161536258,5.970506348430806,4.459095305187718,8.793402547513946,8.353019647430628,-8.757175779977228,-20.22964045076405,-13.31567593530596,-8.601255493220862,-12.246778329964702,-12.303646292129716,-11.280228884569144,-12.051739549265832,-9.176285490114989,-5.68852382011919,-3.1868414075922544,2.5023251971101477,7.169833588787077,7.029245987223586,3.133447152563379,-6.24618591616872,-13.757938240630171,-9.561109354074828,-4.59162189624767,-10.039367076288757,-15.851367508760603,-17.987379078655696,-27.48091593287244,-38.31169470202617,-30.428238462445613,-8.128365188817401,9.04591140927038,23.821730618051678,42.22459427420128,43.513513770043986,15.941832131566727,-13.490503024387323,-24.740118501145126,-39.08094516709843,-65.67655717458211,-75.54277882726973,-77.0382265718718,-103.9087726131327,-127.17428921773043,-133.2682238462627,-149.88605337263408,-121.2703544122626,-26.10177651709123,109.16843436338516,444.9293518516282,872.481443129414,723.5954610154469,-29.647149253794836,-429.38175696619487,-214.8640499121291,-91.67288773042442,-195.86921070944692,-154.97531642672004,-66.38603720989454,-98.98744205754795,-100.14775482008547,-50.5903218222798,-50.33939721839316,-49.66848501975645,-23.0929212311431,-18.5189944233043,-20.250246662385667,-16.782569346857066,-29.641481309660357,-37.966179713713,-25.348871786171028,-13.731563477749816,-3.8064311117153036,17.111265031710946,39.238861047515556,59.930684435115545,89.60995530651726,119.58479504938217,136.59516691457438,143.8140405139867,139.54621053446826,116.64190422714603,80.56935459033757,34.35427381704277,-22.412891332577324,-71.32815172082834,-97.36261275248579,-110.65306087492348,-115.36974469465159,-104.2811274613208,-85.49622097112595,-68.54976346638878,-51.592272400383024,-39.04572417155463,-31.730715108312815,-19.452230020714445,-7.343501101340745,-5.275357210167915,-2.289237593105888,5.295771813481878,3.4068508344590676,-4.386955120888491,-4.286274780798385,-0.1982012776594253,1.5463941389581919,1.3585869232483283,-1.903486730527863,-3.0130639216657062,0.038942322129834395,-3.075522541959991,-6.855631965265118,1.3390073890551388,6.47342083775382,-0.510167006006732,-1.1709571578293403,2.7597878040806982,-3.8138424380125038,-9.753585233340619,-9.261182307961432,-13.503999499864474,-15.228202583875989,-8.014181675170757,-2.97083469691124,-0.1271580380291546,-0.9172211136900366,-14.921844710084258,-25.555374629035736,-18.523040052373755,-13.42986182248486,-13.205888907755043,-1.341076427707927,8.52288867994993,2.0944699810002554,-4.900133980775109,-8.288730266873774,-20.275490254561923,-33.77471331205939,-33.30646981714848,-19.391784375609006,-0.6235427068594213,17.12459243112602,32.035393163382516,41.78927052937735,31.31499534998113,-7.2618271403788555,-39.99234697533441,-41.22730692636206,-43.14066312182682,-62.529644521361675,-80.92529261175879,-106.19701796459343,-132.41565672765557,-145.13453842660618,-161.56235353573027,-131.5664468134583,-24.496339368845,98.05158605077202,365.444133471981,781.9539590002224,736.5663345474163,42.23810528306136,-403.2535172695085,-210.6584384970611,-73.98690446347034,-196.9892914705355,-169.1857557318525,-68.17909604813953,-99.27767744192715,-94.42578908592742,-27.83623333884268,-32.815700880214536,-48.95391073598513,-23.5329258004044,-14.948837761212282,-19.679692119704143,-19.493223866625353,-30.20883549404443,-35.452717176989076,-23.04947892929208,-12.091959691589787,-6.5054561801921915,5.88094714392782,31.3598488302994,64.58136257475749,93.66225637846776,118.09248228014094,142.28286678213468,158.8334737367472,160.58298689368934,143.55725485780545,100.50596583677992,38.80147916251212,-18.14814370526053,-59.405049820286145,-92.26292292076167,-119.69456538994844,-129.6062536775309,-115.43741121882329,-93.4091157965812,-77.49017002013197,-62.264835748543646,-47.284012634217966,-36.98871662267943,-24.527034373497415,-11.04549818188233,-4.789447743526175,-0.6137357592578994,1.1181959115106181,-3.3549457434945893,1.7329168688335663,16.31496428455537,17.028175708949615,9.640469960523934,7.988735101015772,-2.3503888499660732,-15.862348019142818,-10.320247874516008,-3.475597493729717,-12.242503380099382,-14.38952372643844,-6.628215907124446,-9.503814093653515,-16.004949178179203,-12.134663164472542,-5.426933864370721,-1.520964457131221,-0.492311541158319,-3.2941135716403487,-1.9678165745363074,5.184691620825017,7.846324227848443,9.227700146883711,12.870092534999298,3.266345523247981,-18.177542658402228,-30.47856652635774,-37.59483705466239,-47.32832370999043,-39.48639639519861,-13.161655505351751,3.619896701325642,11.472843042100306,26.209201171664738,31.696198247090432,9.392357410822642,-22.790619805351746,-35.77280816060694,-36.56968362268266,-51.840533983290854,-67.7749092261887,-69.39804479566746,-84.76977816335977,-102.88672507974869,-103.1378441687219,-115.87561743024638,-93.10447367984364,7.607412970497691,122.49472127100857,359.58539358121664,703.3561451682631,583.7763882898851,-86.55100679122194,-412.2155633860446,-146.92421546195027,-37.8627517685337,-189.68941983698804,-151.41608537051107,-47.873237780242526,-85.98802559043637,-80.44422469727405,-19.365383383393628,-30.673540430691716,-41.06854240672211,-14.77452045287069,-16.588833456173205,-24.8111514942986,-19.217520684489656,-29.919330744792486,-40.47171482155581,-28.41830447234009,-13.757179532759116,-3.197424097438496,21.072426880645025,55.96562999134419,78.0175374788083,89.94708900478773,116.1202092191133,148.8975049227553,162.64705659798022,157.90863031136448,134.79110438296138,81.85604364760812,15.842823961928673,-36.051739661657535,-74.87213677753334,-106.31217429636517,-124.67252061833426,-130.1212240286972,-122.55026655633115,-99.43102998247804,-72.89046706060964,-55.72506899546044,-42.945690768421095,-29.46031449376541,-18.595433587707834,-9.618333906878817,-1.0621989604656612,3.2760834312623786,0.6863996760898274,-6.721455388294466,-11.01818839332389,-6.113662937728716,1.0961536641607026,3.66471396305122,5.8063914994025705,7.6748617233518,5.808817722692229,4.257149973236158,3.3395543701483454,0.8698893078102792,1.1185576148682372,-1.5646683916169764,-15.024310752424803,-24.18206150312043,-18.318802629142127,-12.39716998408941,-11.992056595082913,-8.162238834090719,-5.782293372993722,-9.146691670099575,-7.44703609971058,-0.7931477037757801,-0.7878161342971897,-4.137801090687319,-2.674975695629053,-2.1269691366380776,-6.161536044056449,-8.035677574867485,-5.733042963458306,-1.8443636992467294,0.8226257972384499,-4.709810536276379,-16.19961652815395,-22.209863354261373,-28.733546331126064,-41.94954491521961,-40.243433667554385,-15.851755317766731,6.289080802562168,19.15518077030092,32.02143756514211,32.78623566470147,12.73863210870992,-9.822305310940969,-20.158238469010534,-29.863510586374005,-51.19097237363823,-68.2430797393624,-74.74324228872777,-92.40071034017389,-111.89439866093122,-123.16475673702516,-142.79133586083321,-121.6555217927939,-35.45028888134608,84.12703842675731,386.288942706033,829.1075614574726,777.8108156296014,65.76081525701814,-415.1288688505669,-251.69460031415016,-92.2132495377361,-190.24866414679673,-181.74583474739728,-85.87899594911259,-94.71759606389651,-91.2973000766931,-32.49575582768752,-26.639438825439242,-41.100715564678666,-20.323339701702977,-5.20633063107956,-7.336468668469305,-6.545185841116146,-9.854813608225692,-23.208418307618498,-38.20139964500997,-43.38216393861137,-31.169054678200915,-7.156122665035334,19.65492372698789,47.71652128182308,75.91468191600866,101.81079857105277,123.71192998532773,137.75180863332398,138.9976525989727,123.22634844860583,88.23746020291176,39.640124516826845,-9.871669469992899,-50.77022781145623,-80.92432277719922,-100.79126626334624,-109.33145153406502,-104.94270993677571,-90.4405629739679,-73.46094294438633,-57.45249235305394,-40.50944307612354,-26.294786667583423,-19.454917531385092,-13.00712009279492,-2.5500964153644112,2.450115334936182,-0.10450064031527617,-1.7624431895492627,-2.6791765500571714,-2.9853064974033963,1.564298588371841,3.1965152772823497,-2.4976838376301664,-4.712575111206654,-2.8905526203888954,-3.0961604692599636,-0.9444040305811168,2.0098089154665413,2.0148081241548077,4.843762960649437,5.165626582221117,-3.5498465899049467,-8.6528036168929,-8.253821432452426,-12.78808191315846,-13.95750769354862,-7.463184848342985,-6.838924015647926,-10.584325058318278,-9.428071894833586,-6.45476983007296,-0.9205479358353088,4.569525434090405,-3.0270714674846957,-15.051012449644874,-12.181358329373042,-2.5215333843397794,3.385458384127494,9.774090738917764,6.006626622086754,-12.181564141664538,-19.37948662535525,-18.0767206579118,-38.708388775756774,-59.600440290840695,-42.01086011387926,-11.825467745284893,1.6385399095082427,17.59129346727126,33.91619845484283,22.722448814372562,-3.797805206823627,-17.34989388373021,-25.00719223973415,-43.45039235291617,-61.745900067202754,-69.45791568271534,-83.35198690868202,-101.47422132137963,-112.41033416041844,-141.0085941934931,-152.18117176661005,-78.99147509635739,32.2367191046648,245.7467101981948,677.474589529312,876.0250283335085,347.25261126358794,-315.3449761479985,-339.2411770793586,-102.83334293542933,-141.85406451642876,-200.91322685985938,-108.89875373446193,-83.00839216213556,-102.34971053510839,-56.014689419253,-30.131517739980907,-39.925581059820345,-26.026299135106086,-17.816369355339496,-22.80440970615124,-14.878521646977928,-15.894910460525278,-29.36820157847021,-30.573619832447815,-23.75053695163024,-14.050175453981542,4.927874886350676,28.65018947276632,55.93884309491743,85.96286644668052,107.26192401007526,123.02355780094902,145.90692809268083,159.948400624383,138.78661243209788,94.59913318495286,55.95141842190425,16.008487685195384,-35.94759955441204,-74.6754227926726,-91.2751359913378,-108.1025337927882,-116.81080364477512,-99.55592111543478,-76.72824629317125,-62.51734553610378,-52.00892047901923,-50.678070808080776,-47.817145042652925,-30.11331426390095,-21.432910005798337,-25.750426260771654,-12.645284382674177,5.37380043910402,0.30049960016254573,-6.672737357857294,-0.028226040715381373,1.488074449258864,-0.5586318084580562,6.838420550779983,12.497730013943734,7.369434603227397,-1.8839213454385018,-10.298993168191728,-12.41269148771339,-7.25618486036049,-5.467340218874046,-8.395806172678054,-9.02238900370438,-11.662563138333674,-15.78284871522386,-12.434426022814073,-10.052915747705576,-15.920036141092108,-15.349780385442156,-6.425391741791607,-4.212387811538434,-6.245354410929355,-4.857941579255421,-5.7274671915869355,-12.685281744373881,-25.796406008658185,-37.42835975073764,-29.71202343621796,-6.330386556391719,12.315433192712858,25.64197292926253,32.83608750903493,20.638768345012046,-2.778488737005075,-15.138138691866672,-16.3802989836502,-28.65459652724861,-55.52609339208387,-72.11635440285761,-84.67817547211217,-107.18502087639521,-108.71473718011508,-109.07315528868476,-127.24360145593651,-65.95767184023197,70.61176767883805,234.39319284304693,546.6466594254875,743.6490655776198,292.361642937585,-351.95340037346614,-327.32219653844237,-8.343171283274287,-72.1675684003999,-184.26293883404435,-71.96974706210227,-53.909777708899554,-116.83154639660842,-61.8916595913108,-17.31054369975334,-38.258115995873915,-27.719625144900338,-21.73934866819998,-40.72405444229436,-33.92987289719656,-22.06920465713592,-23.507258921750605,-21.62367263555484,-27.79294451947257,-34.80742919746546,-17.087428195594235,16.705550367894155,51.59182255494649,83.08507341427952,107.2556410921141,130.9596855519046,153.67499711259418,160.81921373152045,151.7225780372538,126.08147240137372,73.11369751947186,7.71953513716233,-42.14252473158757,-79.06689628154474,-111.1246597461761,-126.3203084820338,-123.90912458024812,-115.43409968782758,-97.91803326476314,-70.45960356000927,-47.14187264899599,-33.92089504427668,-26.36165070509286,-21.382886804290816,-13.134709208713772,-1.023942595451235,4.494253011971836,3.0853748744696574,5.445395961404595,10.758526601479414,11.90089627622664,8.429887810776172,-0.15583964353851698,-11.196455486177303,-14.458151050606936,-9.649628622814017,-7.459744500369425,-7.631345165601992,-3.3969705829219325,0.3840612911421424,-2.2383269500428895,-5.821859919546453,-5.412853653340505,-3.359391064940368,-0.6964594162920861,4.528219355114437,9.90181098577507,9.050535088237678,4.196530424940622,4.9631215884325925,4.109952395226429,-13.19344946734979,-27.63409345678587,-16.244092053610167,-12.128032188959804,-42.693262840952016,-61.949939523512604,-38.01579901372382,-6.4636770452600985,15.296951265692057,36.58616551703552,35.22654576546388,2.2447620699487594,-25.914348100036637,-30.919824868410075,-34.778104709622255,-52.547797353597055,-70.73872075543292,-85.78894689915393,-109.49680114481221,-120.81472624427248,-118.04482115939466,-134.3073466653552,-111.11204426305493,-10.36743146983354,109.11160659941795,371.4669768095079,760.2762125667621,681.41198602491,0.03361821243342433,-402.068795467241,-197.08334921236192,-69.26374434734839,-186.23584247898376,-153.1352544515846,-56.54269059810181,-87.85073295068692,-89.12896446212187,-35.12098087075199,-35.761417262568756,-36.95299181484833,-10.311910072281778,-12.944516893031548,-25.9519081282347,-21.800272662464565,-21.87027339782059,-27.49691932447063,-27.10833375999334,-21.18354911880388,-10.511144408612859,4.513156955193132,28.73118853097464,65.19626365520821,100.5750814699962,122.77934032074324,134.8252580386702,140.2740888530841,136.86451682021664,122.2892976989848,92.43548551195614,43.3689082534754,-15.289941369150196,-63.183656042474254,-90.43063827753649,-99.94025289312026,-98.2624062529006,-96.4604435623274,-97.55634479850765,-87.78825822872824,-63.05678711255032,-39.16406536444981,-24.55127701318407,-13.404671693876239,-4.578210919319105,-4.030936115264616,-8.971284491130916,-6.84073638406835,1.9414738607980446,4.253354626593978,1.9282014631486888,1.4625076408549766,-5.777913742153757,-16.47341659458398,-14.985082832246569,-9.464737226032735,-11.803205739379656,-11.526106912872493,-7.265483891192112,-9.627003319554117,-11.706376569223941,-6.66832693739476,-3.8377619172730917,-4.34688742884442,-2.786354837996825,-3.656801237862716,-4.997385679782166,1.283739299265843,6.375199619192983,1.3552041505030008,-3.7093769676295683,-3.91127107428764,-6.549093206360576,-11.43964493014546,-14.569532780524817,-18.31089610897253,-27.438256833662866,-39.04253650097547,-35.13219152029721,-8.068158779933793,17.259472455729465,24.10931862137725,25.307036306175334,20.204240127442716,-2.3863230384635727,-22.825165761689018,-24.246449850223236,-32.10463758033687,-56.616445251607345,-70.20586344882149,-80.22759203106635,-105.31395231649024,-119.6871568011286,-130.95335785585047,-145.85839386780538,-97.10744842598874,2.0449577548633897,161.3117373506745,547.7259755316949,890.7697560158647,552.0577938253523,-185.74801655805553,-392.22480997489174,-147.34073825156509,-120.59631406676364,-212.10755765711642,-131.12154141758376,-74.3274202277144,-104.67816838506471,-69.16099568556548,-27.326321017057143,-37.62179651787437,-26.996601970953613,-12.876666811800249,-27.326042730387318,-29.554328490557676,-24.77654986032611,-32.31394674240143,-29.41793842009458,-18.61962349568829,-13.006742587571459,0.9492018215039781,22.94180463937558,45.13731414023391,75.0286163122932,107.86822936389265,132.70808731753766,148.10237294040138,142.76699086903022,115.62592778414697,89.15704235117128,61.27095117889962,15.163322046290386,-33.516683047886886,-70.89419852469196,-101.84777251445661,-113.41012131399627,-101.46553398678205,-87.2640873110763,-71.59258544147167,-52.915546564033086,-50.455671682445086,-52.6755146368227,-34.065571851418305,-13.418156218171376,-10.703069721863436,-11.874855927281828,-10.498551680958688,-11.211086999600447,-8.747176575910725,-2.374323649360793,1.2945952896216184,0.15851407130759299,-3.807261538579567,-4.4002997117620986,1.1987091335485829,4.100861151973685,-0.25761224029421825,-3.021716889797883,-0.09767881180959748,2.0395552685826868,0.9679484049141536,-0.7461678468350641,-3.0231477075423747,-3.3602082810464786,-0.5929496262429481,-2.829988488624176,-7.959565534390803,-3.0306224870565046,0.37909064822652105,-13.05206037935979,-19.182023197250068,-3.261889206335969,3.3275188553455095,-9.606670040647536,-15.990870052503166,-17.80809636443723,-29.44688449159657,-33.09072245722567,-17.39042527012556,1.1184273491961942,14.546870769798648,22.84035508182743,16.613391750142448,-2.9516608577232084,-19.38493839091078,-31.67457908785514,-52.74502556835697,-69.72984913215859,-68.61701711439716,-79.35806740455806,-105.89770751187359,-114.35437943764614,-126.44695134154216,-131.82089620359784,-62.328290869211244,48.151596281949125,252.0479553384905,661.5066895408236,837.5516495558632,300.3758926173035,-334.5428860774805,-314.06063020707086,-77.12423356094097,-147.73135820464898,-210.33297864744694,-107.34609974540716,-86.48612976268427,-104.27001127710619,-50.06342679890376,-35.54752190927519,-61.07165115275016,-45.64340899719018,-27.381226161008826,-26.483005639474797,-18.508299272021613,-17.808551363786506,-25.349293084380676,-28.67623102876618,-30.96836290346736,-19.172888784690898,10.434336640412917,35.40649237353341,54.94615121599798,81.43341984316122,108.15518695293292,128.37606104904683,144.10121504163456,152.09512768753933,144.22472254018513,113.19470266742915,60.70298692712003,3.4979360425735218,-39.60474891903455,-67.87976149736681,-96.89434204130453,-127.15739860055818,-132.60493439728106,-104.720465641278,-73.09381132854139,-58.10067224161805,-51.13774751634117,-45.09227384972526,-39.15979659245509,-29.990661260202376,-18.510105863335472,-6.1003962454245055,5.879232323628578,8.32712573620007,-0.6324990343084593,-8.153384353479701,-6.4785352053628635,1.9622673986506651,10.527962564769398,9.185942345427597,-0.9248245169204079,-5.758553301467408,-3.414966737839567,-2.675060021115664,-2.4022974463255196,-0.16013434990137654,-0.5635707583672005,-1.7427828309491478,1.7886253932676333,6.397464263309608,8.33253141235889,9.912003979432258,7.319826058037174,-3.8925353259248254,-12.028939459957881,-10.098551111557867,-15.261426562753854,-29.969872458210602,-30.743210827117483,-21.93097787478358,-22.859133662323583,-14.780997267307034,11.742824906896484,20.15147749497451,-2.8984493077183764,-24.441386924307764,-24.22263905900693,-23.256621615661416,-43.09884225241184,-59.0595008901217,-59.80759993593514,-83.71866652193272,-111.29205465608412,-110.52189413080849,-126.11133156939734,-109.04507309741435,13.674582397845157,165.3791799741963,401.8407208901608,697.7206132999137,524.5735033917979,-149.2785092099077,-415.75179967649666,-100.62484446018497,-4.307074983099078,-179.90389961571643,-140.23902136162104,-44.695895787236225,-98.0429780282029,-89.08204136766318,-27.036134853282576,-48.22327755333974,-55.73443894871636,-21.335353571202447,-25.89567388730635,-36.181136190505235,-27.70537711982751,-35.42359306446827,-38.88494832370605,-22.50956424905497,-12.374185629720866,-3.12065970695714,20.421912688741962,48.3883861068733,78.88142540234297,112.9076158683934,137.18006109295533,149.89805305850845,159.7911577850546,158.07411921829765,130.5057446734906,81.51796583693542,24.955203123738656,-29.348662803809173,-73.35124067513968,-102.4595471553615,-119.25556782055803,-124.53950919977464,-113.91110612754221,-92.5321604057618,-72.42177580386479,-53.13892889323448,-35.04285781957732,-29.7222332265798,-29.058120079479636,-13.714626289196943,4.5988498044962185,8.69837132240611,6.5839141531879655,1.4377037061279623,-7.53195164670592,-7.812772562633093,-1.0974484748999913,2.707490355628604,7.3810330756877125,3.350138553829879,-16.065971915114613,-22.70043493920766,-9.406087373391124,-3.375498719318003,-3.4189680262548734,-1.1104492728257647,-10.450883172082097,-18.495261273022244,-6.237284545988434,1.1680307054251848,-6.214662698534514,-2.224342039412184,5.696606276718288,-1.5135855472296065,-2.374321158926893,8.115894714552606,1.666511424351306,-13.945990971102077,-19.066309311191446,-33.9894705816823,-55.92334249155576,-44.94488359567724,-10.738807234996438,7.586696505759846,16.220705547516047,26.205547927084105,18.4779492567112,-6.123329652916221,-20.610441302361465,-22.556953278283764,-34.9773333970448,-55.182023847691624,-65.19723908178597,-81.26136054951476,-104.67373968319853,-111.09964454417765,-126.28377952137646,-133.61208082023026,-62.68462576096927,46.367645016507865,244.3406289308862,641.2441103848716,796.1318207184988,256.33765662014116,-343.1520488357562,-294.39606233431397,-68.77975680564256,-147.70334712887882,-194.56320971330564,-86.07479857388839,-76.2490048233381,-102.3612853666136,-52.72648754818594,-36.08261773581755,-48.06239364925731,-23.236801207899674,-13.681570930230894,-27.565880685463423,-21.789103627112233,-16.149227310371458,-22.88008368134266,-16.492089173200938,-4.349951948428209,-8.219250573777062,-10.133899059673897,16.612688110519986,57.9003140182948,89.50261359823958,115.06440539633233,132.10810128701496,127.95295520432303,118.83962909569877,115.62057523747586,93.13226714093692,45.20491317504453,-5.807032822969298,-53.54428020394482,-93.13601191241864,-108.06980914701292,-102.19808222877505,-92.03383292312199,-82.29719293397375,-76.64537917444078,-73.753874610016,-61.071099246111075,-40.972074785500865,-27.948282073904732,-20.25105728430755,-12.381850100714207,-9.285697268731596,-8.818322772621574,-4.165938079871367,2.033386721075445,5.866754131603805,4.455135792926601,-3.6520102302342963,-7.32721502171195,0.1718033029694439,4.609052240617414,0.6698576518902595,0.2984400605078097,1.8379068845255144,-2.0782180404042627,-4.877264867840228,-3.5885474703333955,-2.078538162588764,-0.010571500112584786,-1.220223695530521,-7.274545376114348,-8.136147970692647,-1.78674794845492,3.150986867937309,5.235948857222418,5.716750321063378,1.697241378378754,-7.091474315338694,-16.849211759129485,-23.89308375500142,-29.96707714793635,-37.020057281834895,-34.19302376361734,-12.073467263639156,16.124946451649684,32.78709398100386,34.50721525476924,19.684586116682357,-6.020973643649918,-18.9954744759383,-17.969931370650258,-31.94995574267237,-53.61609390009218,-59.2692557989384,-74.42170820867719,-107.43567613877102,-129.69770358496882,-144.16527572131693,-127.07803972297036,-54.514032673409915,48.04988175708469,310.3080464370014,752.5847944878501,804.8134210963678,164.9145662895051,-386.63763846045185,-285.68341454141574,-83.6539338171871,-162.72562889148293,-198.92941942236712,-116.43446844001737,-108.20763123568203,-107.9979838768165,-56.182308185830514,-42.77945399594378,-47.12116876436521,-23.016677760965557,-14.787841901231303,-25.324898690072583,-24.163682833795278,-23.979925499474454,-29.767769973417927,-26.353230265311403,-17.115094052031175,-7.6449877337739744,8.338635269422097,31.656281541667532,59.82480394346235,92.79699418368175,120.10670899654076,130.1630515245776,132.09622691562726,135.50465539814903,126.88700307529012,93.61138107463626,43.35684478569536,-10.520731328634222,-57.51912622606292,-88.22571274991888,-100.20538762419038,-101.54568007343079,-101.9075728118945,-99.71155796580535,-85.62399447604332,-61.11413855707275,-40.52409014492291,-31.50187525017636,-25.70340003092098,-14.513375162931702,-4.039414714939689,-1.5323755453988994,-0.9452035822543472,1.239740262456852,0.6709211674915316,0.8778607060923456,3.799095482686191,2.6819074069234112,0.9117607932835483,2.6592698204484186,-0.75097137560895,-6.852600482923394,-5.150616513020108,-2.3295582758644233,-3.4535515295463455,-1.7822990721373753,-1.8662964489115215,-8.314703593344225,-9.67702714341127,-2.408941749245278,3.500927612989411,4.883517287553154,4.946415366481649,6.78718246600172,9.869421226084917,5.234985749861587,-5.334202429212123,-4.895250076332157,-0.6192748020476699,-12.841173261389972,-24.937048630927123,-19.93059691117665,-20.025339477191938,-28.651068966986507,-23.11364895439262,-12.190296809064122,-6.297956949477422,10.945924611255226,26.882119144321543,10.046245711409313,-21.332714940414107,-28.319117447567596,-25.10505464415087,-45.58177534400786,-66.7203108958721,-65.74293245331182,-80.77078818381344,-111.47149664426482,-122.86489660711999,-133.6098292429214,-112.81262572247016,-18.899708949989275,103.8952718439414,363.7792957000256,756.8833333490542,706.2731804727118,29.577979435687034,-406.47555723134406,-213.0328316612115,-70.45487113524409,-193.3492481952148,-172.1609738102702,-68.09251707701475,-93.82297265249393,-96.43339094496457,-35.93046980980543,-32.81363095453351,-43.45479711417822,-25.465520115455462,-23.238225758514382,-26.036817750557592,-22.574276494808267,-30.361210896076116,-33.02714988717006,-25.201599717091472,-23.22048464216918,-15.182128983683514,9.963354738447027,39.81354914133373,70.77783866106697,103.48519788567535,126.33483973512736,137.220836591159,148.12966797304324,158.2058019816587,151.3242255842115,117.89374652398794,62.52513088693356,-1.941678580679938,-61.16574414255837,-104.9649359350972,-129.57630944866864,-135.46619308723362,-123.6147087657932,-99.54268544724627,-75.47344410613483,-54.98503014254369,-35.435502533644666,-28.45554764816074,-35.96416158918379,-32.726883159866865,-16.18346314242958,-9.818007296937957,-8.03224652469143,0.37874466430701403,-2.0871014219442685,-13.15561088568223,-9.949054492664228,-0.592935733931661,1.7231770306363003,5.2020447258872835,5.329316740266183,-3.2719471677783893,-3.4228426297666026,6.907559739746452,12.060575743101474,12.026213351956358,5.6138978133532795,-11.198249677422497,-19.480527345305,-11.53728533716874,-9.739766767989867,-15.701804357569745,-12.460007188442646,-8.903546475738878,-15.820421090262094,-20.095109902944525,-17.834951703425475,-20.26987827958463,-24.167835686855973,-18.96524617343789,-5.7707627543941555,11.164081741674476,26.770843166289403,30.2703260081867,15.465943259818289,-11.01006101689391,-29.2571588751275,-29.658403957307897,-37.15431698220296,-58.16673364348687,-64.56828739727143,-74.4405914060427,-102.47488812785363,-106.40410398896773,-105.67869525927078,-110.43673034185429,-39.10793167150893,83.53246396811095,266.900126447465,615.0562167814433,736.9554674413323,192.1119139842815,-382.8424708184514,-279.9311488476128,-33.18860463783781,-144.81357030994434,-203.71377931738797,-78.04416087347619,-74.23322333727889,-108.20615393992982,-44.93735656899878,-27.80759122134249,-51.361576989991335,-23.88079058953797,-8.943482639788202,-23.250896074706475,-17.131708073636293,-19.20904437608442,-41.49921584309847,-41.53746369792437,-22.439945625944606,-9.542315437511828,8.336820317994672,37.62822774379681,59.28437289739349,76.07942856929688,107.16406183580213,138.4167006414792,148.93614980964924,148.1570938006697,136.49067877140052,99.20577890240713,46.233545942449695,-6.941802764735675,-59.598014473438816,-101.64372837315875,-122.03405696057146,-125.88565727573075,-117.90813096481234,-101.30143730894744,-82.35385615701483,-61.18905773374027,-41.989165817690576,-33.264290273509246,-28.013156203557667,-17.783396271413658,-8.165125079738154,-1.4723744262982024,2.4611509740162383,-0.349667151787564,-3.5749388464015013,-0.6222886704490236,0.4974432831017772,-2.1005169998303366,-0.22209329140498824,3.8925474482972984,3.8025354408723366,1.4822893043810428,-0.25180634859821005,-0.8992456177178259,0.6291056207942738,1.9366006670453313,-1.0023456151934464,-4.03876550346985,-0.5105739550067021,3.5907688924881356,-0.28429962118564944,-5.8545172690447025,-5.190614188244661,-2.2825564856670795,-4.028554918381534,-12.768737480079535,-20.36801404011158,-14.624911281039134,-4.071616923782269,-4.90830227298439,-8.239593471286916,-4.168083060125618,-3.994036217758678,-9.097920317028034,-12.661957276168767,-25.38680345457226,-44.472064078155036,-41.56525804653929,-15.046053916404901,9.653674945567058,27.01409050811158,38.86866387900744,33.570488316399675,13.254697680445329,-1.9175725759736792,-5.83631201717895,-17.072207945523996,-44.931378802187325,-66.57975829383624,-77.73699160746693,-98.59423413786936,-110.48345833580898,-114.57073365599639,-142.3032467517562,-131.05733728618483,-45.21106321941877,88.42388250974545,418.62366990120125,846.8359233132011,715.4204890188023,-26.278161512932,-436.2738113564885,-231.84032074374102,-101.8125591084557,-198.4853450639367,-163.64567534581914,-80.50757169717559,-104.42386417834831,-94.36358632055425,-39.852509634102674,-34.54673661182481,-33.15529422353562,-16.465614507502533,-21.735139163083346,-25.96558231387271,-17.802044166452816,-19.17919179311924,-22.740311781340026,-19.568747895221478,-15.296322518141762,-5.4071089797261305,14.52187660846159,41.629979222382275,72.02803190112368,97.35994502140682,111.66156564813907,120.5058525640469,129.20203937037346,129.80036932679815,112.42697901924645,77.90838274526368,29.083879109883114,-26.004792416125525,-66.1442865474532,-85.64744330658993,-100.83212852973863,-109.71799304867486,-99.81522389046361,-81.92426322976732,-67.29902754646596,-52.85095221910358,-40.45428512032919,-29.032898408427762,-14.981010277065415,-8.298684403744794,-8.55658476088638,-1.080988929490438,6.320229771488709,2.237416516793825,2.291111995254706,11.565873824501828,12.195132486435472,4.925325708675441,4.227936896976306,8.669987670700106,12.544643420794849,13.18825420461282,2.479725503747101,-16.145887092929616,-22.487258607959845,-11.480820533091677,0.7737709647278592,6.427257175100767,7.043569397150199,-3.5951588806385715,-23.479074811326143,-31.915437043119105,-22.48409471150515,-13.173257905992756,-12.829756039014867,-15.395382846223228,-18.101827246172668,-17.49515286988415,-9.787209570583792,-1.081063335797058,1.5508158229540072,-2.466018552776127,-9.485808780961136,-13.307909032866046,-17.949277770801864,-29.285258555875668,-28.289485042656246,-3.001710114348297,19.500760080253496,26.55731095907921,36.63278359372289,40.28053344017453,15.467270808011362,-17.399541091761854,-33.480541752417686,-47.64957195062615,-68.44813821447573,-74.61676853349837,-74.83462220528178,-96.95237942564344,-116.79367324460881,-124.19052700414571,-148.32846167431825,-133.42973788465417,-43.8555979390525,71.01147076111374,348.61563035973563,791.5998771636681,790.9833281727938,111.42209244109208,-398.3324650625887,-259.60136183475504,-85.22985734544926,-177.0978520688152,-182.4821539269047,-87.29546045533212,-87.38137544902507,-88.75362697624149,-42.89872154187367,-37.44214134133027,-41.16907622447965,-22.003140112380066,-18.957082174280202,-19.24481171437789,-12.092794315697553,-23.78660526247672,-39.101281407624604,-31.669904551817943,