ECG,-4.673044754826837,1.0814966907727843,7.527668837595972,11.79168874734063,4.374843159736367,-20.411070517883143,-48.58599787649656,-61.97607427188518,-64.4800695800912,-73.77049641531723,-96.2189158807723,-115.6673703896345,-120.57148062026505,-128.570327708369,-138.60985448752277,-111.87012506094884,7.533063834083578,308.38498088289975,700.3489252318006,736.3868231080501,226.3149188359356,-270.31838937524833,-291.1190430183126,-142.04900042871458,-143.45969818038947,-154.0843693919668,-97.0143779184146,-77.5356794632617,-76.46933174757243,-47.84858070841015,-28.91671983215217,-19.501066380365977,-3.2920283354437387,0.10864937160099508,-5.8600249604138845,-3.5736969779769865,0.2161157273475638,-2.292178627028335,-7.027425691213729,-8.66809228726496,-7.882894433013474,-11.105041651321908,-17.243123190714705,-16.498316694130274,-5.310575279306795,10.05280644366928,23.50510977505968,37.95053435890476,53.25428652919169,58.319224387263574,59.6262772270082,75.40349629577123,87.46914404406748,66.92373966591214,26.544880770213368,-11.241140132900338,-43.40572376729891,-64.96901298052454,-73.09099675335322,-72.19107673395398,-60.65968328540359,-43.182546166075,-30.544374862021424,-21.403076747553108,-15.228634562842764,-12.990838029979358,-3.0749738474852357,12.228696233983,12.940439732395934,3.2180392081774,1.8588651482958447,5.034940081794556,3.431151794553955,3.556957790909834,6.983428297675477,-0.12747302863016685,-20.288010366938103,-31.9850666877941,-24.209481465616605,-15.768572756909862,-18.517986364904544,-19.883585907378016,-12.40782433241268,-2.6944040525430744,4.793231670646172,11.46796184851418,16.445966196061605,12.361685282914452,1.0823927589486608,-3.0358649760662715,-4.052027036256483,-18.325370155541183,-40.23032321951719,-57.23693499497884,-67.62847400803892,-74.8868333645737,-87.94066327358372,-101.50268319833344,-107.51487144483387,-123.82505038401963,-140.0461389569747,-104.55053774971333,42.9639091381367,370.29770055176107,724.333282444201,661.6420566098649,131.2434158068786,-266.5485750822895,-230.69109989307503,-124.36572018316771,-148.7430686998747,-141.8994461244414,-91.55997420846668,-83.27623604108169,-75.13691319748605,-49.790963860598055,-40.59485301657068,-31.03704897082452,-15.034169215475563,-10.695199105376643,-8.030558569715563,-1.5281428266329584,-3.127715396081978,-10.24036292113353,-14.662282958387474,-16.49574285348607,-16.310995454312682,-14.070263029967304,-11.04129914609137,-7.373082372864385,-1.3289803271869904,9.14542919174309,24.71462941961216,41.926765814555466,54.11221994262668,62.77977026001004,76.51092506564298,89.26328921872194,84.13458219916716,57.817133191477964,17.131976720629442,-27.97839582458266,-58.697364441227535,-65.26888855475504,-60.85607113142083,-58.0339230385516,-53.58299401282833,-42.2609438631406,-28.293804487545867,-18.618113622874155,-10.697872091211863,-0.8187269198444103,3.7065169969748233,1.3586791557827365,3.1652127058885817,10.153003954251444,12.634595076038309,5.667863420100321,-9.291736886269554,-23.06537842995551,-27.54137987988404,-26.075771746363472,-20.057117144973986,-11.149367019434292,-11.247023242203436,-15.426141170671645,-4.0829185126711245,14.167399754774465,18.657315690851014,16.45528200862052,19.101357685710703,18.382286346969444,11.607242978862523,11.198706084604972,13.50111276031932,-1.0950104217619696,-26.826549807960024,-42.15350777016694,-48.76317346891309,-55.32006627575406,-68.2665919146063,-96.04060521016879,-117.91388344802378,-118.68400837866028,-125.21069194470292,-131.00571997562952,-87.5956950763324,74.80107388811446,427.01255530699746,753.1596484242609,590.4516975384615,17.111664542956245,-307.7579878985885,-215.8274563546892,-131.13988090812651,-166.0995622610267,-139.5952042051739,-88.09176915546044,-82.52885294512217,-59.67668160546444,-26.55313882052444,-27.14989940705337,-29.535297826749613,-15.926202461788325,-6.107296410660496,-3.7492732864856677,-6.997964578082939,-12.600210094333779,-12.51427057761903,-10.588524547306449,-14.96837271843657,-22.471932792842335,-23.985752025280245,-17.988812106880804,-11.511323934386144,-3.9184861347217907,12.106659911834909,31.92080205050494,45.544017663107255,54.70032669228014,68.59325089080002,88.51623186595234,99.52426712903332,86.67826882706282,53.91358372486129,11.583297937631741,-31.35009471489046,-59.7474932594884,-67.84564256923898,-65.94142357312904,-60.17198669319069,-51.33392084236778,-40.86279469557446,-28.339308081514282,-19.149000918828463,-16.003552280712842,-7.51523131920475,7.257469168703953,13.161876098907124,6.559138579118624,-4.384623890129763,-10.593544653949344,-6.324565530879621,-1.269948483372998,-3.929062889858507,-3.010670750350231,0.6517289291885326,-8.852934497575422,-21.31003299412414,-20.167592062347623,-18.25147017016519,-23.820192449117236,-23.475533415869435,-15.204403123960532,-4.379105978840808,11.736264183258989,22.633514287050957,17.35659817916384,14.584956919399662,22.67526700056592,19.639815177168806,8.418986494956496,6.024594715579638,-4.278519621669069,-27.910061291149656,-44.32527254837014,-58.458038513238236,-74.9328713893438,-83.2736870281887,-95.29658912425104,-110.4342170459427,-117.08673501457793,-131.07405176247408,-133.51283767727617,-68.4880557215225,132.70705421495617,527.4576833511763,850.7844370933818,597.9033228762668,-76.69316046125044,-396.4159991537581,-233.4897754126186,-126.84927452465266,-174.83228577006153,-139.11052977326705,-80.32228122224014,-83.46342558145359,-58.69649026576754,-19.653542724985577,-18.517104286765047,-9.490540527830362,7.144612173864148,-2.639229030088618,-7.255734888554997,4.632997925447658,1.885179711533274,-4.070720473383336,4.067326045017005,-5.428257645856309,-41.49744430843754,-59.580633639453296,-45.33862809632126,-28.681610676090866,-16.495197461225377,0.2988218237301945,15.146803623497558,29.722833732291825,51.43497014407065,74.0410457280076,94.16669563562608,106.0971055862997,92.58547074109305,53.78768782498891,8.23481201267509,-31.49282363207626,-59.41003415402995,-76.51377928105782,-84.42570688919955,-75.21060818197864,-54.209622538099325,-42.30653221858773,-39.45789316370639,-31.06521245987836,-18.37313174743749,-8.837061456639873,-2.1498286119486174,2.8576149749202333,5.63741497436105,6.789371062217361,6.731073302928866,2.9302133516354854,-4.26115050372789,-5.990695008896301,-1.6642649089359018,-5.221477909106646,-15.566023721943107,-15.119909471224869,-6.006654871100814,-4.864661784705817,-10.830879250447563,-14.880220762918885,-18.24830713067147,-17.330374569363272,-0.7397880984961525,21.680444485766095,24.740444315908743,12.929858704891704,11.107444732412414,17.40052810863105,18.416554464209643,14.790128518199388,-0.2791970523652587,-26.067173675213,-38.40743221085209,-40.47724538655194,-52.53665665305562,-62.48312396595373,-71.99894720826026,-96.02573728178166,-107.79769944037425,-106.73049314279413,-123.96727794035009,-125.92302712103368,-56.26940627510686,162.7906067588798,573.0656410628213,831.2718989357702,481.6117340581006,-156.8408098551429,-358.48980199400324,-175.06304656561414,-110.77552212444867,-155.8442608668616,-107.38868993801282,-62.48067549620421,-82.17064771278956,-75.01007554499964,-48.30850355984036,-43.150963948511944,-30.1252494077511,-9.823437822135272,-9.413396747639993,-15.386200512814046,-12.225247953832984,-9.485027860262825,-12.665096051398464,-19.016952124616438,-26.996053325763583,-31.250109372178745,-27.07511611825256,-18.78153161037227,-11.009103244867482,-2.796160178067148,7.241394538525707,21.143246288591488,38.79306933571128,54.38596240594976,67.71099837116763,83.53720793151756,92.846456153503,79.9464369515518,46.5115255501227,5.4383012225294305,-35.821782409902696,-67.11956075284095,-75.54299884677322,-68.31201811303016,-63.52315660210235,-57.91425698009452,-42.73171029259255,-29.646746497892302,-25.698075283445426,-20.57844130398049,-11.773064963452391,-4.273485426385875,1.6040729239894471,3.6053116985945337,1.345988192155323,-0.1389151348527733,-0.058742493675081775,1.7980307421968433,5.8171981801875,4.726439177966231,-2.272458663442219,-3.7481224278377265,0.5983056550689057,-1.1822628557005892,-10.08588306293937,-16.374799849370497,-16.66649220722356,-14.979279547013828,-12.18677429264147,-7.083022840918915,-3.7758752934400306,-5.4365859018543645,-8.69609143837269,-10.077731348843253,-6.386253270497836,1.6466736732912093,3.239637561898088,-2.3086674580808104,-1.2544502685487764,2.6143070790865828,0.24159020851010027,5.155388341369542,15.016527530051535,6.022134113112928,-9.391820444319041,-5.383520290667535,4.004405935015864,2.558411174959481,-4.9771841988311465,-19.706808502507045,-35.3987912267838,-40.37398669691346,-43.170866291136036,-49.95397960466984,-61.63061896137991,-83.7511550931922,-98.58927848869956,-100.67971909889671,-116.46184085943159,-124.59001446394066,-68.81499977934314,112.51971208723367,463.94689955329744,742.4819585966079,514.1891264219485,-71.57661979419078,-346.54383466387463,-205.10895913235373,-106.22476203758164,-142.89466591680224,-117.10237656399188,-70.7440103025043,-78.0480121677162,-66.1885428813725,-33.338382811829305,-25.244953052523133,-17.687764043012393,-2.616176257678209,-2.6779440757128796,-8.082344804864395,-6.94361070559286,-6.670385509641751,-8.261832317100463,-9.41394631389554,-12.363683327080121,-14.34019799927407,-11.180258769521195,-8.75175881394252,-12.595368991986742,-12.001499861545554,2.1161319987336804,17.465320676662255,25.88249746739637,39.431040920971576,59.40258940635416,71.95707539755803,79.05815009898545,85.62552836494592,74.40783990548138,36.04826576461981,-9.463403595077612,-41.953846082500455,-57.28794387209999,-59.67199349528174,-56.51727366954327,-49.75762516198126,-40.914618268517515,-37.973896565072394,-35.01443054049566,-19.616255666283152,-3.5540691001912563,0.8334687114132038,0.406098840895865,-5.849106640345781,-16.093626269611292,-12.687717822332774,-1.6958744949004156,-3.131967701278638,-6.9581272118218,-2.459299628882416,-3.731117516377793,-12.364132213240842,-13.195832495415475,-7.166463581623653,-6.403314323105976,-9.687126640216267,-6.957618690057718,-0.4859261256847134,-0.1460689318221693,-2.887456585939523,-2.795376737284938,-3.8325871714062103,-4.165417176215124,-0.6846009906112567,-2.413924722068785,-9.409612490601178,-10.442449667855286,-7.31947419040095,-6.173503807767083,-5.713648087804444,-7.650231033323012,-10.590286439684613,-7.286128013356695,-0.014501967206133948,6.222337998930565,14.083921112143617,20.974068210572266,20.57411866326065,16.932625216309813,16.412353357572506,18.667226563585576,18.613025965773463,5.258988659151168,-20.938464584104324,-37.85950169612082,-41.12842425144032,-49.753953392327716,-62.42104250722521,-74.40032753814205,-93.55694457816635,-106.48764904602663,-110.03853966516985,-120.38147269666212,-110.33360124849767,-34.35420901598812,167.15837842599547,516.0954000691939,723.2974542275193,414.6447849520688,-137.25107455435196,-318.8612941256838,-172.0100675579186,-119.56939800934282,-152.90382963261948,-110.4714792513365,-73.19271214253754,-76.12127181536968,-50.57429426560359,-24.730333031666643,-24.537102187012437,-11.50642479738351,7.640645665238832,9.881607642368934,8.825529990136342,7.903961779932339,-0.6852473407513759,-6.529653199990992,-1.6458316301228137,-1.7529485877037825,-22.68578293774351,-46.238367702649484,-42.317746259217785,-19.44709563466112,-6.182580559212301,-1.372706766703732,11.461451339361162,31.19975607920812,51.76638903967814,75.73923704164747,97.84763886077194,103.14611943867146,89.4519161522617,64.76475505638265,29.14205719450544,-13.003766765946107,-45.4683850268404,-63.12695601265325,-71.63429909622228,-70.06985555029898,-58.86348314333455,-43.96027363326491,-29.77722157189704,-21.981360366684633,-18.937622050356353,-9.86128879135279,0.8845529155665783,0.6256247077697061,-4.1480451300360865,-4.232040250416997,-5.129507966971362,-7.547861360862877,-4.486378833491665,1.5860575260039962,3.1668018025142164,0.117341022846011,-3.925173160966983,-6.336853250419354,-2.6637038531130184,5.559641287604517,4.883518833767358,-5.778494088561851,-9.006839466019986,-4.540096042344295,-4.2433736235180355,-1.215044022579118,6.061529861638568,4.772408370946973,1.1958154433299466,2.2808106979635587,-3.2314812653644527,-9.932640301935741,-7.087926064044646,-8.572460240635372,-18.315505265044642,-21.688509327122272,-19.66804938837078,-16.21548321260947,-5.6040398889103,5.301440487949209,6.9092415589091525,6.808115295636432,12.7872686159217,19.572199627971,19.931885776717515,13.772085591615376,2.5270182895422515,-12.866806236648475,-23.29927982659811,-27.350099435929405,-40.583398228773646,-58.54244175850555,-67.70655151194039,-79.78715951709525,-88.59992284311365,-87.48276534535547,-113.22670299519156,-144.50136340539765,-97.11366691905376,79.55435416281776,425.25990400025387,763.9296494922828,624.8688474950388,7.4237027266202915,-380.12502340653646,-261.3398881266305,-116.24806218643138,-144.92551560624702,-127.24395278072407,-69.47423418167566,-70.4876597194375,-60.86512512260216,-30.438936908335194,-28.902096508414317,-25.834814313156553,-9.271028851116633,-4.661255963146829,-2.545336741197346,2.5334100732618836,-1.215861282383532,-10.189138196169488,-16.631433400382154,-18.08419570744511,-17.998719328441645,-22.12199322714014,-23.52529743489876,-17.533851150176723,-12.246589618427134,-3.2795630627223087,19.136417103352002,45.304305933484855,63.47739243560632,75.48674566147331,87.79768394296924,104.8720605100999,114.29697064416925,91.13474403361576,39.18250886136068,-11.546553569904235,-48.66157037879631,-71.61275697112939,-74.38145455241619,-65.94689687642088,-62.11239175788608,-59.16368833397118,-49.98126859522935,-36.99461531686858,-23.216787818104414,-16.04207779436987,-17.217488993990806,-13.455637098420443,-4.593723022967165,-1.467138409940798,4.329240045820388,14.43219252325566,11.326173600679137,3.53532429571957,8.554093754378998,10.006229266813705,-0.37503661560825385,-4.891244428978457,-5.848518393543767,-11.62024382298943,-11.374258324908183,-7.646125531858797,-11.244028112685164,-11.87962611605337,-2.883746125806507,3.0668070914861314,-0.5454914652660428,-3.051930586406714,4.471729967603485,7.1090810194192695,-10.489571887466504,-27.036120930930807,-25.282721415859854,-26.69297549486067,-35.18889345259386,-27.18152678158005,-7.361764681859292,5.824960937828799,14.471282876751799,21.38589687588542,22.554600053905887,17.957833507289067,11.313309253069015,5.879079586381398,-5.032817744717864,-24.70398240656197,-39.72936020256845,-48.766540816733965,-59.95471045683918,-69.92262947506482,-84.79439666341236,-102.59589036554681,-109.70925763118822,-126.54627049275362,-143.84617418011624,-98.2230009673179,48.70626521459752,362.8256819286586,767.2647358963096,782.3202762225272,192.88953418718333,-344.76346479270046,-318.1985201157356,-137.09378520655608,-160.84767788660375,-174.37601121968206,-98.47950349749189,-79.41058769747622,-78.32187993639424,-38.509230029355045,-20.70082671529441,-19.98349017976684,-4.274298098411968,2.4935203102686927,-1.6784096218035494,-1.3438821146058793,-2.7587512610088893,-6.118544310166586,-8.73544514622653,-13.99067679708518,-17.039148013182142,-16.77343328562483,-19.2020169594247,-20.042988462426283,-12.446736960450075,2.021198540004727,20.970460223611195,40.165482723792664,54.00139085142119,67.24472623163177,85.72370882960163,104.11498603119658,117.01003970625612,111.40943490962887,65.44678911214241,-3.2857254401222695,-46.71037398534454,-63.7067550637487,-80.81791771816737,-87.3646656124272,-74.14210593245895,-60.48248522350016,-46.62129239229372,-26.05558463322565,-16.130876476030686,-18.576797706299743,-15.995084294082126,-10.967372958353245,-9.291879801559363,-3.9131930955779364,1.6043228996373742,-0.5296486707202241,-4.7952273037029585,-4.616548330220011,-0.9510249794006764,0.9700417205510625,-2.459790290150613,-5.965316922009734,-5.044757901000523,-4.5409704907325,-5.268542163540932,-1.7018385094692157,4.463446377407655,3.9237823349639385,-7.886268733915436,-19.37075322726242,-14.742872240939814,-3.36204719511829,-6.9036719124065264,-18.744207035028676,-18.001704817228166,-8.48168348780029,-5.045266756630854,-6.402555926926276,-6.632911158419438,-7.50176218223822,-9.566766976390875,-10.547857347581655,-9.661390526490008,-7.806591218542277,-10.418972855936488,-16.61036670145924,-9.909194146492775,11.017405137286522,22.7793053648839,21.925058443126563,22.063916075284496,16.67546435234554,6.047465606205402,6.024722886168249,3.404256818368677,-18.140501626875455,-39.89341676960969,-51.21526022285628,-60.15715994790758,-68.1092221001092,-81.20574550876505,-95.52793869390045,-100.97810831527876,-115.802309932438,-130.8064580641538,-94.51128753398397,42.63515619352344,358.6978513421103,744.4011862179788,728.2396827634516,160.79235882324724,-327.3814747715572,-302.6618310172198,-144.81386916821714,-161.62912920161284,-170.30282669722126,-104.31705476733626,-81.61145048071953,-73.10307331912055,-36.58365568044101,-21.772530272407348,-24.029258559361345,-10.945182225758227,2.997161651830986,6.156658704360574,3.3274368297689065,-1.6221639083222392,-3.961701835813468,-7.049784170372796,-10.659884284204235,-6.146755850027311,-1.891190935052208,-8.069643564328915,-12.862476178589104,-9.826427482406633,-4.081704415143651,9.226038313886372,26.34289828771633,31.220007320841642,32.983198357358475,51.332757109945014,75.45457891445074,86.10061777870396,81.1015901373401,57.4295782090209,15.550711360961834,-23.260777611309408,-42.481318526057265,-52.42203955294103,-63.45494726402258,-66.76457315740768,-58.86757932748142,-50.64118677622079,-41.78536025229984,-27.48954052830968,-20.25901135263213,-21.92810977055121,-13.645048443030188,0.7108383053265506,2.617725301894531,-0.32206446107497655,0.5887211196765705,-4.42619275068764,-10.028230890189015,-3.157114252602833,4.350975349147031,0.18230305508559397,-4.409719646816171,-3.4081688180227765,-7.665325445923472,-15.681928669974033,-13.968475643225847,-7.363665736568059,-8.731344814592351,-11.94967759106426,-9.514336602801654,-6.349348671212574,-1.7631949757248613,3.6621664504833653,-0.11111912186099637,-7.80331826851214,-4.985187024993846,3.8323873649822335,7.869716407200552,3.307121490891616,-11.762170814139802,-26.301967033119016,-25.14003422447039,-16.51943454512006,-14.908546263955833,-15.635534341073473,-13.37187752696393,-12.759144499270747,-9.642306989958087,5.3531240909747995,23.369056832573005,28.221947665239597,25.798379473768588,28.607956250560527,27.874967513538195,14.606495605294752,-4.120027176121113,-23.952666140262664,-42.528578831048804,-56.09656945015597,-67.54253052074449,-75.43431718810866,-81.66352733561183,-94.82466028875761,-104.17339517394987,-111.36496408206034,-133.044791038275,-129.72208679236445,-49.48487584102539,148.29973484163972,501.7364194397371,771.7420734456746,530.2602602435124,-56.61664173075924,-323.8102985984974,-197.21319139149657,-128.5940226304147,-170.9273158739736,-131.952902147202,-79.97856786837528,-81.68468224714823,-60.31628597465386,-26.972257208025585,-22.49392725707094,-13.916068790523198,3.59670472010332,7.631210411273376,5.593243632904635,1.8555659114808627,-7.773411159496067,-16.545512731717846,-18.94614170554502,-16.68418699158613,-15.835404192732943,-19.16060856159281,-18.67534803744289,-11.625874084766359,-6.667672063694104,-3.2625635570860627,7.8725293080005585,26.09378772605612,44.11093145479664,59.43553694145587,72.77948235317393,84.95965388735905,92.83592280443634,84.58894621302508,53.00413063194425,9.16827021288793,-31.536232947431788,-60.17241406755085,-69.81015059389955,-64.93407010002731,-57.27868551575263,-44.993382011992175,-30.676559025182307,-31.18460155160094,-37.80895970701129,-25.842874836082206,-6.945444570296573,-7.712650484971004,-21.871693889150627,-25.895409108787863,-14.236504869673777,-3.939177552402292,-7.139606867793798,-10.512257317969986,-5.340883348127679,-4.095534598933309,-6.129722862558811,-3.202125399464336,-5.498740356352105,-12.161708961608186,-8.316731517954082,-2.23254391766606,-4.530780115738418,-6.288067254673477,-7.234381106518088,-10.265609019091876,-7.458500711311039,-4.396994869422674,-8.159206243613788,-6.471321869573934,-0.3492519300638435,-3.206844943519492,-6.148604925762088,-2.1174600107952095,-3.0719713857823905,-5.905697531440326,-1.4055786629860698,-1.8385260490259014,-12.03455722387508,-17.565280807797183,-16.603836320210746,-12.933028803541825,1.2024691755050645,17.730299947409804,17.16703355473679,9.953409517842811,13.621488375132998,16.17694188448719,9.331823629926092,1.4255937630793127,-11.503591958383353,-31.839901377452527,-49.77910733147502,-63.70235335485563,-75.89136039241856,-91.6872111605432,-113.1473155601,-124.82488333939287,-133.15674905612306,-149.95801597567,-129.56518446215483,-14.785895098035368,261.6067275529801,689.0370540150781,877.0922031433478,431.15205019622505,-219.40425587233182,-368.43935744995395,-176.36218313905582,-143.5218555885461,-184.63960809001964,-114.98356784098686,-74.27839677094042,-94.27015814783914,-70.07334678935194,-36.022240716484745,-29.524655624709062,-10.935195738384497,5.673542518250706,-6.990221397247769,-24.07812471359152,-25.646419340479625,-16.03721869125178,-7.1454627708675424,-11.73268240052489,-23.020237690602503,-24.709724727326833,-21.68547392758924,-22.938705127376647,-19.444265639500646,-8.595842219549592,0.6958087934061058,15.410542637743106,40.45609618650788,57.965555893429986,66.22666779971284,81.93506499355055,95.76012511712982,91.32172011001421,72.64715232614395,38.25406791473141,-9.674321685483479,-46.67833104676471,-65.81022135383539,-80.50274805780586,-83.3561409152814,-67.43123904260051,-52.551981586163876,-47.382610095199766,-38.97792702568899,-27.55925621942346,-20.42608830372587,-11.333708887157535,-1.1798847895574198,-1.584210083388907,-5.506892570457218,-0.547370925440001,3.3844521947677872,0.40908222759027524,1.8196921825098613,4.771129654902847,-1.0610854089722892,-7.722081217147892,-6.667474169084704,-2.5242977159210795,-1.3448670072196496,-5.85062286444604,-10.79946709942313,-8.557588421617446,-4.004448282523343,-1.3415965724276262,2.4328765318373726,0.6086695019021295,-5.5857616004803425,0.07438428546884168,7.202853514330456,-4.039865503755072,-13.186959326909244,-5.278836678540678,-8.526688296950667,-27.587536336872198,-28.735574629843192,-12.034227727673297,-5.424163891754695,-3.5988095812926506,10.552849508536848,24.681650278439097,27.77208087089507,28.070928923565994,22.194917748558197,2.8503652504381414,-17.047341928044553,-27.750921861890582,-36.613694008015344,-49.36732139824328,-63.97883568962055,-77.39718300870572,-93.21347026377191,-111.7006883633299,-122.09865958273299,-131.17219496804836,-144.59238746759996,-123.78272464529611,-9.111502787663483,282.24138079277543,709.5123120442192,850.6006204296516,371.81356526875766,-243.7651200520192,-351.9357488010252,-165.1285730917342,-144.34624407740733,-184.5754444269431,-122.9116507914282,-87.04339364261966,-93.66431801260529,-58.54393558716393,-25.298722018943252,-21.053926081220343,-7.896873576028277,1.518911396695101,-4.919883211496682,-2.9174149743755535,5.459780950303687,3.1882529015472265,-5.984636719846785,-11.590916566477437,-13.626145116930045,-19.37921069752552,-24.834099619556945,-19.323845982076396,-10.514525448417128,-6.30166868468465,5.4082875066147205,26.925585627257043,46.188593549020645,63.95353222384756,81.78089510591758,92.42847599957749,98.47712652519594,96.63293874855995,67.58883329959768,17.9490803697937,-22.706982854436156,-53.164462670376494,-82.84144340262216,-94.57417694938837,-81.22758815028489,-64.81913207114792,-55.58040400207486,-46.48473277572073,-35.81019223951328,-22.964096390154882,-10.158355495364383,-4.576755250215182,-1.5934781067783383,5.8806306921546,11.885488099555515,14.241408656833931,13.299813881811684,1.0950851115699933,-15.880804888583434,-19.836659321747057,-14.150743376733883,-11.291532782206632,-11.28079659679961,-12.291265007581824,-12.554863042790531,-9.125020880650142,-6.0004887550613795,-5.433466860494068,-3.5621667201288183,-1.448347772009205,-2.5012810130836804,-7.0015429839105465,-12.233546592390569,-11.78331433163445,-6.934720266554075,-6.979713521782259,-10.039894462210004,-9.761923552781223,-9.553222295440587,-10.423457266918556,-9.611186793128633,-9.880584892972255,-11.102045634068721,-6.861917236978437,5.140165469689101,17.5236834598159,21.793364049063655,20.8570162567761,18.23360089587121,10.876238918660455,5.703557539458665,3.520015170079578,-11.84795983935323,-33.66667904942757,-44.46205794814529,-53.77702562695097,-67.37791229965669,-80.90339944665816,-97.12043552764973,-107.83777562015169,-115.29766510101038,-126.99863723125053,-104.64247562502257,16.57507311617283,306.3783185994069,686.3810062244191,744.2351072498146,248.13745803535124,-278.61548617990104,-316.88261081952345,-152.7159903435986,-151.9945027509605,-167.36989142742277,-101.90406155610027,-81.60815501538522,-83.09956912589307,-45.4052757849627,-24.732413058337173,-22.658929965377258,-3.536150644151334,6.500451124700843,0.5588768579388592,2.426611685057747,6.856200108487871,6.126221052596256,6.7435388781450145,4.683834765295817,-8.88038660479101,-27.347773695426017,-33.534572837854796,-25.509751775295527,-16.913143878304062,-9.662668543329861,1.4082669272115185,13.33491885357887,27.75662669264267,46.7269967911831,62.69079877401002,76.62323624394617,92.24630650289166,94.1683234642502,69.12167466684213,26.779513022919357,-17.470052757088904,-53.79256536303531,-74.76099265828036,-78.64145248923816,-70.93646812853271,-59.147024494280274,-47.53846726733771,-37.52224275915802,-30.666119327430692,-25.032638920516604,-16.17247408968974,-7.126309396862215,-3.6583661393455884,-3.3721733800891833,-2.599769129039192,-1.9366749156865737,-0.6991885231261286,1.434445964633813,1.4357175255938515,-1.5031474976492998,-3.485561839306145,-2.24012020781327,-1.9372241791435663,-5.794131664127807,-8.937740900053644,-8.421921789805921,-8.085810816828367,-6.114128072521115,0.6085560587246306,1.6363463615168818,-10.80001135488193,-22.447356940090902,-19.580253582262355,-12.276299172776127,-12.679469011875371,-14.153904315825123,-11.342189004792816,-11.365159697026222,-14.164386659947755,-12.83187779970507,-8.910806963134629,-6.654451466176242,-7.5744758999631046,-7.866256189409366,3.6924162664131375,21.97599314302552,26.108854532889325,19.339979886763764,16.51217956556801,14.137851777517069,11.242070077158553,6.751444197033989,-9.290190228549086,-27.760364147698496,-40.500747458360024,-57.637473269671894,-71.52809990768031,-76.9553980812089,-85.50929751346196,-92.93433827587228,-109.60140101100411,-140.93597419848254,-128.23125459194006,-9.109612565422793,265.91908116747584,637.7829174818994,727.6591184370591,277.5559701612107,-242.57335285747183,-304.05939321821074,-144.01778274160503,-131.85760328941427,-155.5275818294653,-106.23183545666686,-83.2435167525782,-77.59483162283075,-41.72502983493708,-20.660764373613503,-19.021635839398016,-8.856699156029585,-2.698358833977979,-0.4823172918815519,7.385772302194962,6.553856948209688,-2.8556516879761666,-4.273324622647387,-3.4850371427648685,-13.242318208808655,-22.757232570967705,-20.676376764244026,-17.715555197702088,-16.32058404088867,-1.4162546634142839,22.305834252828415,35.48320349765671,37.47535551156608,39.26027484103993,48.81570080197411,66.5114910305854,80.85922279082529,83.07166856426034,68.51832801230358,28.84167180289524,-20.376827381222206,-47.39560585570213,-55.64815853826453,-62.4838973748123,-61.591969734663294,-55.11760377896513,-53.74857863075631,-46.09965855870586,-28.88013535609835,-18.92335496282554,-15.680787047685453,-10.202852520516267,-7.086998574267511,-5.152031667393452,0.5574765098276018,1.5906785582625709,-4.897357812005964,-8.106379351951777,-7.261027063699343,-8.557104380672413,-7.284315913352977,-2.7447881269485794,-4.625944844455489,-10.103296826305586,-10.472645898693766,-9.21910365296139,-5.789226519427508,2.8197069881711965,5.558868993784172,-0.29360947299346307,-3.217389990841321,-1.4471654974155381,3.6314544680620493,6.548843808776859,-9.597133789313212,-35.019042655077726,-37.95702342126064,-23.859230867262433,-18.146222021715836,-18.342733215282216,-13.292110444437402,-2.677065083643825,10.68203516350257,20.573326370720398,23.470744261052836,20.890993926066855,14.99728318929597,11.063628145613041,3.486219062682302,-18.209131639270566,-37.92709161399071,-44.11158609525131,-55.426139425400194,-72.43145329777522,-83.65456694043978,-94.77060346823,-100.14159293343684,-108.1617375488087,-137.49263714873382,-140.2630602073562,-51.67111976156423,181.84213672216487,572.5068598986641,807.0935712451138,466.70347665336544,-156.11031297639266,-363.628157154093,-189.03829770211735,-122.42191404542406,-168.04075538968314,-128.65384389527532,-81.52937811771474,-79.9373757800846,-57.141212312839926,-29.124372922070037,-20.097213308044026,-8.14041689202088,-0.550122980460916,0.35324303368436105,4.460866008508717,-1.121897920243427,-12.272482381760815,-13.531759125700118,-16.645818602754126,-26.00604700107632,-27.580777235028183,-24.9321212796507,-26.628484067153373,-24.095008696017022,-12.735892293555764,1.742795614134764,20.49165187463562,42.424802481460205,56.87886639730024,66.25586635435062,83.17520249261922,101.9441617469735,105.20531232713392,84.9342885000804,43.11968529905247,-6.696067165221079,-43.85128611132592,-59.138623696296435,-60.38869544171945,-61.729198413876915,-66.43500608925955,-60.99874592822553,-40.135640916827185,-20.83300402291391,-15.723791839287713,-20.179202450892294,-28.441440590389924,-35.53284932293286,-33.541178748033126,-23.81467991229005,-16.509705256594998,-12.131917290525237,-5.860823331512364,-3.331939902795785,-4.854082708306528,0.4845519798201323,6.726117323579857,2.4855243202971984,-1.9335489542832782,-4.3466283804522305,-15.852439060529267,-23.37449627889056,-16.43794553291822,-14.337516861483131,-21.042297253628888,-21.100270416060248,-16.391380771694426,-13.318010838064204,-13.496395769625614,-20.76587804810743,-23.1586290168891,-8.18103601379077,9.781604295489338,19.09035499316142,24.159577494367277,23.52076974091009,19.3265293971965,19.735939937373487,19.50985594809376,7.837551117576037,-16.694679621187525,-41.75966079128406,-52.552580747541015,-56.278794108488036,-66.87675827354332,-83.57412722008795,-103.90277533547759,-116.78461731930372,-120.11155425158972,-137.77985976074862,-148.192113403166,-87.94920473209743,105.08587682107446,492.1254140990742,857.2017665517527,685.6672858584102,19.014712516100957,-378.4871662754741,-255.37560688010302,-131.56371103281418,-183.27335114683916,-158.0245747708386,-80.86431347193763,-77.63448702602322,-68.1334285476333,-25.24283765691267,-8.371489956429947,3.4014769134697467,26.13832787847415,22.3357847014407,-10.385716045284944,-37.09745661532342,-39.28584871567324,-31.437338839288998,-31.947897226522027,-35.39924529996787,-34.73510098296656,-31.482344413327827,-22.300733956303496,-12.27005508072629,-7.324267440649136,3.0274633871324377,20.720446610229075,38.67109182366673,58.76089107883473,71.9275142443166,70.7647537902085,75.12322671220555,86.50382494154519,75.98618755580378,42.27790990062461,3.74101868030066,-36.47773157598841,-64.94718598000962,-68.25217912903139,-65.97043250567882,-67.43562675821201,-55.326199876341704,-37.167951845307186,-30.98851519537518,-25.36772865850036,-10.875431113860857,3.0989296827855313,10.279377888519441,5.756172729330226,-6.285393647051627,-7.708114506236399,-1.7740853548593307,-5.9811400068903104,-11.793887852729032,-9.327530675815787,-9.49927431592289,-12.006801491907893,-8.229126876238423,-3.378422897968644,-1.6199556656244916,-3.1450544395762385,-9.681535065215716,-13.21390400765731,-8.963583341093257,-6.203105180149564,-8.008360872625133,-11.941139818272669,-17.894078382631484,-18.72793496568974,-13.344566160810635,-10.206120768173447,-3.4570067954680628,10.764967089781196,16.86863539708878,15.33550632953306,21.700396985187158,27.216326084244123,20.745871674407802,12.797582045232156,1.0552480935928017,-23.074832178595205,-41.44595425750559,-46.704028480673756,-57.69579088478919,-73.63519486595871,-85.73717836178118,-97.1273173067187,-101.09568475579843,-105.02249865622049,-121.87475755764764,-117.60297952501786,-28.31629771948488,238.66977062382975,658.4112359050584,817.5809562237621,364.79294980001464,-244.59249041646436,-362.9614070798094,-175.75870693157273,-142.21494191790367,-176.75423796240787,-117.09212487216118,-81.4704789899017,-88.49714589725617,-55.09933624308174,-21.80960068318004,-17.31283234737705,-5.829719138446288,1.8589568412844724,-1.7010097775556936,5.880970475909859,10.44366970469114,-4.068503437703654,-17.656335795873773,-20.08404457899179,-20.68118169152801,-22.96891865583516,-24.247794818086582,-19.92886107566728,-10.444333651239848,-2.9171173311320904,5.571862198272889,23.43227367531304,45.18293448249974,61.7092910769801,73.30204378011167,83.72686964911246,92.98613881704516,88.84591815593683,59.725646236821966,19.704431460439586,-14.792472587312531,-47.690738504431735,-71.80702171405385,-71.92075843947802,-60.109922567619265,-51.29160019896481,-41.39388511697577,-33.11670196477937,-28.95147000205589,-17.157186424549085,-0.21900281347754813,5.911608108216303,1.9673464081120962,-3.4222190779664423,-8.327340206276535,-7.419340733800986,1.8790827667448333,7.5914925476892,3.0009813284995985,-0.08079143278575529,3.1854217926634796,2.1414540636971218,-2.489541888456184,-2.8998278908523663,-6.340212376846411,-14.615417125573154,-13.520054117614794,-3.4114036937840755,0.7304437586970476,-4.245772324273556,-11.133951349884951,-14.051877841274045,-11.34909002712564,-6.091677675667313,-4.58601079468955,-14.001353111542102,-29.106483609540483,-31.591054436399396,-21.495499951671068,-12.881100638300655,-0.5274340899099297,15.952281071139113,18.435647960022116,13.778625632251506,17.437822303106582,14.451462646070336,1.6893019463934635,-3.3888435703294473,-11.090132712179113,-31.809505867911177,-46.74847919119087,-52.38030057702767,-60.31354461196388,-70.88239431820679,-86.9936806284395,-103.05917414232702,-110.37107456519374,-122.5138762088538,-127.84068823782783,-77.12922884684433,92.17414879370668,433.2651233849699,752.0031413790624,610.5648286960784,38.86046675544994,-323.4785913600636,-239.47199713397526,-126.31743615746758,-156.52298382938181,-138.66217632942383,-81.15569736575854,-79.54495982125437,-69.47910031628118,-32.641199289863906,-22.243473443409755,-17.04924849267288,1.2766193444758418,4.275463483214457,-4.344773768394731,-5.715119608822439,-4.376396486196002,-6.134194395205203,-10.712730806624378,-15.031442185637898,-15.409275816784817,-15.835987555037729,-16.612397826357505,-11.188893099811793,-2.9216565759240187,4.978966327844647,19.010667312467138,36.81432522166331,52.39704681361086,69.33258250262122,83.5689521708307,86.81448519376042,84.14582638680383,75.15843954331629,47.92878090328019,3.1968753728268773,-45.636065237123695,-80.51282272576235,-84.888506572483,-69.21004149183747,-60.18590162055476,-56.34124669881452,-42.14557291563825,-25.275901426676697,-17.25791350728184,-13.120245907284811,-9.081358007265916,-6.482118775669315,-2.305789973653088,2.1910650767815945,0.4365336456806226,-3.741961978247394,-2.307830775653155,-0.5435930719796929,-4.26869119926749,-5.689428239170439,-0.46420503497284926,4.194339375925985,3.2705994378192376,-2.3107768322645725,-6.813140757054617,-4.590875062369337,-3.6887708005209454,-12.471797473052874,-18.096469306044597,-11.774534209558098,-8.238474160957919,-12.828827025868208,-11.896319008590384,-6.044924691926088,-8.100414844127195,-15.038421794981979,-17.136401829908234,-15.934191811135882,-13.56728100636315,-8.785545197294343,-5.7635251997949695,-5.445640090807325,-0.16095859023084724,11.550063360043275,20.269912516505176,18.932509820468205,13.475768688452742,15.037320793715033,19.47807579193606,11.919899158171113,-6.501821238248294,-22.648494988227238,-35.84937734718225,-51.624344419951406,-63.064552587904615,-65.83687540164658,-73.80136622376965,-90.58804517367813,-103.32632962076133,-114.3163302046466,-119.80934191021093,-92.84826183495524,9.802381099584636,275.20306864904643,640.9853486317439,696.9325668058967,234.66164992456908,-239.0471861816544,-267.16227751209874,-128.68618025697447,-136.09451369156994,-146.10672581370295,-84.5155454410284,-68.0246800771359,-69.4169516566577,-38.64091815880076,-35.2301542760523,-49.62858126849728,-28.701292125970888,-3.7802604144618783,-4.590203723749674,-6.803197318043651,-3.9770097015151826,-8.679816681337176,-14.835219899697128,-13.740253541933312,-11.109034314683107,-16.54883334913466,-27.221675615391725,-24.777699323590706,-6.180442627277046,4.256456134407175,6.181319382909598,26.378057917984755,51.05679017951171,50.73819510803347,51.65102176387765,79.59388323413467,98.12514943612166,79.3920288697927,49.69169586713494,24.781798953110847,-11.949437485740887,-49.5228477753114,-57.029407235000036,-52.209035235358826,-64.39567203921344,-65.9115361179575,-39.40668372587258,-23.240423106140188,-25.716443625300936,-17.23091906156257,-4.479132991087221,-4.371498337573893,-3.400502889265212,3.11966284837926,2.129255565884053,-5.133166627653129,-7.6126553542209265,-3.4202180504263264,2.866376868358742,9.584237979216518,14.958873221924264,12.86908781889369,5.218980950354055,0.9958119523555631,-3.876908658379005,-15.466202156259698,-23.793267430844928,-23.44031683437392,-22.026389349286667,-20.629809601510456,-15.502325975261947,-9.630827129246093,-9.561733499317924,-17.411779942317988,-23.843605163657166,-19.664961320677094,-11.645816908210149,-5.457269333750219,2.32996032233377,6.414042257991728,5.419851348629399,9.603764694716645,14.550690961898681,13.875935232628974,14.26883025953249,4.313922863620224,-23.03749538384305,-36.71727266212605,-29.8601317121486,-35.67106759942569,-59.06907151878494,-85.76923388113666,-107.44988049280268,-110.64319056058162,-113.75795720101317,-134.16390510096832,-119.93770428197787,-15.51280545968369,227.65573716725066,589.9991914462962,735.0585685406645,340.2207046263975,-215.7104600687026,-338.9837105155822,-168.68907285622393,-128.90925683887292,-161.93820058708963,-109.48443967085662,-71.47643464384191,-81.17379955045652,-58.413175408719006,-21.978076311353846,-11.019387325655217,-6.526002585187044,-4.9447733083259635,-10.769338310978306,-10.577115448980777,-5.636434019900676,-7.793747101740621,-14.22006796871879,-16.316512585595394,-14.259420591199078,-12.609144440486617,-13.290277758749705,-12.292390136395962,-0.10216940390442697,14.01817579751298,8.184159793253702,9.863484816549239,49.09591542582127,67.9499658750628,46.35133757807384,67.77687223355078,115.59410418630473,99.556055837813,63.28596572420473,43.11829172746529,-21.643621824771134,-81.26908780318803,-72.06455569618286,-79.80326304443456,-104.41430961520814,-55.89660262068702,-15.182852392081582,-55.198102896556634,-58.86779207173309,4.493221916299795,20.771262494048713,-11.870638095371273,-16.966646122616027,-2.617467265152545,-0.4677263297848704,0.7808098666840557,15.247534329020137,33.63252075287436,28.62687568210845,2.0230682454118067,-5.268590659429609,2.931912720991086,-5.988144437560987,-12.66724917648147,-16.85102622205348,-46.51538136553736,-48.04809036409156,3.910842323217114,10.738004356598417,-43.959549498935914,-57.74191147857243,-21.442346928545888,5.217729108574398,19.837905157163686,26.071611961368617,11.816002867093623,-6.542235922138197,-5.639151888390738,16.42383661282022,32.358891733174744,10.592805976333107,-27.72269716312023,-41.158321266646034,-41.927005120996796,-59.57435760258514,-87.4601490819343,-102.99316397217126,-89.54672990851515,-64.36071238180304,-81.49992556424839,-131.3453046858937,-128.78265311806533,-46.17381384239876,141.76203787296262,489.1341544039296,745.3014846607156,491.59200579287403,-75.54083765732585,-320.793684106424,-199.19176223604185,-130.54905441145706,-162.21683151321827,-129.42256141720307,-85.46259684585391,-77.70887456948174,-48.43452187698984,-16.0812541926507,-9.986359100174916,-5.881457592232447,-7.981771632702966,-18.569607897615864,-12.635845292098878,0.47378486329805014,-3.7572811111068347,-17.908794289542286,-18.993306798154244,-5.124879808471471,-11.950430312886787,-45.64032621932061,-39.876217798162486,13.361095437511235,25.50809611871697,-6.667536813012051,-0.19002925483160737,38.560406841519004,59.375061044135116,76.17912683234701,99.82637972049541,113.3114843250457,112.53831398917498,85.86927015216249,38.67169517521691,6.485391688472277,-24.93410279195716,-83.27546359281703,-114.9973383205261,-84.83176252771136,-57.80011926007915,-67.56389293865902,-64.63041260836049,-38.69553083500371,-28.8030205054963,-28.725564209442375,-11.702275326037658,6.019865442904532,5.709201848691315,0.659393959402788,-0.1414836507019075,-3.0018568179536125,-6.889364123144709,-5.846844009703762,-2.577430207026449,-4.999338087105357,-11.229040160047113,-8.13628055687698,2.051949936526391,-3.4394594993710506,-22.91656711151631,-23.734079914428612,-6.064098778983642,-6.608993134368834,-21.437744581791534,-12.792604035660485,7.804524050595923,3.2376311377278295,-9.062687574594383,3.081111893274496,18.545319985160262,11.701947043533439,2.6038498168900652,5.286066558520638,-3.9618480722056653,-28.36460979941821,-33.69540120618753,-22.666104222900096,-35.9703145117265,-61.31079206231806,-62.908186166413,-66.46478896882414,-84.19922767805573,-82.77719261851131,-88.50879177802082,-120.62052432136899,-102.25484254058327,13.437707354160779,238.23489630611934,537.012616761141,612.302778493463,232.2267926625392,-217.8119112227853,-279.86844991344196,-142.678930950027,-117.76401918463783,-122.55669769755154,-78.61541699931581,-62.52493141116715,-51.3441434617592,-13.448185966239464,-4.3095319381528014,-17.61608139109085,-7.461509744470154,11.132945304892278,17.041999631528874,13.752624724957895,-0.9179178291988741,-21.324504337088992,-31.379852555238777,-30.14465841309266,-28.35421895009966,-30.850325038435024,-34.83101375507595,-33.49108683254546,-21.299046844970288,-3.194171453245996,10.366111148072287,20.62053720232648,36.2755695361377,55.18261871173834,69.70628441922904,82.12739183383754,94.96839330480583,93.57467806463438,61.700513541310144,11.920129528041137,-26.878698783761877,-46.20196834898259,-53.34785778341555,-50.70205099000471,-45.69658258147783,-50.09419475752779,-55.88607131665673,-46.10139817386283,-25.843935407220492,-11.054319489697964,-4.0550581075344745,-3.484386174220795,-9.80059793844693,-11.750354550566982,-3.40322448959407,-1.6645382846332026,-11.119946884607305,-10.76318666354977,0.7198724351836958,3.6023827387034526,0.030935955942220872,0.8634754722032802,-3.2855675273887144,-16.013899663111566,-20.370656101030985,-11.027005330990676,-4.355249426441166,-9.412569981407492,-16.30451559758017,-17.879717860153633,-18.960070931856553,-16.770666954268684,-0.2937710106520477,22.33011573338593,26.775256646196492,10.858828505721922,0.36461022259316067,7.222490628584945,13.678196056259655,10.327164704970214,7.709684111583616,2.395849049028712,-16.173296594540673,-33.388910731079335,-35.72713425245041,-41.2716699606987,-59.03640175918012,-63.740995479022025,-53.96871023856282,-64.02851220441178,-87.08825703361799,-94.4307335470949,-104.25407043741691,-110.99538029048833,-56.62597530009356,100.46887402924031,390.99723925837657,675.6116169512912,562.3923493091438,16.407289957360632,-367.15983414734615,-289.9652278623171,-143.04379206217243,-146.3175853727653,-122.01042127874072,-61.487809907488234,-57.09308865572109,-42.222053489845365,-6.253986596390373,-9.187883734740485,-11.285797052025021,7.4954837364430915,3.0180751396023844,-7.957624118070978,-4.120852240904334,-9.44150934121026,-12.502980172718456,-6.330836372534286,-25.800556435568264,-52.31471328789876,-42.16646725751642,-20.951877948667455,-13.502190387100796,-1.6815281637798454,6.675737472106395,3.6081806474046267,17.019959850591768,45.30283273002157,62.080831236662476,75.89332093671644,96.565956058293,103.06663552928521,82.8345162161309,46.10241415553885,6.57387218379916,-25.722353034086495,-50.10201124618612,-70.63216093778193,-80.3853632776433,-73.18885683536365,-59.01428340788175,-43.41407835340048,-25.04571317082554,-18.20652995738793,-24.659315935135396,-15.063314764184417,9.270866079751059,8.96161710497239,-13.564324988787245,-18.515460799655678,-3.142348221383857,5.10336919952573,0.9028016593204722,-0.35246334589496264,4.6534876245154635,3.128705022960398,-8.212581166882982,-15.8198991891729,-10.835375292078345,-1.8849946041649375,-3.9902968723788987,-13.393257059527647,-10.416835128717448,-2.67103215130307,-13.178683411148878,-24.19412532010054,-11.777061621308743,5.298514135251077,13.598004326513431,23.03022240055996,30.4727298267447,33.19065009669542,32.52064327636328,18.439470510950787,2.5222793329860274,4.852707552269903,0.10222626177407435,-34.0006296258871,-60.90145336447084,-53.647950529270744,-44.41060417477068,-55.27502395675686,-62.94974398311901,-64.21726126341727,-82.28449654316563,-106.73763775078778,-120.04416243445328,-126.41405215395713,-104.40173604751587,-3.571552282451435,235.92101406099584,567.8792689659962,662.8978668884456,271.2474649478813,-224.49580053777703,-320.14261045020584,-172.53932201221792,-129.5868763407415,-126.27239474240196,-72.4200536663191,-63.444882367222874,-74.07521609941989,-33.593830565636246,-3.461316981625899,-16.759043030311624,-21.003923545859095,1.6797372796547698,11.519097893016598,-18.18797335140612,-35.40739451618621,3.9765046057361317,23.430487146954437,-21.14441841020942,-39.80507822603504,-9.779794325134311,-6.673927389802856,-24.586201135408686,-20.835653052695328,-10.79428486333651,3.041774974152875,27.323702535011243,39.830904683112536,50.04707210610509,78.04062364716862,97.00467702841588,94.73593680011437,88.74841396280185,66.3657602929039,20.48515706524132,-17.19033819371093,-40.105818372566674,-67.02089222075477,-80.40412935903697,-62.05633866581137,-43.47576882373918,-46.239923155105274,-44.137381536312716,-24.860515167088387,-9.195242077230391,-3.0323011690664483,5.1288061674099605,16.16003849651414,19.50911061132671,6.475817555298931,-12.032749180679298,-14.798240448337994,-5.984892071789311,-0.8166533066785924,2.531645044750011,-2.7881006615964523,-25.024965179589564,-37.21777611237159,-21.12462484215542,-5.471327945792275,-11.712173822443688,-23.44259303380406,-21.62593492880333,-8.7021569178869,-0.9912808454458322,-2.610246819281082,-1.8369320895516346,-2.194178858957594,-11.238364288672667,-11.424306483794545,0.7353029897700285,-2.063116828181535,-18.548594559388167,-17.01924655445027,4.053305543906216,20.034901799591122,23.878854978333784,23.83358047986618,23.033367637432292,21.04182154431532,16.672347267470485,6.4669069271641675,-8.185121503921522,-22.16588558989332,-34.210421310632334,-42.519757659763464,-49.70503096258449,-62.016151960051246,-69.92096459574506,-72.21609789169375,-88.92541174812735,-108.11854070529944,-109.24940173342262,-111.23974201856016,-101.98704093787356,-22.625042735051352,178.6493003654503,493.4922685280161,676.0694086214867,405.4960755382597,-101.3584635637105,-293.95245675219496,-183.93108516338708,-147.68811345057912,-166.66386720674714,-98.16185896407677,-56.910082045119395,-72.5702416270578,-42.794414720041615,-8.240425104908972,-18.488787846029766,-13.458378928464082,13.19586806187231,18.32963583409128,9.968918429906807,1.736959659287212,-12.106059422281033,-21.283073258475348,-18.355249007103044,-18.27694274568204,-27.17950472883873,-28.843322529272676,-17.108446448145088,-6.2053606080991335,-1.644474098548038,0.9859489621557662,1.0075980545929932,6.87807530258046,29.045584817489978,52.86959225906409,61.44922621053709,63.70292698490752,68.83146037694706,64.07802787858748,36.46138725118707,-3.2371989477554877,-34.621352192553644,-53.72057493136978,-63.2600695811186,-60.155887315684765,-51.149230196115695,-44.03148199961085,-31.72650866657984,-17.093374278975176,-11.642397328827258,-7.78886984214504,-0.8623766232939971,-0.6276155450499363,-1.9720761078997953,0.8754408096173805,-2.368963748831412,-6.977623499890509,-1.6711107814731765,1.396987601366238,-4.634740846085343,-7.549067771016036,-7.691655352155715,-9.65163258840481,-4.159341670728821,4.688779786931779,0.7668258792507672,-8.620800890432179,-9.408331357293353,-8.618345783589765,-9.027573090089124,-2.5949395486846214,0.7446308826432109,-8.547465551261825,-12.08407860195609,-0.9664545971885694,2.2257536575249564,-8.620386465420896,-11.107347985883806,-6.883303916578978,-14.154752700109658,-13.369256912330396,12.432806251196379,27.415541979714938,16.51423403222072,11.718694749206403,10.156110333313867,-0.6337904691270992,4.548769140669316,5.0878076568353485,-35.051335470411004,-57.21117250398021,-32.10873406475885,-37.634513621947235,-72.80360485248607,-68.36154700431035,-62.80004129046113,-92.11775931772158,-105.23428228854975,-111.89360907007755,-125.75842088369143,-75.89844527139243,61.046999499578774,310.9744631444313,654.7302430856748,718.5066296000035,230.04517888606736,-305.53532757855174,-348.0258069819463,-170.85522041101785,-148.9888664453847,-156.16243875386405,-92.68965889187449,-63.550026155576035,-54.99029814672057,-21.085169500864957,-4.947389452614523,-10.49183247107328,-15.010024378029115,-20.31185997205251,-15.86500709537313,-8.520196994251378,-17.778007635518186,-24.00200549761638,-16.83328367176147,-19.790088580957395,-30.168069658281535,-30.28060011224912,-27.867113506868126,-26.096114173017433,-15.6424800546968,-2.7763832814781466,8.783995247644638,28.35262091480432,50.07499211023662,64.39691684159638,77.81297965669381,89.54416000207513,92.52311900124137,88.8284103948616,70.09816981581386,27.48752059185812,-19.204660035733603,-49.23798185866503,-64.3650847643581,-67.7755905127344,-61.59964936713068,-54.44709663778596,-49.46954526529641,-41.79842199521694,-29.277292931094628,-18.038242567014525,-13.31943414175515,-8.438869149459816,0.0970499803392979,4.888556881358797,7.98978082353309,12.175959159358264,7.5232504188006635,-1.8121735877221052,-2.782299552502483,-1.9003611292731115,-3.2535725667958832,-0.2517158768295289,0.29191011865004945,-3.439015992971256,0.9265126190869255,7.574830597893364,3.5805665421235533,-2.14786471366902,-0.11192266095573622,0.8645650407017236,-9.77699628320758,-27.426495244329686,-34.834603012881054,-25.796286046779212,-15.608417757520805,-12.758368707827731,-5.387263252988589,10.631511360122007,20.840404328348264,18.914065223383563,15.300935737446883,11.484513581894209,-0.73722849052462,-10.409905995216993,-3.7008284258548247,-0.29803303146825755,-18.920479478766786,-36.03823241590683,-34.5136392166243,-39.71008645503194,-58.22408426393103,-63.276998968764545,-64.884385459306,-83.78844663455888,-95.06475480237636,-97.75159962658851,-111.96618120463074,-93.73196607073669,6.808277558388454,229.08691641559267,567.0921081464642,711.6631526696773,327.4335282469059,-231.99651801924318,-359.03165685810563,-179.21224856816212,-124.35265138926312,-140.16911597315533,-78.60865305568751,-44.1255719206635,-52.75661683715694,-32.091390498940456,-18.25988718648113,-22.102311121228063,-5.6456041094833385,6.469773227362434,-1.6974684062016152,-4.171019018715569,-3.0470081354574496,-8.781681891615907,-12.661175721380118,-13.39167080732732,-16.53174496071844,-22.392607895737527,-26.69558187298162,-23.52071493674341,-13.799059390581075,-2.2975904838246786,9.810939995832296,21.921630611630007,36.297271898230235,55.37929136360011,74.82536515888108,91.56251516121606,102.60122178444838,99.23322779952946,79.73087013112598,48.34858657072199,8.702169300188837,-27.030226676401035,-52.21278921890803,-73.76835583461533,-84.06511282260622,-73.22577513401251,-56.85807141152971,-44.47036702654956,-30.45759862397829,-24.09323282438538,-27.43748881957118,-21.355092547634605,-7.431402987104292,-4.021699240693973,-7.7356888357820885,-7.646059556457807,-5.6500753331883296,-2.5905882103953495,2.8203224172576267,4.607868911733755,-0.046926391843054915,-4.016916407781968,-3.4373496329846596,-3.3266604777561355,-6.778486670829167,-11.468117114155387,-14.764970525018017,-14.38903282797587,-11.098901010853226,-8.97747644054938,-7.556317324724024,-5.08647725884051,-4.7976877008531815,-5.832397381021977,-3.34197028916795,1.1313272152214289,3.197017973978756,-0.9419129466804641,-12.0505192045685,-19.785709303210467,-16.915568088035982,-12.81937451479774,-12.463123122940964,-11.354057981590472,-11.549119282964924,-10.222921259664673,1.0088382108194462,13.7712796123302,17.6870356745869,18.240257417650376,16.994438316452612,11.515973374355337,9.854433033865984,12.267749485614605,3.678139307549955,-17.50943365666175,-32.29956037708878,-35.87207686322248,-45.243416615815875,-57.81632195816353,-60.25191465031448,-69.81099858761824,-88.81113667642828,-92.53124601565763,-98.83779234781301,-113.39053786341275,-77.04959353166632,57.93460714682732,335.308401966715,665.6200548440804,651.144018172049,137.55682043225636,-318.7636523761824,-298.74792943663687,-142.6991481686074,-147.50066396965843,-147.02166346154883,-81.15087421844127,-61.55930277805198,-56.50047128049446,-25.250494564398515,-12.116273594896924,-7.761976489799455,11.572539336043564,18.64704074604181,0.5691097229939395,-22.323337908171993,-29.20964350859294,-20.72309330309313,-17.626598603127213,-23.732425499746352,-24.917280512171686,-24.05386947139943,-26.772918060731563,-22.596149733021583,-8.904223529984698,4.413108042062452,14.674320811215033,26.024859144753297,41.35375202707121,60.0016065367337,75.09046066873984,82.2901650787004,87.36583237189097,88.93863114099968,71.97178230076524,32.81286618842966,-13.328706781447888,-51.04868170451759,-72.500321938573,-78.30620627326978,-74.89928656004622,-63.878484947648275,-47.29221496258283,-34.1958340194361,-25.69531113463849,-16.079339312669276,-7.844233284889668,-2.961757219263319,0.8005469009248571,-0.6198782652180164,-6.844781514535374,-7.848605431107202,-3.7006687017031403,-4.042757165261818,-8.70617648343206,-9.90030957577109,-7.119830327716887,-6.990826960215131,-9.779416769741303,-7.651758220870732,-1.1111093610703122,-0.04883132581220195,-6.013688272444767,-12.944301248006614,-16.639511630237752,-12.643996966513404,-3.4025331141800805,-0.026989896930620816,-1.8704091780798002,-0.9177235586626864,-3.8130165724230807,-14.556131308582446,-19.196945444624774,-14.165965252735766,-12.336929047908011,-14.090671430129822,-11.086477055593672,-7.347053916192603,-7.196386134146593,-4.655270541296179,-0.4898559868645975,-1.9702081713495652,-4.074456026992397,-1.4958158238706005,-5.992702872153245,-20.653191627638808,-23.78431854737305,-5.331352672857113,13.42376828657169,14.316636923206579,7.501696598558108,9.31915795956574,15.234911784533722,13.404899332836527,5.972470807705008,-7.342100243520129,-29.710328651285074,-42.601809030626,-40.459961826530375,-49.97586961726114,-68.04014340108992,-75.84156464699791,-88.55179880123401,-100.81577108183332,-100.53699349356799,-116.6768310310708,-122.48077012470824,-41.76250527079243,163.03886250679005,502.3932421710966,757.5992842826298,512.4085594522761,-98.51106319196,-389.6102965243083,-241.98976894814496,-135.6316069474704,-160.26383238811172,-112.16151701948246,-56.43353723775058,-65.17584783975062,-48.510961365924146,-13.822765919004194,-10.8517924952314,-8.194276984546955,2.971955432794628,6.545202644511172,7.969465250813304,1.666634997254528,-10.304275251468843,-11.550171751685557,-10.47088475145042,-17.976714889754017,-23.761188791294465,-22.328515883104426,-17.180766466452365,-10.530191856233515,-8.512294575818922,-11.035791480021452,-2.0906826433465575,23.7198401819172,48.700997838189636,65.46462489587147,82.59722516011877,97.21432502606402,105.64204586648037,107.87590730452357,83.28776258653599,24.08239096118802,-33.206795757576955,-63.91630971632952,-79.4876485084555,-83.1851984224716,-71.12394518929051,-55.22354585794314,-48.4858897057098,-51.882805020990475,-52.58262297573993,-37.10836018184263,-19.079986025776577,-18.81151919514457,-23.736115903589017,-16.467346183387054,-6.668131254651438,-3.298462395092276,-0.762980971888787,1.6720638061202848,0.2101327456072113,-3.7100967254082526,-5.831741509047411,-3.1599435522002164,0.8592706324068384,-1.3918724723725688,-8.194109520121668,-10.51906079456922,-8.00030515867143,-6.66350119572423,-7.036137182648009,-8.077093588927882,-11.212998449302514,-12.582066867984334,-7.584076633479587,-2.46887653392295,-3.516342893852684,-6.783864270307591,-10.011752960040344,-13.060516704780657,-10.829842343548307,-5.7426638266062575,-4.131773965011479,2.1781040271135113,15.981351239198126,19.652951934600345,10.98712986124166,10.816729911496013,19.699738308183797,17.830517309526762,6.6093563577115155,0.5257725797610355,-6.79160211078646,-20.99145122882579,-27.079846093219935,-29.30595816650896,-47.37657766635147,-68.94959388870771,-79.7778374735703,-87.83649239372382,-90.77464621905828,-99.97048075816349,-124.1467465449248,-109.26252909729699,-2.271443193470674,238.56871998115952,598.6849786255544,743.414315677453,328.8024661268415,-256.76022963512526,-376.6623637011452,-176.80674395770131,-115.3479867844264,-133.82009142752037,-74.4806021153989,-40.95468324516597,-47.132522156954565,-18.380182683734866,0.819144786436464,-15.643429845901775,-23.50011533064295,-18.411842158560347,-12.447734869826634,-5.238069690479641,-6.201037607237623,-14.006582335780237,-17.906800539367552,-18.680721986580984,-18.021581262749034,-16.144765196722012,-17.846858159490395,-23.176103314696505,-24.30361653961209,-15.47634597391363,1.7264002436374462,23.351172077091128,45.21216981593541,62.20951552827813,76.60233271600248,95.87004083516362,115.36065834231329,120.00706230172611,98.64005980898754,49.7132336724142,-10.527172655862785,-55.010824229990035,-74.39363905389492,-79.11228031679157,-77.84462710709666,-74.26575125273676,-69.04890918280118,-57.36812199551193,-39.00681166229403,-23.071056898911465,-14.756215968596152,-10.118277476141476,-5.179208969070029,0.4869722966135335,6.913050069298954,11.444754560682956,9.98768810967319,6.0379549856298915,2.642049766789359,-6.744343632886224,-17.441186957780726,-15.307751196340533,-10.06479161643578,-15.968376732035779,-19.140945886201127,-11.176201119967859,-5.58516917835545,-4.601760110920907,-3.6418818326496094,-6.870452048786291,-9.483956990647204,-3.789577872840498,2.7207820789413724,3.0032548974896276,0.9190332554602012,0.7740478738287475,1.7441917091774535,-0.8043662322671032,-6.0362208461444125,-6.577777864780669,-4.846287579687541,-8.195417247843313,-10.677156889351597,-5.658492289257832,-0.3806413199798868,-1.444707269315579,-4.450196660679881,-4.58235895611196,-3.713013711542529,-1.5212323793259142,5.289051780561984,8.594105947786508,0.6275494534137511,-4.444308453556742,3.64143388147907,11.374933217418437,11.49538527107566,9.162204104724557,4.744950479155998,1.4519767271005488,-2.4079441697406576,-16.957199427580136,-31.298392304940066,-34.678240121205974,-44.45015985619909,-60.441903403427474,-68.38930434478867,-79.29085396006393,-91.07315225771605,-98.38878804570822,-120.38770631827656,-124.2447933462127,-46.643463607234516,146.8018093932601,482.07087776822766,754.1132066187223,539.2567871152356,-60.31884122653892,-370.30117704285175,-236.05640425055162,-123.40439085018379,-148.42284495640402,-106.25777539370293,-47.165849984686076,-59.2341667731103,-58.08277737607329,-31.995912063071483,-26.35587784759482,-17.720675701940824,-4.277567646264284,-5.009437520931291,-2.9772577635426636,1.9746897837730764,-2.2837845761822475,-5.113940963715203,-6.969252654750502,-14.98244477975922,-19.501784367387053,-20.61171775549125,-24.90813013890407,-23.844031456886402,-16.575001860812314,-12.113905436512702,-3.3565993105205196,16.839004411312516,37.80230530500555,53.03077173294196,67.86365619553426,83.76269299519099,94.88254629240016,91.90098063957959,67.4665654188534,25.327649795809805,-19.291633974401453,-50.66474702203192,-65.32517510852341,-69.39356182451371,-63.96081535233198,-50.60898050877267,-38.29326958547325,-27.42452518012744,-17.91795197819064,-22.009548710193748,-31.860429301787985,-23.918758047151425,-8.57507126821627,-6.426115616403571,-6.623757478661162,-1.7067816724594032,-1.9157305604218422,-3.9473453976139012,-1.412156604394573,-1.091690554218797,-5.322981006253871,-9.382211986813658,-10.471045249942232,-7.9814721018987385,-6.304411329726857,-8.239520364679827,-8.753057882709221,-6.863943580256736,-5.8482397961349335,-3.6413342673849503,-0.6693679494947684,-1.1048849699281025,-2.479436902100815,-1.6758055559716283,0.25070232985109353,4.653558419099619,8.084419024168353,0.1155690377381351,-15.881501837066583,-22.558505592699476,-15.68868827751985,-7.446061367929534,-5.8774779080158055,-8.774242899259677,-10.528076460299289,-8.132878585151824,-4.8217140137877585,-3.752225878526964,-1.791571529882095,1.2033604588081257,0.5687827187494481,-1.028609755805526,0.11022743954095482,-1.774865983351738,-7.943949531062007,-11.261109793480706,-11.862081594210167,-12.596127236972936,-10.3439318211503,-7.334143005776927,-9.009666946423451,-11.652922313678907,-11.461859696627172,-10.12633754408775,-5.112396030940492,5.1806860333301445,13.762722654796605,15.882663286057042,14.955492948030042,14.898864250288549,15.221574326159628,13.879709250957806,11.249611378775748,4.442846724137926,-11.822647519942603,-28.995107380171696,-36.62808460558635,-43.17098110388399,-55.44216045296186,-72.38254502698197,-92.94365209339978,-101.04922288991756,-98.94455910692221,-112.243190149715,-112.04073117598544,-44.949849732096034,136.3413929541456,482.4861445396739,771.2299373878016,549.5012614283305,-63.82852910359111,-375.98133303833396,-250.50203081724044,-154.07113877182712,-179.5868405946287,-129.4730559150879,-72.0875789984741,-81.22373559949057,-60.87622142965118,-18.463688839645595,-10.885124315258494,-4.592458254638402,2.8977898295024147,-11.913811702511754,-19.13059981929684,-10.852095618240945,-12.327381835805504,-16.735527561008187,-16.259732968359902,-23.301180166582885,-31.8889590966016,-28.744566933693278,-19.96795926648879,-15.388669224487753,-14.049709266647204,-6.685182526406024,10.582986442777917,26.72479538322948,37.885720769235846,53.627330863418024,69.38755606240962,78.24213198439882,89.99836000321304,99.1921496319554,83.13485763258402,40.997222558126325,-9.617203440803454,-51.82748343081787,-72.60680999149051,-75.03620197654745,-71.42879815811719,-63.893600875226525,-54.169376585615524,-46.01610350455515,-34.28167493033422,-19.161040237171505,-10.041193070742043,-6.8367329856879735,-4.070642592385248,-2.054706999136279,-0.8560163446540052,1.5303761385361234,4.745829636412905,4.751539004332386,-1.7558096340826168,-8.00823637747434,-4.8142859411021135,2.159517125757871,1.6356620912753783,-6.385827234400889,-15.2452345138517,-19.199050497947415,-15.572744337764012,-7.308614550444904,-0.6575034917580549,-0.11102117441630455,-3.695532294312091,-4.9048343818036955,-1.2133580864098015,7.430373500037561,15.188481055375071,3.7891428838742733,-24.330561868569568,-33.503487041924586,-16.127622543149332,-2.429147239525335,0.09813877326608278,-2.352378964829658,-16.58453752452794,-27.9794982105357,-17.32895727377457,-5.336365722801329,-8.74806357443336,-10.654500929478292,-6.676354066941418,-8.186593274536909,-9.396459844913032,-3.2349136408856367,-0.22993834830355553,-7.2303626695742444,-14.655667561464675,-14.450409865546817,-9.696204612573698,-1.063240039233607,11.925505725924861,17.724290897948343,11.644976597687744,9.275380232477305,15.814692426457292,17.977592921498886,8.957952843742312,-10.475311954951053,-31.56244024157408,-41.269342341689594,-49.52859025440467,-65.5435608984124,-73.86056818301468,-83.26333156779236,-105.58588407428157,-115.0561354330585,-122.4370027645669,-143.32540355115475,-110.87702775430326,34.998244333960486,333.13403805690183,727.1417797347491,809.0795393843578,286.54145203219474,-305.91435538060165,-364.10721235591717,-177.74745414381283,-168.87326841414466,-179.13439227472207,-99.15307757276358,-81.37855605247557,-92.3046726115279,-48.14920327853753,-22.610982606489564,-25.294525411726156,-6.02133811100118,5.235296129511198,-4.559277791303579,-4.679715821949181,-0.4058251824831629,-3.384275028210581,-8.26981516820176,-15.272130861088453,-19.65592802526718,-18.690696240454884,-17.742789241072096,-12.022530634764047,-4.5795585825295015,-7.779388015604802,-9.562798257771878,2.2023107478259263,16.900938548952922,36.43998329193312,64.98901474399413,84.87095594771576,94.32180678725584,104.8542521124795,100.61617214304407,66.04928488597571,14.933635692137218,-34.75255079323019,-71.71008922328697,-88.52091690563324,-88.3102248936317,-78.94469190204957,-66.09764840473456,-52.90989425997141,-39.34421222577146,-27.94998323972758,-21.10417131480858,-14.251373556786024,-6.19554315233923,-1.1847422276119985,0.8817071124223688,1.6278025180132616,2.616846997477989,4.592580357159083,2.558198901395624,-2.5150882780045283,-2.3654188640552807,-0.7032764430320668,-3.299642857573316,-4.114035072728102,-3.1470141948667276,-4.78901800921664,-4.568508380657283,-3.404387416731918,-5.225173532899735,-3.8980402074661864,-0.7586831726414296,-3.479669717738785,-4.792312921454309,-0.48212178541924544,-2.751597640778611,-12.54052877594604,-15.499491471833743,-9.057333735522455,-4.1016407877995995,-5.020209487685165,-5.9722584066422755,-4.246335806574059,-3.54764132039021,-4.001372270819521,-2.866637091151027,-1.1922822392964623,-0.5895844102723169,-1.2602202093784083,-1.7922675109702233,-0.0736878762940485,-0.25018442750029024,-4.280449830073627,-3.7957919191742544,-0.016800998442437987,-0.7439067379942026,1.8532478061701507,8.658251616610327,5.577749184137911,-0.9978704161607226,1.3940437310025153,3.104129357855207,1.8068194863820501,8.17025186376069,15.964294088303944,11.808260709853327,-3.163418765002902,-18.166669796033283,-28.331055581180966,-39.194768594744154,-49.77201417883471,-55.98069578208318,-65.83743980147915,-77.46098716711066,-84.22941084772921,-94.75746489580901,-103.01223975225193,-108.57337260355413,-129.03281795563382,-124.12396151781869,-32.3690431000027,181.62188227423025,535.3208450261143,780.7704978217687,497.13150863741004,-123.91693782480691,-386.05178307151544,-225.63680864153574,-133.4950363075045,-166.96534751272705,-119.14754984018337,-64.03534821428501,-68.18992153396675,-44.313831515455064,-10.162300423711681,-12.676853228069607,-10.625669515334202,3.400635375842432,5.99753111673818,4.582796384717888,-2.495588116262116,-16.413568852658383,-21.06170358616464,-19.875099146755936,-22.775659229114474,-24.158287669715662,-24.86719192578363,-28.32165880808471,-26.553356387898063,-16.44686299000483,-2.499353705908219,14.390941046591985,32.05200781283656,46.93162610964761,61.44910017119654,78.57198756857062,97.00957576153637,111.6791404397,110.49713641588114,83.53249005557726,37.836370807575605,-9.116668498548337,-43.782391886255255,-63.67186166298677,-77.475884359584,-86.71623552193222,-78.85770817309157,-56.166995111347305,-37.83545425526967,-26.718409643872995,-15.119122563847572,-7.2517050147358475,-5.120290320457094,-0.30118750915318415,10.061585808792602,16.84947499950224,7.644093959570263,-13.13643586882906,-22.249156512797633,-14.018035014546523,-7.822097505552131,-10.28969138894853,-12.299439301122245,-12.328669056859226,-11.583710210494331,-8.052959800083581,-3.796714027675584,-2.8331895505359164,-6.073681964845722,-9.474034775811026,-7.822312206109103,-3.5867843799639587,-1.525406160856006,-1.1518195447084558,-3.60466442945979,-8.105613653955421,-6.840843931913904,0.3326285228033514,4.5952455805059085,3.968897192215767,2.5811015695425095,3.1835144568500517,5.008436410539441,2.479237066751791,-5.97650859789062,-12.978896860941301,-14.399619301860358,-12.944476091357897,-9.91900491046179,-5.100327849531364,0.021627848516997616,2.033891089925911,-1.079156045273221,-5.064277850021778,-5.328291025776542,-4.026261877433804,-4.284425536265275,-7.856760699773803,-15.249311074206627,-20.242669784443663,-18.131708272060013,-14.151592244144176,-11.448198883037179,-8.43919099556878,-4.829243399244959,3.656537357917875,16.036617839789756,21.44595185642246,22.242529629624137,23.558355317081105,13.07310890163337,-4.502197613066043,-9.829748421916769,-14.537893814564342,-30.186348323628682,-42.98381611023245,-55.37145022778294,-71.87186178225313,-81.26589536906833,-89.35013090883456,-97.46092674771478,-102.08923094728164,-119.92294562256573,-121.71267374810282,-44.262209973264156,150.99082462760015,488.4618945174973,760.920919925964,542.4723645714145,-67.16446226984405,-386.1457226247941,-252.33289382878766,-138.23927451903018,-166.33272138798407,-128.17778379985936,-68.76318436877159,-71.05676578340962,-51.9613831264146,-14.600960079572452,-13.604775667594417,-13.024727950729314,1.3656796469678145,3.6708875540501023,2.8912143597961837,3.8974908031504683,-2.7268944678865843,-8.350320059363026,-11.320905996136599,-20.839654567449593,-29.987723480785252,-29.69180476279046,-26.390157188264684,-25.813233608489814,-21.336760506986483,-7.912580979795936,7.92319005884863,22.080725661204223,39.37083092475382,57.915110495046775,72.1880079572577,87.61341980329749,104.23027537153132,105.99171940950954,84.64153770146872,46.77976894727581,1.2375931223057917,-38.665870146876536,-61.809473262173256,-72.13347173094283,-74.60672968175868,-66.40594200812554,-51.03568598666797,-36.977748120138735,-24.89589855023602,-12.570878572908185,-5.848466723938948,-10.86464326408879,-16.894411196128345,-9.254143590549397,2.1555884280110487,0.4429247561829044,-7.278040855492009,-9.185067087392826,-8.125197657156265,-6.782617609536947,-5.410888825125333,-6.754931899322884,-8.707150749883539,-8.524939347527528,-7.91848609167821,-6.938052084839983,-5.406852079890509,-4.127546786538392,-3.067101917474366,-3.9058037390544165,-4.712723547202939,-1.9432314004865674,-0.6774998015746121,-2.123910815214348,0.07910169697036817,3.0497764098882563,4.796779188659979,7.247840548388013,-0.6137602023123048,-16.796566140086362,-18.08970136317358,-7.6134099038489165,-4.31472383416803,-3.4339312213854747,-2.4692496299331808,-7.805186558030734,-10.017865917104178,-7.92455873244254,-12.585592983340502,-15.193647685266017,-8.077436482624227,-3.314230018646608,-2.1693935982131727,2.1353102701876168,2.380783886175676,-4.785258050492377,-9.928416763103652,-11.011078926949683,-14.14300641807888,-18.200609970560354,-18.0280899681422,-16.292131061549842,-16.554255407812864,-13.387973853168317,-3.7845636104119826,6.6684983515891885,14.261187691076701,17.09708459129462,14.946003111509471,12.959129124793069,11.552561889251187,9.603731776217401,9.056655452464682,-0.8822392554605933,-21.46625403933203,-31.00887941500232,-37.68091461252057,-61.93466451348579,-82.47628513864544,-91.40795843429464,-104.85716944945749,-111.68883502210753,-117.26597495004201,-127.21443136980713,-88.12710205209295,52.51768441476695,336.88954937785735,677.2219455044728,676.3451761832384,157.1313979425439,-326.6216854305999,-318.2030444966771,-148.78489093296815,-142.38550519388082,-139.32443416205223,-74.77836564296517,-62.705176189822865,-61.12411620151593,-25.15310101761719,-11.839151626401161,-10.993545555622926,5.449577408788274,8.167147808391512,0.4113246992391151,3.883749932574677,4.908257309741355,1.5343432231298486,2.966107847179556,-6.629470047010571,-29.802689472937644,-40.67519756683485,-35.109325940998076,-31.910422248161083,-32.2900999690287,-25.857403617869455,-11.908114807288653,7.435674343673306,30.4141136224677,52.048821836116964,69.07428907746875,81.69110368131129,92.88036173057253,103.13182348135734,100.85932344720536,72.93259667782344,23.29203301169661,-29.636659629266674,-65.93060718365695,-78.33622417862856,-76.85450588638146,-70.38042557476209,-59.24164821625595,-48.10624663563612,-39.690662135629296,-27.409730688728693,-12.122690174603772,-2.993798858916417,-0.5202582616326197,0.6811139704199505,2.9887328846212604,8.048768753627305,13.641276841074077,10.004761219440812,-6.41751006651079,-21.103766646576105,-20.117793117681057,-11.929052938557398,-10.008082672652671,-10.950195216319162,-9.996777228317306,-11.660287705395376,-14.453811063056712,-12.321203048606964,-7.0701955735366475,-3.370879156066092,-3.2322226400567207,-5.693990147329501,-6.248662749591382,-3.7688756755410378,-0.9578852481109443,1.8033148744050855,0.5959589492303472,-8.280068906075842,-14.441908807358763,-8.292278165449929,0.19769786954913648,-0.6188925976854218,-5.681462195114465,-6.254186873029065,-3.2308979299102987,1.1262842787577494,7.10134973617224,8.4917621215466,1.3107828773106878,-5.632161927746964,-9.904277886345653,-17.18237294974685,-19.67426064228838,-14.232295604654386,-15.389425283948816,-21.326706897343634,-17.329072582180185,-7.90548168565326,-1.35906005193036,3.178719373501485,3.9072598701608996,3.298345480373092,6.077972664263043,11.524392033500549,19.692285183631345,17.670181507766657,-6.32833054453279,-26.301980397223424,-25.613554257717702,-29.539923476020327,-43.52975823773435,-54.08974826968813,-67.7911872481564,-82.48300566843676,-89.46702467140233,-93.23032691516994,-98.10776558561012,-115.95446782220816,-130.96217145435375,-83.54956335488484,69.5391241023928,370.2550362503862,715.8640404848011,687.6556319844858,133.10752985484203,-354.45321796029936,-331.3989400383294,-158.62807044573577,-153.57139966811104,-146.3930477926778,-80.4106010094108,-68.92220769773476,-62.85961935360403,-21.431015980133434,-8.179281849141198,-13.530231318987724,-3.440657677353446,0.4714745730745431,-3.048406578786235,-0.5079722768066475,-2.2449499222015135,-10.452361495281714,-16.79618842696942,-20.552119599193013,-22.9605517754496,-25.611463969135926,-28.06264605106729,-27.45244847088084,-24.558676102062602,-17.130662761003826,-0.24279155363493743,22.027100583704474,44.02805761552813,65.36596894204412,81.85226211335129,91.55008161704775,102.56147073152304,114.16792479677316,107.83126946881096,71.45835933456839,16.21846617121782,-35.52890610557663,-68.29783621901792,-81.24880430524217,-82.15061686823182,-75.70505027893151,-63.96485736315622,-49.688709632777524,-32.68728445767255,-18.202035894100106,-18.92154032408804,-29.161219168315036,-27.168825488526473,-13.344138117803219,-5.5871691170248035,-5.362541174901857,-4.015675498403265,-2.0297044954446086,-2.257407999656781,-2.166122438334252,0.8099421074911604,3.854252825815424,2.459018860621704,-1.023553043521554,-0.04276351546245927,4.894873791735798,6.6218092332058305,1.7791631619328552,-6.503695720679493,-15.032800999185458,-20.82914955837294,-18.460740166587016,-10.495589141434944,-8.637382327330366,-11.999406310315301,-9.657563972595641,-5.6680953265468865,-8.358920503876085,-11.026229225415294,-9.499749698950737,-10.317655943742828,-12.666837445688989,-10.660923971203811,-6.487693254757698,-2.566435992035913,5.601933362914943,18.02414837535582,24.00488717005783,18.22792422585097,11.070202228755594,8.751605004983283,4.867276481568316,0.5846129219221652,-2.652037459162445,-15.578812213268066,-32.113639966231545,-37.75288275029827,-44.978208258938295,-59.597882875693585,-71.34103189863987,-88.95303775802253,-103.84530797218406,-101.7841633049922,-114.88839930694732,-129.08209064854958,-69.13866883354972,102.18645905695008,414.6375885745314,723.2352657114909,595.160310943853,0.07366274513319127,-395.0460394425496,-286.91009061594866,-128.7803537891155,-144.05326143887677,-122.41142240229325,-58.98910356358482,-57.6620549622545,-47.9458338981307,-11.931873140758306,-8.496995004422207,-7.4576061018066895,12.716215440088595,16.39688541886563,9.363442445047088,11.494759323356362,5.0333143881135705,-17.03440407377753,-30.17244082786093,-24.085898262661814,-20.346749811928028,-30.138295707066522,-36.04339816361456,-32.48210746201781,-31.558503673917404,-27.671955806264428,-9.667620535101268,14.015586105192,35.33187624918413,57.38789774306227,79.31514371690098,98.23083709596656,113.68194712811801,117.31844349403659,95.75487094739806,48.4128417425834,-7.0361641041523875,-49.75751089282458,-73.3876274914674,-83.70237988284946,-84.3815797863835,-75.45263431940083,-59.61591907846,-43.02085432117436,-31.904897821873643,-25.872756962999514,-18.005098794792367,-6.847166810217921,1.698797813514549,5.1229857899536455,6.211725254934532,7.293574042293773,6.446769902576721,0.15724699787312701,-7.115025520710169,-7.422984667355244,-5.285913944092732,-8.522231067810623,-11.558293220836495,-8.96072428771362,-6.100558028555513,-5.320468801518281,-4.884296708013622,-7.434945991506446,-11.281098682390553,-9.618844725483957,-4.983950026467049,-4.475099108146498,-6.60501511254046,-7.572568204334969,-7.69276635057,-7.145750560018396,-5.49638693401602,-2.816306899699206,-0.9502068901494898,-3.368743037633106,-6.906756384620849,-4.451253162844651,2.3751149414562764,9.39721698080941,14.695456306363283,12.022728951612379,4.645079738651489,7.613419276485317,17.739499033034075,16.583613625889964,4.382504882389636,-1.6107112311059666,1.7932603212816716,-4.602490437314408,-28.6455465997686,-50.51855629079711,-61.563569944303616,-70.66735543408731,-76.86369256541381,-84.45235413251183,-93.70050289991524,-91.4542156453956,-98.4417558326258,-118.57442813768658,-86.9067681402604,43.14524725946086,308.8209486398482,652.0008634457106,691.6037986355826,193.03299792426327,-329.0276440594046,-352.0283869893626,-161.00475219427491,-134.9474237138459,-142.09313680230701,-79.16028715204232,-58.095921030920906,-59.43470800467071,-24.57774281371173,-4.111620539084804,-7.2440095887353095,-3.242635517182947,-5.494700469656355,-12.881103648859053,-6.610148181507707,-1.8962428779229654,-13.455461077636446,-25.36187414784425,-24.92551615338945,-21.36908502739435,-24.66482073188485,-30.773601334525893,-31.513020008352953,-25.092797449250817,-14.357891423143958,0.3029511299660932,21.511900279437658,43.783369457613844,57.00629061012693,66.7658759800461,85.52851436381289,108.57412354314536,120.22165265456593,106.4350622709578,61.48915143166485,2.9138313123529063,-40.79452205791286,-63.43424410221638,-75.41060783332888,-80.25021723629487,-76.31464513768333,-63.01187025560883,-44.25287835346649,-30.14313537494229,-23.59770582953776,-18.498828336834237,-13.716789998106279,-7.616731815972429,2.595932058156283,6.453686240726741,-1.955031003047722,-7.590876719015331,-3.8929502729364884,-2.738508192731995,-4.5353944494639595,1.5995824198127018,8.181703173687918,-4.471619912741513,-28.66897643892714,-34.15599849059563,-20.737254380977603,-14.105721377795849,-14.70355928771994,-11.333260886399799,-11.394777275551593,-14.703909889845097,-11.15977280842467,-6.102176957228959,-4.7409878409392086,-4.876823008232405,-10.687906163686582,-17.200134793487003,-12.373150654724657,-3.8094398060617944,-2.456183169411421,-3.3892326123616563,-3.4215942205660834,-0.7748309751266085,10.772367291274922,22.06772142633544,18.81376345717533,10.037580476652936,7.572393352029465,6.237537522787582,2.673560572263712,-6.395930119039781,-25.09099692018742,-38.99423355348728,-43.848766672771994,-56.90149793635082,-69.50919448370023,-74.71923485118388,-93.59651503534309,-112.42626682873428,-118.6114957299675,-136.51114252572597,-128.21392895102974,-26.67867187082419,206.83566625854945,587.7614322209066,835.7217697407625,505.25320334713524,-157.98574756678687,-408.26516193798096,-227.66976385290707,-141.9065068329644,-173.8863356516892,-113.10483634559749,-62.01490407672135,-76.20116277046829,-52.3307434598801,-17.55576197717914,-19.30978025618203,-10.646212098311475,8.59289757515053,7.204864348099392,-2.9420508712251134,-10.580667004720485,-14.890222441401477,-13.60008467611874,-14.781577384926072,-21.118675250328245,-25.394018342675352,-27.91619637343674,-30.887604895041818,-28.007153883658624,-15.592170591442034,-4.719641430766846,-2.4574064833982154,8.010532154119813,36.6381674812979,64.7439050130364,82.54117390248703,100.95172229813748,116.32197159662013,109.52069298486077,74.36381581565159,22.965487308467676,-27.01018210150375,-64.00696232496327,-85.46513197562685,-92.69490550457232,-87.22007885525858,-72.49519665338565,-56.8660913744733,-46.08084055298598,-34.689729195124585,-20.426383860539826,-12.109131135194168,-9.673186256955955,-5.263089422792845,-1.1080135449117634,0.5788221183403124,2.9794476558434297,2.9385295440089116,-0.9908274448551104,-3.6604524642304153,-4.437835761108772,-4.266782534890943,-3.0561035643351886,-3.189102751974808,-3.3294470642623217,-2.576893604223395,-4.782993851591241,-6.682784324376058,-4.347992772044817,-3.025935719139534,-3.4784860386949177,-3.6807952552096346,-5.558285317850352,-4.174096598488417,-0.4334314685466687,-6.978517535731363,-16.941411030173104,-15.303875144519031,-12.065430311613763,-14.171426361366903,-10.895520332023914,-5.069660546044927,-1.6401560711650554,7.640647208564334,15.437729125372673,10.265510756710542,6.172598358901876,11.020922639376096,10.40134773430384,4.033996442434853,3.7248190326334605,2.0541213864210306,-12.166623826365663,-26.2542091371917,-29.14533818288296,-37.01818389138903,-53.39391217509659,-58.85497127313109,-64.0852148714107,-81.42898866425445,-90.7009220594727,-108.47315733456502,-143.25751663271942,-119.51271225343874,8.938354830642808,263.4768552881403,628.775367017799,758.9530361900664,311.6175512342671,-282.09304816150126,-381.9304709414722,-182.10293126492041,-141.06340658085816,-162.7947560175681,-94.16931168373428,-58.68197273145559,-64.23060102342535,-33.08481550547655,-12.147072068580346,-16.88531968505206,-5.3560378818974055,5.712328405962273,2.9064992822898468,2.150945070455922,-2.84215921121568,-12.222984087919052,-14.3620433217406,-15.299373363531167,-18.843477571133747,-21.025849849551296,-23.545781270118876,-22.794886842799485,-16.173781756370712,-10.015772488897959,-0.3038858398274895,19.673306914995017,40.262831422016575,55.888556924528615,73.61160858747446,91.56812811964849,103.31084394326189,109.00442827325875,100.44460017144851,64.5345531082236,10.736245921889335,-35.05711266928701,-63.75721565244949,-81.80438409934341,-86.46641498515403,-76.72257488723012,-68.21115186465002,-64.4989452088458,-51.735085858290134,-35.404238932865795,-29.10605375667147,-23.223499925609687,-10.611310852627454,-2.282105599337882,-0.9314822114674897,-1.5101592183988508,-3.9831473157848123,-5.185760753488633,-2.6153040653940387,-0.7079140112659879,-2.0500379247940756,-6.36742237812312,-11.20818051772713,-11.127371604210232,-5.823091593052455,0.5326576223841464,3.1796734870736643,-2.8402162835562503,-10.25752764658569,-7.170812770382277,0.0319112661639771,3.411201369858638,3.8473635684118417,-7.338784402215705,-25.974093435464695,-26.68085630924556,-12.916103254268544,-8.668238454311856,-10.300894658920296,-8.6917737348663,-9.837552367360285,-10.921357020461468,-6.856194401707384,-3.312782679462405,-3.4481663840036028,-7.15264333892155,-12.43892963011547,-13.099628698110221,-9.806235055098764,-7.730072289517057,-6.435841752930433,-4.740245563353003,0.27451969287151723,11.055930897559268,19.764021417974735,21.242811850809314,20.605312908910967,17.577554820490406,11.534851949106887,8.152266464174684,0.9662218988529521,-17.800996935550742,-33.976535092408206,-41.41425346521289,-53.66196718395716,-63.404405227667624,-62.84590227522063,-73.19997335914005,-88.68771485679729,-90.84850247222916,-104.83541237147125,-118.70413653849516,-65.36049843364566,100.71489601187602,413.2121344786052,713.0743888903573,577.5804044214897,-3.715692540514354,-383.42661139537034,-278.07802124812116,-127.38921977268481,-146.84216146862727,-128.35307396184322,-62.64377410211807,-57.73574820981939,-48.95708192321759,-12.872577471181856,-8.677821098251961,-11.472836924515413,5.212079810104511,10.839677806882936,4.233790906388785,-0.16770905094553612,-6.66286139170413,-12.232969286637683,-14.630896290506872,-19.082511625154343,-21.650974041376628,-20.283551047251134,-20.054765458208696,-18.103775167182615,-7.685707398378672,8.901995252152602,20.694491931118364,21.96238232342128,24.968311495487505,42.39819918759622,64.3473169000356,77.78878512232644,87.06918170804983,92.04320649463392,77.05565018056366,37.59969467501743,-9.499701783025305,-47.36479825897823,-70.9938562394263,-81.46318228494167,-80.86075964078479,-70.50505587781734,-53.844518863134944,-39.00693993940113,-28.738223491436756,-18.732870612474485,-12.791785505481656,-14.888812348889921,-13.714551703905588,-5.019888697233352,-1.9378399844962715,-5.177130817222174,-3.69662172253404,-0.6010699305052754,-1.6826788378148017,-1.4697678141836015,1.2372850066886993,1.8637236666752859,1.250117524438,-1.2009595218208169,-9.816420644172062,-19.913239956710193,-21.422521940715733,-15.979370082703074,-13.247831648695474,-13.500949594445345,-10.749983657282367,-6.824870542946419,-6.5073234454497,-8.110743697678704,-8.005960464201724,-4.769903137847486,-0.5452616786913662,-0.5150278328709508,-2.9063335415565277,-1.3840750793544405,0.7983118466397059,-0.24404238946766021,-1.8441501066053227,-7.672771040557784,-17.387722269879095,-18.82207349809797,-14.492855445879838,-16.244946177095358,-17.737999242692283,-12.192653802957773,-5.385233474892987,2.7490798591157732,13.456458908470596,20.60046045876981,21.96273444883751,20.475849132604576,19.28697634921636,18.9118192661591,16.88562542452958,11.726350050524962,-3.510296530365652,-31.177726549774732,-52.189071917994596,-58.9466233369357,-65.3596424809125,-71.35690590615286,-78.44340400422111,-91.85404577554733,-97.91281873326591,-103.90398287384845,-113.77752112317555,-75.52253539044916,63.152436951581834,341.5796082907632,664.5184559400469,643.284995607485,120.82918374761778,-348.5157287391032,-324.3514922167964,-145.58700350718357,-133.89160742690552,-128.837061633768,-65.6106523348891,-54.05175826508486,-49.44960186338526,-10.55428516079186,1.3425191080232821,-3.492002534904362,6.051862769430993,1.9431272599263067,-14.81778810936584,-18.56461976157445,-15.373506216077416,-15.173944174709675,-15.883934124803865,-17.480838043179592,-20.999453983696846,-26.19788379274654,-29.025726355858247,-26.4127667106075,-22.84316416095301,-17.584905063269236,-4.025576543692853,14.158976814935482,32.5513889707876,54.871701733796435,75.13400338823544,83.98445293606275,90.58968720791101,100.62566158381424,94.19461668250159,57.73065916646921,7.079433850901156,-38.4230124841823,-72.65843720459125,-90.00306505997392,-85.99049504137359,-71.19376335707065,-61.12733946479791,-54.485781137096126,-42.32826135281967,-28.6849705536106,-19.473599669334003,-10.922089900156866,-4.098980757533326,-3.097189384284327,-1.8664964390224341,2.242684317184377,3.1980995329699766,2.1990522929345833,2.49879454356131,1.5490977270717021,0.9864887580032704,2.6504085490795752,4.206279263913456,8.088619408790032,10.978041383162708,0.060991226468296134,-20.025178123955072,-29.780554820664882,-26.417805917899013,-21.413500832203436,-20.218184376012218,-20.13930310137664,-16.88176581435517,-11.836023526393486,-8.583802522140095,-4.376749336356312,-1.043835391734504,-6.337787662937803,-13.072171835226325,-9.483397243507845,-2.8199276075490882,-0.923364695215863,1.1450328838476889,-0.2843149177644406,-11.116616446716508,-14.704373976517683,2.332411903866931,18.766137601488193,15.028817601363581,6.708356667494911,7.766495095479428,9.74320615639382,11.156799147579507,8.791384092619374,-13.13879590648883,-38.317498344785626,-39.12671095543028,-38.663304728311346,-55.49220004456686,-68.78112396581881,-85.34236029616036,-109.97079644727134,-116.83080832665352,-124.30633416681923,-135.45643925859463,-82.80472263388008,76.55476352986432,384.0179673177538,746.0438031645311,718.1584441151164,127.52647647322567,-384.7252998114947,-342.90552630901664,-151.64152687192092,-152.70562694477633,-145.01919195394265,-66.4061901591096,-57.11122407617559,-66.34367572983741,-30.748832299362743,-11.711451750116282,-10.703976924418207,4.257337513195038,11.67022844546851,5.128962310334206,1.4589215007715488,1.5300744070777377,1.1384577099872466,-3.4362636067068237,-13.448881293560175,-24.654297552421284,-36.36757108867368,-45.28858724325891,-41.64402196761091,-26.050051380481943,-11.065622248155005,-0.7996127352336404,15.5669800764379,43.470117429315806,72.31368340442194,93.1719785927275,104.6257576173333,105.00035978967958,99.24839552594037,89.08482308572827,57.29218873587049,0.8552828133489037,-48.492089727705014,-71.4195692322844,-84.06550181478408,-96.16947573283841,-94.10892443774686,-75.13308727965969,-57.75908882223947,-49.33568570483072,-38.31173896241978,-22.95146918460935,-12.156643508007143,-5.146855174656473,-0.049373923397261876,0.054805341242651906,0.8370781661222644,6.030257365107431,5.596421209585465,-2.680328513005371,-7.971166692563585,-8.300410848555881,-9.232077767928054,-9.330504713254534,-5.690610974627244,-2.5683734481264224,-4.989660615868047,-9.815469759858876,-10.067821125470218,-6.478556129199639,-5.209407416948306,-6.71668720814786,-8.051268028359615,-9.176291483565864,-8.919879131109633,-5.511363892028905,-2.8288200946399087,-4.974843864448232,-9.439721184653632,-12.634766804124336,-13.128078958249969,-9.9001177112571,-6.0105089667597325,-4.82828948280658,-0.6102364080784355,11.341274578879386,22.093799104226836,23.109789622346,19.93025249247485,19.192936853282944,16.194092980536496,6.171788883216353,-6.189891279643243,-17.365375636965425,-27.11097349768497,-33.08162284388619,-41.26276928760553,-55.65589834755909,-63.49904216473525,-67.42608741385969,-79.87499346152114,-86.79860776980483,-90.93465352186429,-106.07737220818926,-85.88979247538185,29.416899611454326,279.0691562432211,617.4358352681935,711.5846395447281,272.6765234778002,-295.35048637009,-397.7024551978657,-195.33860558301367,-131.22730750591364,-145.98556122033344,-85.79249622006526,-53.75116158826188,-62.771116296164145,-32.88536728510837,-6.314183027389117,-8.994575100199583,1.4061608233766236,12.198255345467505,3.700074613194449,-1.1104536552390805,0.6353024498554483,-5.0454170584950475,-14.811523168824882,-22.09852185578194,-27.262563267190135,-32.7061830165225,-36.44152976328144,-33.194977758824265,-25.795272938244004,-17.87806322593986,-4.703027861613349,13.307278817802956,31.925295939940135,52.60820771270234,71.69463094628068,84.96738948253078,98.51994142598302,108.95192861978636,98.95127697803977,63.25005801306133,13.169573992605049,-34.89929214875088,-66.52599022560852,-79.2941479602987,-79.46470525764641,-71.25417410971022,-59.925420246262625,-48.18927357115797,-33.156926171489275,-20.50836386201562,-17.752625486615884,-16.12812639990026,-7.595761703917926,-0.5534449194915148,-1.468698367969104,-4.069465100400777,-2.781742596721868,-1.213540978258024,-2.590097288851032,-3.12488570661996,-3.2327157102933484,-7.599781644501027,-10.06511181328528,-4.487760219463741,0.39296080405313916,-0.6607648046917287,-0.8066295966042336,2.741762498495542,7.364180238327921,12.382817914622214,16.05621565248472,10.532253143900292,-11.385276111894399,-35.30738947337642,-35.09863702103845,-17.638687720922086,-11.248069917734536,-14.608951049665098,-12.482127297597351,-8.041495545652289,-4.607633485952437,-2.582822124960117,-8.879689005474674,-17.013658636175172,-15.471498663893302,-13.011207334797342,-14.913918645442312,-10.860925264150445,-4.43953874297801,-4.577606417852564,-0.9786063616235241,11.555594244062712,19.6469650862097,19.558394531382085,18.615770380698795,14.873523443877263,7.911633882538067,5.7192261443958765,2.1456646979590346,-14.47701160838593,-31.473921747956144,-38.264803479983705,-49.02391047077478,-60.9819164458176,-62.664140585820135,-72.42711090053038,-89.30191404221827,-94.02783683559123,-106.7269221463475,-115.6345174907043,-56.520452174233455,107.95860568681005,407.50027618419614,701.172601706718,578.3524181767802,7.630649037571743,-377.6916045872817,-277.79169248816015,-123.26963696184498,-139.51683965087764,-121.98437952713303,-56.285268217545834,-50.161650719785655,-44.33400591410386,-16.515704661011355,-17.2930550287201,-17.28378721228597,1.2232898130135172,5.207292975034605,2.567097946456528,4.61964500245314,-2.7967421038099864,-8.915115986409907,-4.469981876008603,-6.252020244537132,-12.937905523405764,-13.10199168142318,-17.690481786819824,-29.585206370720428,-28.96778070943746,-9.353627991349391,14.005260942880296,26.863403378911592,30.814474011805636,41.74075561908673,64.94391629447634,86.18133440236696,98.15699638629079,97.75000433676962,70.54714328985733,20.81577067878104,-23.474144411590814,-52.687717455624046,-74.52079022376446,-87.2533209526942,-87.4479612271393,-77.90185419388165,-61.312007041762726,-42.92474935801461,-30.34040437041923,-24.534199572606575,-18.881176521793662,-10.079114077832184,-3.1843176116483,-0.2860906451841032,2.217055405275289,2.601150650928844,-0.9385714267460088,-2.8768300383395484,-1.3006275827386418,0.08069517309342977,-0.4877357824254567,-4.0101390256770415,-8.725580232776984,-9.147844677364752,-4.636117568054701,-0.23976999301259738,-0.5338558982095627,-5.714172026383668,-10.28171885082942,-10.59580755828154,-8.611011817497415,-5.155073189503046,-3.4860856107078035,-8.673934646796805,-13.398621634634306,-9.04869063895328,-3.3544240388059254,-2.9093196143492133,-4.107158954052437,-7.649189222137032,-12.414114140144697,-11.35912500824837,-7.4547257856821005,-6.6091218671946645,-5.533820564620449,-4.9074376425172375,-6.507974394785419,-0.5176647138041339,15.57431660079255,28.041104266543748,30.422493418491744,25.363441975743363,11.485461024834832,-3.341955114408938,-2.2253209346997025,7.077005893314709,-2.42947373294289,-26.32116501025174,-35.62703116008005,-35.879129167784114,-49.49736812457945,-62.175690472503305,-64.95841488547246,-78.93122525775577,-93.069277203949,-92.00510725507247,-99.48825324416948,-100.27659630077555,-42.413705516183114,124.5056525617617,445.4789430112511,711.5234182710436,497.4459541343404,-90.25375605834739,-390.49721197555425,-252.75443668780463,-126.80792710374415,-138.27120858546567,-103.19673933480603,-53.26334907640664,-55.219946391075155,-42.29276256250381,-16.227128874720655,-10.727363201730832,-0.6231006978734683,7.3948778446181676,-2.5721698502694643,-6.581564198235599,-2.7110669119931003,-4.254952173578605,-4.747239641939503,-7.535616312220675,-18.83262385659609,-26.68273913087533,-26.93846538382759,-26.79335620817104,-24.71535968666786,-18.209790571383415,-11.177978653527562,-2.265113612530542,16.03926896740927,42.10930887405135,63.07840857206539,76.38368968043586,93.19222208529601,110.3860227984167,109.50471394569067,84.56747384220743,42.05741529775494,-9.363727917711966,-53.8592693135207,-78.05769027940708,-82.52181492018134,-74.20294325034088,-62.373326518105344,-51.66611188077462,-37.84393823933775,-26.760928411887885,-27.77602638398836,-27.17168198329871,-14.206164278931745,-3.964800400780941,-3.310456764496852,-4.794076635732516,-9.021853625195547,-12.608070221584146,-9.243212800588939,-7.1267195004442385,-9.331511567498566,-7.340302797337692,-4.401080912976358,-6.325282067632209,-7.370393863730619,-5.988615019003259,-6.329998575072654,-6.322578294433043,-3.071632381944342,0.14767943761437508,-0.37744800438865944,-1.7497309015086326,-0.9207802899884587,-1.6877655994677347,-2.1886231399678078,1.6585534842163199,-3.496289227179764,-22.24655636854284,-29.975345706244557,-19.503859012204813,-13.103180530140929,-15.016807188366483,-11.222563156495411,1.3299322687365294,16.356100924107658,24.376949098065168,21.66159920378881,16.60734008908998,12.20551439680425,6.506070669472898,4.488575589115825,-0.6151379037767075,-18.900262553207995,-35.06523936177485,-41.70518405814077,-54.38897947885438,-67.27921329161147,-74.11313088952257,-91.40587532030159,-107.05934481576635,-112.09264057324617,-131.50306484238627,-131.45736930674684,-49.045771853479614,149.40509790164262,508.6425245299423,823.345725671344,610.3980018300056,-55.74442222710934,-423.5471337649139,-279.2497594758863,-138.53525297253384,-163.6831478674187,-125.27881222787866,-55.788980453011064,-56.91515896321304,-50.400699806201075,-23.60472209059633,-20.7072551977034,-13.612771120556252,-0.6193995547199194,-3.213865720828551,-4.861837869099272,-7.354198072838432,-18.637544166081476,-19.30570321299946,-13.973790298769606,-20.379693507042266,-26.932051394802112,-27.12478105426219,-29.125559001797505,-25.31993916700776,-11.452229841081875,-0.5732263009106546,7.032000645686268,23.010903892101627,45.53789080066319,66.56128165661015,85.6647355238159,103.13603227134028,113.72576033329368,108.6527750296407,82.12672014342036,38.54200995447221,-11.417688810991734,-56.921101834971196,-84.69015556645311,-86.93173952416487,-73.88756857082237,-59.49402878829776,-44.33059561688249,-31.792222525224823,-34.57000991882455,-46.64858666042697,-45.06945869241209,-28.23281731533173,-14.87854501293863,-11.050441851575414,-9.339696456178938,-6.722200099671106,-4.293564527295995,-1.5412395142139914,1.2008232821195222,0.6929703977401722,-3.791001825559892,-6.608413244470585,-4.486521941505481,-1.7334578165419092,-1.2332125075497302,-2.815372392717336,-7.186160135427452,-10.16867974655042,-6.705379096188313,-2.0787642959254384,-2.689430292101017,-5.56804722362941,-6.570090863703214,-5.632538617051122,-3.8196499992100073,-2.0485111209666726,-0.27281051867289285,-0.3551204415128417,-6.52263090988091,-15.62102612915988,-15.606474014145284,-1.6976841480722342,13.226510384951487,14.626781902744876,7.9371952055646044,6.211549714440319,7.86224496904829,8.511900988650442,5.800588142706058,-11.341937112291761,-35.33551572461461,-40.8700392660379,-38.76390472266863,-49.54064243521788,-58.71838510462725,-68.9984543635801,-91.3148374063772,-98.94425878488809,-98.91495348647601,-114.71656474133994,-94.95275201392224,15.773701256838535,261.83346411759226,619.965414650779,734.1868226494548,282.6371340296748,-296.5737278924513,-384.4925379824657,-177.1887420778475,-122.9247196623261,-136.1215656285324,-70.5462313816055,-42.879342220667226,-58.81917958793575,-32.901687950000465,-5.166389829039613,-2.4284517844273523,12.121406133616828,22.14885501560472,1.6305099302746022,-21.228028746525293,-20.903063653513925,-12.519351939860144,-17.22084873132992,-29.704035824948104,-35.60041593087303,-35.63438389082155,-33.35993729721095,-26.87260066016028,-17.574392311699583,-6.5807244092420705,7.304677945472712,23.17881146630961,41.03720878197099,60.459203890285,77.41994256571371,89.28743339837224,97.06537580516118,100.98992428063036,93.8036809770311,63.88082577515973,15.163120818043383,-31.824710672545443,-67.59658118716173,-94.04208796568678,-102.10920933065498,-86.42319144032805,-65.35068957572119,-54.86249995954532,-47.370164161180185,-34.18188689082721,-20.30288392765914,-10.003707611846465,-2.577337836615225,-0.7573149402082429,-4.241382720700042,-4.4798116517854965,0.6934859574480505,3.4251936174614777,1.4934391109691134,-1.5415917807713733,-5.728109192381508,-9.558844984114511,-8.932041164315518,-5.503623070446155,-3.877965197751802,-5.122037044786019,-6.829041937329539,-5.570018214947673,-2.762000719832404,-2.487296265415104,-2.42574260799692,-1.6130137859470732,-4.917224603057827,-7.53130750173907,-3.0669396958864876,-2.5055197608705218,-11.546366303330549,-16.798335012685907,-15.373096806367556,-15.21641639744209,-12.091590595103582,-5.2343165050491525,-3.2660202092061894,-0.396098853332977,10.504484347947539,20.540057375072763,27.698744566898046,33.42963110693948,24.047527199619793,1.6161360103695692,-7.549866880697072,-2.4099334186470465,-9.375084929124734,-29.66467330253321,-39.16683372405737,-38.836267442204104,-49.43306661945605,-62.29257374070369,-63.95202772318811,-72.29847328767808,-85.35413470054549,-88.72675745252296,-103.48575698766983,-110.69703877017749,-47.551095668799945,118.87208069667777,423.86092310611144,717.4977726855644,571.1471251398693,-24.851553289450393,-405.8335723782719,-291.1037289615772,-134.647114199403,-147.95517635246526,-123.95460899086848,-61.29489309054889,-58.437796909244284,-46.8880947577712,-12.815981035286939,-10.72739022198559,-11.177931279936434,3.2305359115406294,4.040295022330785,-0.200310457655414,1.683579132498732,-2.5292582291715693,-9.645146210087313,-11.381413712667698,-12.84170935387574,-17.6866943890129,-21.49517695378366,-20.30451130597612,-17.373280986599887,-15.39759103072444,-8.549256147009842,7.044631916833033,27.55258414924573,48.647983061342494,67.11898103032114,81.12693286906054,92.15712789573735,102.03033933959091,105.49588853060948,86.86443245541028,39.4492244083019,-16.332207440951287,-58.050968859850336,-82.5200983504077,-89.21678338281512,-80.65171764979156,-68.7396571436787,-55.867368247367466,-40.48835013367815,-28.7166577655857,-16.58373447004892,-1.1390508735652674,7.980194285772381,14.405155114222971,15.30557217177594,-10.53924597288459,-40.816716898658505,-34.89542179167911,-17.840812539151205,-22.16526251736969,-24.89236678053794,-15.213567518266295,-10.32192014769442,-7.6558103893985106,-3.907051980526443,-3.8788800137832915,0.23261344859772848,4.756978237099144,-1.0414621394485657,-4.084354601855697,-1.7703194237921522,-12.663635510161907,-26.195508880355412,-21.32630327951928,-12.459376071330379,-12.937730077452503,-10.847507039074246,-6.423201796234718,-9.284817618065741,-10.807343086025195,-5.787353061518562,-5.693032344124193,-10.651391259549762,-10.882199557953147,-10.1994021574089,-12.713794726118232,-10.427177541029097,-1.952889157243936,6.331141590248077,13.425665889167396,17.65832931792118,17.07549223210502,16.559444809927292,17.21009754486388,15.125076857135014,10.432496624463745,-0.5041089194612756,-18.490058942505513,-27.36752185621883,-26.615557916768132,-42.09349131066244,-67.35027320081277,-74.12066875077319,-78.27830719320484,-93.00178474735159,-96.48691972055802,-102.87692174841197,-118.92549706347758,-85.08519584359175,50.91747623711021,332.71060695499307,671.8349262966497,665.8718249299673,138.92757220175815,-347.159670505769,-329.88363270918495,-145.58132936142692,-130.2525343426484,-127.36106605703819,-65.72591915937251,-53.47427161150598,-48.42453822364321,-10.043107864197527,4.432990652070817,3.3899399568152226,5.109835342539952,-11.441605629076097,-21.041164383318865,-8.271143834822718,-4.88622354484956,-10.39866634704433,-10.66900254711688,-15.975167524900865,-21.26083351475215,-16.997900960222665,-16.77719363964834,-26.857676685617268,-36.21433545472304,-33.81716722646786,-13.23921211853008,17.298502997212044,40.78836494487244,56.46144412980654,72.91329057804168,90.58501082968606,109.27038868131616,123.8990219060455,113.81984434754108,68.5178761717867,7.425825620670464,-45.870074134825416,-80.4083454723372,-90.51329313333892,-85.10302321286139,-82.09365559382243,-77.40283887546116,-59.453909965338724,-39.36686232533399,-26.441733063785943,-15.005279585274629,-8.279035020742008,-7.416412698866626,-2.275768162119686,1.9973672184112843,-2.827573711676642,-5.783209440218478,-5.532617155085553,-12.066535299131846,-15.22736116682323,-5.910320749097375,1.6748468696430692,0.18314785227303787,-2.530255150355025,-5.104015672427815,-8.676984628239031,-8.90112711137376,-5.827219640489872,-5.447481462617752,-10.085771273595034,-14.362419895427276,-12.71862972754867,-8.019912289730662,-5.934777949061601,-7.5589794418650875,-12.254551674852344,-16.769793994013234,-15.804380800203981,-10.608244835051957,-5.6197592224253885,0.5872433164916444,9.74076883216259,17.036912034242842,17.650192550479176,16.843660570136223,21.669140829697938,22.71346726169493,10.494309443251195,-3.2372951825249814,-12.128357419318068,-21.127102237423987,-23.72280212527709,-28.895797197353478,-54.62098656027386,-78.84057559095523,-85.07574498440874,-89.97125652118194,-94.65701586077165,-114.01024020534753,-152.7679961309685,-134.06313997232013,-1.2277332909785628,271.0956290558071,665.4796118483546,816.5646440499731,341.19505765126394,-311.978946859753,-425.77136684293197,-192.82244965053894,-136.98895733461987,-165.46985261100602,-94.93599516227813,-58.49210903307398,-66.74315423377146,-27.393536420311356,-0.00716036396208608,-10.368689938370142,-0.9827466208239102,11.256061345416576,-0.29106667053138935,-8.88335181567528,-7.887934788868105,-10.287894812479166,-14.946133942151672,-19.701969006566607,-23.142189947812373,-22.79482373570477,-22.377020653730163,-24.517811576339653,-23.58728602756028,-13.222899227278159,3.862156839225597,19.87102383602987,35.12234014294805,54.84520788408369,76.14384225913878,94.39381736096844,112.01887900930068,125.1784885370329,117.27347792918032,78.19283180383572,18.313283011915942,-38.76644595114078,-73.24498578631528,-85.8233049873082,-90.79726946769883,-89.62681511174247,-75.28712528897525,-55.719844246365845,-41.89946119216489,-30.804215285820867,-20.29360864440822,-14.913730278513832,-12.375020781629765,-6.809321542717136,0.0937025887489682,4.914544075879263,8.354678201531922,5.80065165058949,-7.912126382167564,-17.896317054501726,-9.556497898007226,-0.6838901227534961,-5.608716283018978,-7.487077566086043,-1.9340630073858875,-0.8759238818492641,1.1686291454119981,1.886553218554436,-12.535715210909487,-25.839065078003642,-20.851631257644645,-14.399351610146997,-15.16637497267603,-13.271904091246501,-11.35079637063018,-13.127091379217799,-12.667056749999958,-9.626800807703471,-7.773174464654037,-7.7131696161848105,-6.895997937655418,-4.5295590977158895,-6.229009013107628,-7.882523355661938,2.975696606509686,15.801801948195273,14.588239027089147,11.12516486782242,14.554237865807872,14.829643859944058,11.296823755073355,5.809846368416194,-9.179530327225676,-26.255123728892848,-32.287243544179304,-38.775226122193146,-53.82943461605117,-61.83088460590627,-67.43098788160863,-85.14471607087637,-94.37033733906418,-95.00068840886576,-112.2185774670546,-105.45983169222986,-15.024427225069303,197.00799478240845,539.9678483604582,743.0150465648221,411.45221707055543,-201.05043290954902,-408.7529730182041,-211.79161195747,-111.43190064882116,-141.17625012156662,-95.41890151909165,-49.13209451167185,-57.2591087405846,-33.729556454537295,-0.6957812590057735,-2.17419671370342,1.0080359321572576,13.164709612008176,11.4752514016192,3.605614731063767,-6.814382774273652,-17.85612418835972,-21.3542387944941,-22.507715089553393,-24.732523154589025,-23.46354063563474,-20.249890114002802,-17.717099402344385,-16.04344944419899,-11.875273365033605,1.609393328452418,22.93878916806192,45.709445962891586,64.32206415719082,69.69732449996353,69.66768043687787,87.1975010443251,111.42290848107989,106.56568657038781,69.17314697375359,20.000580361010236,-29.628640734773764,-69.64118707546533,-89.36263149832197,-91.59572284757367,-85.79521371539114,-75.60169681240384,-60.13355346078272,-41.69229104816231,-27.314700882272817,-19.2982127113587,-13.847258085862919,-10.354384035452348,-8.063461296109082,-3.0355446902587495,1.4412847261566597,-0.9360341461512505,-5.608340004872073,-5.7504471368541346,-4.572549068063605,-5.495076105230755,-4.888839507293699,-3.049315124889654,-5.467766668574393,-9.580549896385175,-8.415199333614774,-4.3143470072050825,-2.982643104322669,-4.219458259327048,-6.481687816735656,-7.863116502547092,-4.976860261854863,1.3218270489436108,4.95012367384636,-0.08001377726177061,-11.58660094899542,-17.08823227979474,-11.563594815853719,-5.583457717315612,-4.819943580708722,-6.041064708157313,-8.858711711048695,-8.76095096626155,-2.4468234886139157,-0.7037978662003077,-5.780720990525138,-3.6636280907500263,5.112134096481336,8.612812221117203,9.39699811036396,12.845599301591932,13.050714308850608,6.941564215261236,-2.1657565955769567,-14.747474627586412,-26.67972753559614,-28.541115165800466,-30.250010034790233,-44.407907685339204,-55.31241016586641,-60.2470334296085,-74.57996945707451,-80.20805870710979,-78.0910320753267,-101.83411594072791,-109.22003045466536,-18.645194166368242,210.88490028131687,542.9551208036212,681.1772426699754,308.18598642587733,-250.17792433052028,-386.44302943207515,-191.95789498080126,-113.89843869556144,-131.83980782067874,-82.83698756038399,-49.792853382578784,-54.268286481120526,-25.973110420249554,-1.213462247128131,-4.917952704588249,-1.911203497951652,2.176477089936073,-0.7524403236747013,1.8054986246670666,2.384719529405624,-2.765059197514937,-8.853979823006913,-18.065498252831414,-21.888017499292165,-17.130290020932748,-18.500018450987252,-25.293469977511595,-25.11677745513179,-18.45509106445263,-5.186689815083762,17.293998356501547,38.923231517357706,51.612260647418786,62.82236809553582,79.9501324621816,99.94781035452353,114.05036570333375,109.25459952809099,74.84863830234161,18.525595689597708,-34.587770665848,-65.26851377349138,-75.26907976894121,-79.79628430093595,-87.04644272435766,-86.79846921521235,-70.23509330111051,-49.02539506787927,-34.28451245610878,-22.360339341392304,-14.298201163897438,-13.535645847519746,-10.865547023359685,-2.0845667414390334,3.323762638583947,2.14707671068507,-0.6870264678771321,-3.1635421689991574,-4.096819986317843,-1.9824562256874163,1.8983604196637884,4.1969455704649405,1.7799928337548288,-4.576503921103228,-10.101457813059419,-11.27451864240757,-9.162844156280563,-7.965627418060119,-8.244025807664912,-7.087127696812878,-6.884847091098024,-7.186770322165277,-1.3810536202053356,-0.5983974568227985,-19.04542979362494,-33.72691257973553,-22.38918453610815,-9.761516795780004,-14.710573603498558,-14.8754526578387,-0.09492795390030118,11.650546546472672,15.072444208056526,18.38549075236729,21.043682101554392,18.531082398641566,12.280154820242664,6.626014865199154,-1.2845639974066216,-16.886780509348604,-29.687007864420316,-32.93234366805364,-43.36674259438897,-59.29755719791809,-65.45959951154722,-78.99094465043981,-99.27890877442599,-102.2141750408305,-111.67980315172395,-125.98890075628262,-76.042467494683,86.20734421777556,402.20946720185896,742.8879519686117,661.240361149771,61.983255790217314,-395.0770563874194,-319.88745962964754,-139.49314759183005,-142.72245182406292,-133.2022412036255,-67.97878022876343,-57.58898719931836,-54.25494196341036,-27.434941328247,-21.661395211542192,-15.485186641149138,3.4822775056381428,5.502836573621591,0.548644468350517,1.923980000961608,-2.0510011328837496,-7.727707344748005,-9.990626010232795,-14.400495401768472,-17.461119282653364,-16.86925680559859,-19.21421598709172,-24.981256309587106,-25.454966851127374,-13.577994682101634,5.234788107473095,22.529765818025876,42.58239553751909,65.75698126605995,81.843043026501,96.33712411008744,117.31126341754786,126.51368105321353,105.59381751868243,58.55628560557399,1.1709042566167884,-42.6302215461167,-63.88026427078969,-81.59197150065444,-96.96447671422307,-90.45929329714203,-72.48006671040716,-62.02025073715216,-50.53696351483602,-35.45612073895845,-26.63135020919926,-18.885610459116265,-8.924304620434519,-4.427166173675175,-2.7910474013256703,1.0781069243673613,3.485601261700374,4.193716449490767,4.497084772297486,0.2403720227818944,-7.643491302556633,-10.794030354860105,-6.935653415846712,-3.7340676161391766,-5.745818970784747,-7.769377569072299,-7.268364403192908,-8.491443745980764,-9.61487456327231,-6.8542136195317305,-6.3184754206968865,-9.477883773849117,-7.129525277472586,-3.7398504357109257,-11.629339992061396,-18.065715936699934,-5.197245425985746,11.512188694230352,12.008438007382109,7.490798478583231,11.339888845708371,15.14667337838749,12.498675826222216,5.749465209236661,-9.643408308030004,-29.31819082975113,-34.13727069480198,-31.577184699032976,-44.785811595967694,-59.46090461792063,-65.50461620775194,-85.37691431502193,-104.71751855261019,-106.51112328851251,-120.19760110946261,-121.18224014630727,-40.293449535922285,169.02703010638066,530.1238700551027,791.7516376127562,502.46231051531663,-158.8005974087289,-442.5881257929186,-250.49156099581134,-121.68244260349643,-150.53056715709607,-105.79652315799248,-50.152461088051865,-62.08555555670001,-44.62946102395234,-6.430805640982459,-4.570099717860554,-1.3717567537754718,11.51477761346929,8.510591246733757,6.536659952350302,11.352161573332271,8.867070680243746,2.453142850336839,-10.94620894694254,-33.26980094975405,-42.62829922614473,-34.032046018726525,-30.657483510531954,-36.257357561921204,-32.56875277656965,-15.44654755598378,6.462428737878929,30.23410585481561,54.17059574237983,74.16306126029617,93.12548025164556,115.18203130983967,129.46710443477062,119.02487919979936,81.40403357851716,26.966041296617547,-28.142847505579642,-64.28575380607275,-76.57559933627182,-80.65119154771273,-83.31285464940085,-74.72772298188914,-56.74356123396304,-43.648997186206415,-35.833783395720644,-23.86812897287775,-12.397241002564648,-12.310105602374211,-16.052135162483232,-9.54257501725515,0.808887914167677,3.287209340066104,3.157199994048323,3.949564440702698,-1.5538625659201308,-9.44167151793746,-8.652790465690776,-2.398865793765932,-1.201582296554804,-6.965693227740074,-12.524665132546493,-10.977163508588905,-5.579224169439787,-3.6254903307628847,-4.783376729590657,-7.501846705973513,-12.677113365250472,-16.106619311894946,-13.525272403393243,-7.868225133499481,-5.056258553444222,-6.5741508739374845,-3.943330081012917,8.738278662976235,20.592403378007784,23.431393689846544,22.1283019920427,16.23381123671121,7.711840144461652,7.042684031751838,6.975837340773124,-6.083945660765615,-21.102736603296503,-27.744400687945333,-37.28879721761932,-49.89215589541864,-53.54214037938735,-61.213836300532456,-83.601952311196,-95.66294239207312,-96.15662515442288,-108.58533316590083,-98.3664021648157,-8.287532169822867,202.24181262199255,528.3938972189201,701.6567322303887,370.28560033959275,-207.1770996556479,-397.3414222831279,-211.64160429494896,-115.52775549626719,-136.74400525933092,-85.36285422648028,-40.10463429727184,-58.09065478154292,-47.53614673048666,-18.213455024619545,-17.09805003132221,-11.276671842586284,5.205853628241172,6.515925720958553,-0.37606147834456394,-6.363560119182704,-10.99635089084029,-10.774507868876196,-12.418754687008997,-18.95662382676117,-23.366757079281427,-28.204594953804765,-33.34756338711344,-28.023616298853824,-14.289194031871462,-1.13499477164373,13.438925249060016,30.34960212354332,47.63279339080188,68.24022926614913,89.77940899661274,106.7668537927747,116.25764579705758,105.69210946698169,66.25921314270633,14.537834714083663,-28.934813679727835,-59.15949712691456,-76.05483524140176,-81.43082224667835,-78.47172573586596,-66.45416403015949,-48.97157778497284,-34.45588886068041,-23.510793769912375,-13.617526813255765,-6.2066646720912075,0.811382800683532,8.523454205825919,10.712622515366245,7.67725129552484,4.956056644785885,-2.0874529913767574,-14.016494096561772,-18.60541580128017,-15.988099582727916,-17.012095865918667,-18.962239393486186,-15.509581453076887,-10.458540196860753,-7.950749249755468,-7.80070956414402,-7.870076003912644,-7.856830511428889,-8.789399445563424,-5.339164874022265,0.1702012489950242,-8.554852191411168,-24.62978409480462,-20.711322523063508,0.13907334536985694,13.81128756547073,14.380068651927552,7.328475271842205,-0.25674249136098837,-0.268648447033069,3.908704239960457,2.1833650154446502,-8.437177832990805,-23.652161409066,-33.06463746663475,-34.2649845522873,-39.907468788145906,-49.06417696730348,-53.03988499595994,-66.80135972468477,-88.96402191881663,-93.04332893231162,-96.04674365991602,-113.11786966345363,-92.44652983471579,16.833273660435083,261.76559245584434,597.439233914386,670.1094500930519,223.87632504183608,-297.6674779488407,-359.50654064436014,-171.26913409102036,-121.73000495356,-125.47634620447859,-65.83957837607832,-43.05369362736789,-50.65953868414362,-23.68778765670193,-6.266376912948136,-10.309694419595445,-0.6648527939496063,5.3115498385492526,-0.48243873974251983,0.43710135337893874,-2.5705063702030557,-12.47244235416332,-14.201955932027062,-16.63094179558234,-24.44344840525392,-24.756652313859824,-24.85924110426532,-31.46629950731517,-29.02182200099013,-16.06468357439921,-2.7493304062529553,14.411501037630726,35.75725098092115,56.64017991555393,78.03981570245172,95.45661356581323,108.10426095661413,118.16350653533594,104.71600712541915,54.61890381545816,-3.5986001852227534,-44.742990642692256,-70.49877346025083,-80.24794284104857,-74.20162213941651,-62.193070156636125,-48.85773411197783,-37.925186699488364,-33.46129621040389,-25.9758377858845,-8.144430583435405,5.45478094579331,-0.5884194179138156,-16.553959972219417,-20.97935461472142,-12.619385877949302,-8.33849663386345,-12.29271990571159,-14.608604263349374,-12.919178177124238,-9.706740056930318,-3.9990028163233013,0.6850825987422553,-1.5747759041705827,-7.977429975636117,-11.874455425413466,-13.553013660889398,-16.752819246868356,-20.278365630540222,-21.223968637690156,-20.046317114407742,-15.276554678041222,-3.6275238890057473,10.404567190655206,17.503115497147906,15.116986334244775,8.552197908797812,5.5321998811353446,8.290550894992192,8.526596255092224,-2.117936017100451,-19.519906339267592,-32.121236045378346,-37.44374306102976,-44.89468649195889,-53.73914051473209,-57.80434131215607,-72.96305365294776,-97.7765702999076,-101.89848094237746,-106.29187223396178,-132.18544827432405,-114.51282087497806,-3.5575781535446964,240.57658696785876,624.0341234481984,794.2342285818781,359.5561853230346,-272.5440212880786,-410.3114581175641,-206.70134058425026,-147.71351101460442,-161.5680459086185,-88.2151119982809,-54.247896797933784,-66.07307567953515,-31.738646650207144,-4.429630725961605,-8.454501426361766,5.146626590492601,14.949150035983031,6.519730898741329,11.72725582403546,12.53598680217231,-8.831969586106805,-16.506608869966605,-13.121777040743059,-36.18357671971775,-62.30974042103952,-53.175700353217195,-32.43816605037722,-26.961079614825533,-23.40040895688449,-11.708131688445446,6.787468324095816,34.29926488849718,63.69290755104299,85.39458196277613,101.69649950741363,114.99597534997598,118.90877998476186,101.77423645337964,58.35876167849355,1.5696128896989006,-48.67738013329891,-80.19721844427403,-88.98766546266661,-82.13487989989376,-71.21169573923731,-58.771409389391444,-45.60188250384641,-35.84573534276315,-27.77180887930211,-18.02927484094043,-9.015586990805385,-4.147116861219963,-3.8285644246152657,-3.885267951536859,-0.03191962658663172,5.325617379529474,8.92432676631892,9.925018812215306,6.644977365973766,2.4340293174090224,1.152806030248131,-3.1321896086988836,-12.594499194735718,-19.4391388757718,-21.203919914126843,-19.609517822044324,-14.888094232013652,-10.328855325133087,-4.465877450858017,8.234109889470783,20.865253185218457,23.13313782373791,18.808485426956004,15.91499460145016,14.290322042489425,8.51763413961607,-3.2301874052055517,-16.29688819671926,-27.17939831100837,-32.746169055707924,-32.005987639450524,-38.43442394180256,-55.25157742247873,-62.630853155691426,-64.81751912922279,-77.94510030656333,-92.10548606271928,-111.537533402049,-131.34034279669493,-100.52769359625303,19.361365412087252,287.56266410417845,663.881175401116,731.8769990984059,208.39638215943557,-362.2132086162936,-386.4933477725101,-157.79370519098325,-116.38727743495615,-138.28337683122004,-89.73441342097317,-70.99934395192986,-66.22866249068764,-27.532820432528453,-11.091709847171554,-14.344665027118118,-2.0493525365240455,2.8563386697579514,-2.029036212945016,1.021392371511972,0.413471178562105,-8.114013646962416,-15.76083612266589,-22.193710162965488,-24.992218223770358,-24.59677150180955,-26.175729285703234,-25.836582470948045,-20.45270501464497,-11.012120108152963,7.292073515966084,32.064007381403684,52.501751329376006,68.4031190176797,82.90837285775685,94.54358426368648,106.07235628895391,110.54376800659938,87.2424664898357,35.29999755071799,-20.55763253372005,-59.18969265270204,-75.59969864706028,-78.3910893913273,-76.89895478392111,-68.81202614604268,-54.704288551973804,-43.05821943341108,-32.23868657754578,-19.679954683865887,-12.385488388669167,-8.047694476611946,-0.19004685442911473,4.789041333597069,4.170126452810678,4.596046395251342,5.04503784577429,2.128314046266418,0.5419002838541918,3.424692230920746,4.7925905782827645,-1.614745327587757,-9.686240105235843,-9.888890731877822,-6.855698045190634,-6.303855229356252,-4.557865789624753,-6.801298624240328,-18.330595368077002,-26.15740499264335,-23.333727020040698,-18.796276955477605,-14.806210710316538,-8.220386843626446,1.40503956884515,13.25937545974007,21.600964564455865,25.289021151603947,27.841321600702948,23.190226487759354,13.829509518307137,11.28131064510389,4.554314647261293,-13.617216496859955,