ECG,319.62672440412564,329.67644548829253,348.7814456523479,341.98606480351646,301.4923742130237,284.9011505727982,311.46737334829186,325.5271386126187,315.1484442780942,320.9256838742915,320.8332274698614,277.75648415970034,243.55417614163457,257.83312779734865,268.6891391553105,256.28163153933394,261.54819980931677,275.6303647248345,270.05629678934804,263.61580380633694,257.8615429128788,231.01338668263827,202.3497990828032,192.305264627709,178.70887775932175,146.45399870409165,107.97847378335052,102.16504664295724,256.22095219857704,656.0351590662863,969.6548188177674,678.1809803167157,-4.338456423479045,-270.82999843568393,-11.857455413508319,172.94532071939244,138.10389292230525,152.27062620057427,190.83055417486025,161.0918965973177,163.07261477547314,198.7961484221281,191.6220042075396,177.4640598557603,187.0363453795792,186.7672652680737,172.02768806467327,162.77406753097017,164.58774560769535,171.25320881395066,177.17105566545337,183.31845516356134,183.8696089452248,176.70182454241308,179.937505288058,196.7019602782285,205.67267179727565,202.03227363525224,196.44639878414415,189.48788956153152,177.86726913790847,163.80629715344452,149.37079440059,131.66093177452183,109.67611606879376,93.0402785456468,91.13589772246627,99.64932346598181,106.72916839420378,106.46115829918938,107.61488305164596,118.60902748205928,129.0177391984176,134.95571862245717,143.92600292201894,138.48973809670386,110.79908737925547,96.79829913930246,107.82790578402006,118.91044980398198,124.33943470387095,114.60287749970797,83.22184685153348,70.53678930390936,88.11275675469676,90.16501175917529,73.89134288913175,67.83533135666781,65.21653526947892,64.18889346214849,76.00821882156336,92.2160913178167,103.53027093348007,97.27896312092875,67.59641068027514,48.291727580652775,54.96621371195283,59.041110049425384,50.36244214463389,22.452625651890457,-34.20536254217721,-66.47786044263052,38.57812752353493,368.21729287015177,743.6400652985612,662.2628301635759,21.361873391760014,-460.96893959143193,-314.8208997550667,-23.03090862894851,-2.366780563639878,-27.31049340812507,33.34975087442937,42.399528704662785,30.91503089173031,63.74286515054618,67.53253120878648,42.5437120251472,45.99420446842316,55.66779823716742,56.45680248610543,63.309902163999794,57.99671955583,41.987445767498116,45.59673871971181,59.748516196607426,65.95644691360101,72.73922421099809,75.45367808163519,68.97487010558372,73.76928084647002,89.1412317352762,93.72554549839373,91.19693357463802,85.2996962741128,65.95273011426951,46.07406545661151,39.236434526347225,25.993032706140298,-4.060542432937723,-25.808505597603357,-22.159769877271337,-9.850118409636643,-2.453060286317637,11.246056619664515,28.144382725933383,27.007963826002246,18.93838512675864,28.356829032036813,44.64328353304485,52.91586012906751,52.996040439746416,39.192678958990236,23.72429806579334,29.843712053993613,43.334212064829224,40.39668717615122,25.48393447869141,7.509313647320802,-3.6687220803742235,1.4136588893153217,10.115777621056225,11.708323148106984,11.374856618443673,5.526304315329057,3.4533814336196897,29.058527936559244,56.01702473536151,36.57586498470012,-4.603314544660343,-21.751945537198992,-32.8191314926827,-49.277454535804175,-46.604628674237354,-52.63186252098781,-102.81360524441507,-135.91998606986434,-21.047992660180796,339.947185718788,741.9597989623662,638.7980849552088,-42.494598045151506,-516.9836495582074,-340.485880061273,-57.68080379078093,-55.71614399389865,-66.53127694893354,3.98226728955251,-6.066499081234202,-28.397161957253584,18.876400980062286,38.88440858181945,16.565132122791127,14.77911539495119,22.32691517848541,21.6052380738751,21.19393130447832,17.47635587430455,17.191678496776724,27.47241454069259,33.29319107228765,27.71740383041075,22.995842496931346,29.653099886989068,43.89643495739886,52.342289620957445,53.795874018581905,59.08546250085048,62.963424444663445,50.04869590372089,25.058099970081546,4.716216260065973,-8.526367439920067,-21.198040168531506,-32.082329979554935,-36.652128846972424,-32.876947625706954,-20.21231864958311,-7.575416334465786,-3.89620137508692,0.47395909725758045,9.884022418530925,12.403694279207865,15.18621814115108,29.816698812229625,39.221379172141575,33.90781578265838,23.946626978602367,7.729243660693916,-9.874675832520538,-10.722617954128317,3.843142785739495,18.662565752668357,16.86066975781503,-11.443310913368128,-39.75856135952485,-38.31192057885005,-25.568077569068322,-22.935206837809112,-19.13693609122519,-8.582981367720294,3.843476508565566,15.946076108593358,14.516428904767622,-4.267971066941248,-21.59844744381137,-34.40674734082725,-47.27213600085887,-50.16777254474192,-63.379705332621825,-114.73632402240254,-160.27890855705098,-99.00330196754304,185.3790117275284,627.4091998066249,741.8205386312676,193.14260997224824,-431.0532647716364,-420.79437583261665,-98.88717942124455,-49.794709126875446,-113.5369725111659,-44.44737163769652,-6.120500953907992,-34.81857565335221,-8.404843472817019,14.777927848610418,-11.899538729841552,-14.601566831223652,2.4145551855641196,-1.0033733166483483,-2.5011221051822288,3.7432031677143165,1.2963867331642107,-1.2684053474237649,2.7281996806531197,9.516575045043737,18.36705314177116,25.064985173207713,27.9601496898437,29.186562628777153,29.316485043221043,36.201489593395564,49.186746262933745,45.90138763905786,21.99815519777571,1.0883089914088755,-11.41476168263491,-25.194922117897196,-31.637114259327944,-26.451293357401166,-26.323081888571302,-32.778713307661405,-26.973932993641625,-8.000492151920437,6.784160527173087,14.034398681071766,22.043344865750548,24.985247775731732,10.023781980898729,-13.041837182014842,-17.387343059739308,-1.742754909758073,0.11091903637151646,-27.94901528405302,-52.67983849995473,-43.04100991134565,-17.781430149049584,-7.878350103834553,-11.326264429995334,-12.615614055787045,-9.441567578771497,-5.856610668116193,-6.149305211861485,-12.824794886912603,-18.033801348486943,-12.8426165013151,-1.7046009005902665,6.838724735326105,7.224897060334259,-2.0967324661057516,-14.559894032172533,-32.69748718491981,-58.72694993733427,-65.72791752631147,-57.72609526816615,-90.51438259435656,-153.84156189604948,-142.45124348525718,73.34323669142242,502.38711367182134,756.7215995567503,364.66568285675294,-331.76025889474204,-507.9452907836517,-194.19633466720748,-41.54726766522746,-101.92984457378276,-72.52741612786247,-18.972651907372637,-40.70164855968944,-32.17364580936179,3.6100770206376893,-1.4178229378175082,-13.161520264568502,-10.074813727482603,-7.343887355298442,-0.5806275304922011,2.8928147598861855,-1.3224226756674469,-4.404806829271811,-9.084720746269655,-3.750906378354806,17.862504859447387,26.01119655449492,18.90749227018294,24.308471096767715,35.150101420049495,41.04709867735305,51.780445263250286,56.998829815376325,44.711243051096815,24.41501222656862,3.6645775810659575,-12.263150515734715,-22.88339921840497,-34.20286567344679,-40.32780003036743,-47.26687538248038,-67.96328473076345,-70.25622016859414,-35.07454985854873,-12.401485361732334,-22.926190766861367,-27.715536661618877,-20.464416279351248,-19.129549956334415,-14.158654681311695,-3.6855384103023248,-5.007312216868286,-13.350534862392351,-11.433885267303125,-5.10209385898149,-4.243337816089376,1.371332505642684,7.438557659592023,-6.562429958496061,-20.07256109491118,-4.402453691531187,11.255072303256895,2.920268101550022,-6.099532822803113,-8.330506460088806,-9.729990155534061,-4.574946682971742,-1.8854202708035661,-2.427099219493819,-1.9053985127942639,-26.64759585663582,-64.0133345133685,-67.14566992340215,-58.831677466657666,-66.76448677436946,-73.32192131455602,-102.08779408875019,-154.8871122610484,-132.22306349604787,86.0581385479536,497.77337883692917,745.0014032518636,371.85254328648574,-312.8419830708092,-495.7602849011147,-189.44895195676224,-43.264746757339715,-108.4942466819587,-75.71709994168329,-17.538282291788505,-39.23505435746185,-30.89921370939375,3.2786182733775533,-4.456550714346747,-10.08631699098579,4.053606341956484,5.705717891657445,5.4134974829739,11.242938183217362,6.353201076650221,-4.384858846782674,-2.9482216661980187,9.220316017404805,12.718110124903415,1.532353368982129,-4.1234309797713165,5.344489323663583,15.173012794796348,23.336074543619894,40.63866439243363,54.01788026701075,40.90051318741785,10.823645978168486,-8.575346374154606,-8.7201235905458,-0.7304096462622383,-7.158936684653902,-42.28435626550704,-76.48922220372057,-71.9642100724759,-47.79547230767166,-37.001717297654736,-31.188908818657584,-22.383179660362906,-19.88993917058709,-17.419712652806247,-8.87547104739895,-3.295465708241288,-0.05531298536503826,7.101296082476315,10.890698776412371,2.9654861646169657,-10.143626201399446,-14.515221402840169,-8.90228283546983,-6.783959712788185,-10.5494287000812,-5.794348480727496,8.001135817245478,12.334942352818796,1.760220209363542,-11.71662856798553,-24.158207756741255,-37.39153121409467,-42.20324787951564,-32.82194149324018,-21.01980542298321,-16.491727731500156,-15.7790555414988,-17.765575908188033,-24.891042510419776,-35.13672711003513,-49.610048489862024,-65.0828198344893,-69.09003340628924,-72.57974537571006,-100.11711828068297,-132.63979269217828,-84.07784540578287,175.40645537511276,593.9023322208182,710.3548997286791,199.13581093393432,-411.33782839999805,-441.12114893574324,-138.29462008885434,-57.11481461997515,-100.5539514229362,-38.11905501099656,-12.72092972874539,-70.66230785512089,-62.36757668271085,-11.63768025646598,-9.622846955345025,-16.948691149476442,-3.7309896189070137,2.263000800809987,-1.9581286999645968,-10.923123021818068,-18.54642116102852,-10.596786219305569,1.2048743963742243,2.7013824201842054,6.167154436938803,14.675314098049556,22.77923283771436,32.9369293986253,39.71441017109619,46.92405725778792,62.01344551578046,62.38424331803492,42.58782286649921,25.479316713783135,-4.540046380535909,-54.39761484811099,-76.94894078558976,-70.02353443574162,-74.6538431079505,-77.16291096730124,-58.31920908211597,-43.1446089646283,-35.4726697212817,-23.277916531561374,-18.33360841820906,-18.247844691160854,-7.849246591264283,2.365258541018708,2.763056995746677,2.2024599453549776,1.6830031041049658,0.6868105880166482,6.816954333793452,11.057742933952657,-1.7668410198104318,-16.06944157963826,-12.561894569332829,-8.586652900726943,-18.576798496634446,-23.187015197705072,-15.378422606694613,-12.245150475761108,-14.007607002346202,-11.242641121284521,-10.984340110288038,-18.40865377645875,-22.975447213573233,-18.902388011473313,-14.408232493590639,-11.767628202655288,-7.299042633833199,-12.00662263541981,-29.30126397280994,-40.34131268777706,-44.50112561831513,-55.194913909893,-73.58274450430312,-107.3834831614767,-147.37882210325563,-128.94312760412984,58.878998226350035,454.8399057586133,738.9814215962776,426.0826200076556,-263.6901964481237,-517.513194159615,-237.63799497878313,-54.489733183752875,-101.84895818844625,-75.32462234567781,-7.336767000484528,-20.506414588230946,-23.191613089234906,-3.199842860770003,-11.326616668586801,0.5692865069077744,27.831739061877997,16.198424911624194,-0.8188349327927718,11.010592949033477,20.903840782588055,13.424070548442685,6.952481431921961,13.790793059334726,20.437839410212145,4.691464282333381,-17.387231791313905,-10.742884280258044,13.571350161258678,25.197732642308175,28.305397259041857,31.198114618140085,23.47560303761452,8.03756156615933,-3.6773959551621775,-19.19339313322059,-40.864936361952466,-49.41722960007102,-42.2857206667845,-37.70793585384298,-35.11922187890953,-25.692376026626874,-18.23496588826558,-16.01447443565193,-8.813002456538387,3.5914147094597535,12.289811430746248,11.463540345851907,4.0311000584474,-0.3515780574779228,-1.2984491312072635,-2.193551974782597,1.1147225919146564,-0.4698667722637424,-16.461489603484978,-24.81174662981173,-11.762239174474184,-0.5300947858702258,-2.9452604384005063,-3.2735926138022187,2.849904561915075,-1.3705891745053123,-20.403826565198948,-28.877479563740582,-17.635957846532836,-20.017442175044483,-42.32087207762335,-44.80766674545275,-24.042745170079087,-8.805988926623552,1.8156236834832455,4.738701966018919,-17.015965888046082,-40.062537407717784,-44.71920538254091,-55.12393221039096,-68.47846395767499,-70.65090573653823,-93.87551849475065,-138.18806387355917,-120.2250267934268,88.27753410746337,511.1257467433989,771.9753460252276,392.6169695279779,-304.2907572305064,-496.6585083887138,-197.26053958517312,-52.17970011479656,-119.36945987515227,-89.80200517504304,-25.209391580484336,-33.128720803229726,-13.503310968166131,22.609648131076,5.479708765597053,-7.3294365146131675,13.02658472858841,24.4730952458942,24.95172344897211,13.4746916003546,-23.309578538453287,-49.66962240835497,-35.577033155614586,-10.692394003260903,0.48126027455973563,5.770747994733469,5.669499413314041,3.898798144001811,18.718850406747457,43.05958616071936,51.19211195210892,42.584693872655805,28.74743586469485,12.38487621694832,0.15738300377504189,-6.996481021656557,-21.061960142628458,-39.87962205149172,-47.515389266281844,-41.14389669978017,-29.593792679744496,-18.101629330563682,-7.40619279950268,-2.4669436704307834,-9.579448966495438,-17.98993194015194,-14.527341083554575,-14.013114632710355,-26.469757989026533,-30.68288737145857,-22.801815167278676,-21.966382686542513,-22.104460631233835,-10.989833635097632,-2.772546276663501,-7.860672855952725,-15.971592260192018,-16.213009745202196,-7.886550088917883,1.7684056599809939,7.262879020879794,6.854037636203486,-3.03229917060634,-14.680721915942787,-11.879505197931405,-2.085502690662487,-5.257612731156872,-17.253226828524852,-23.955502117052262,-22.08546622619752,-12.263899952773102,-7.011476554348281,-20.82809200419972,-40.03335481980102,-51.76341890679818,-63.5809976664955,-66.32262851045877,-63.80880405602865,-93.79967555766375,-140.81352900299603,-112.57907686162176,111.49982169837182,530.7728931678381,749.6336504810401,331.92521151342373,-335.47232732734034,-468.67091989698815,-164.8740106868668,-38.51427541679803,-83.86326637034011,-42.280501441365274,-17.064763796198747,-55.56409499471069,-34.814128336444895,-4.184810609437612,-23.934642298582006,-22.142484748324456,-2.8295419884226796,-8.787987117067463,-8.029484144995319,-0.8857056570168922,-15.111037920574642,-23.09524731140025,-9.615993097257078,-0.37049736553568824,2.232644318549498,10.555223750552388,22.352522019575865,35.428156662890146,46.97365208443184,52.98798284313618,54.805241698273186,44.08017474364321,18.672184800073147,2.733773943388739,-1.6251893402905235,-19.65283647707533,-40.91410174933826,-47.145637813799624,-56.17598374316397,-64.58520875688257,-51.92671705477463,-39.16190230311022,-36.11813543362874,-19.268891625720368,-3.60565346029572,-10.923814531225805,-14.157592753018978,-3.044818947352482,-1.0787720297549406,-3.2868403451362624,4.134560963211996,5.410889360503429,-10.67848568499381,-25.848027938160072,-18.773320624031435,-1.8646570635001254,-6.285161371092144,-20.010843637533497,-7.634668483630312,11.190731248474407,2.8232069624702376,-8.95963089649078,-3.846564526988903,-5.829872693702491,-18.513985209639333,-22.703201911478438,-25.676981240073026,-33.64086831765193,-28.258108321620632,-7.595516973653638,8.154316561077348,6.708019424813614,-10.40755870273755,-27.37872021621644,-33.22325019551381,-40.82236997690413,-49.54468749007237,-48.86403690481299,-68.36547699363304,-123.61348736591377,-141.0609957986076,20.674830035170118,417.6851397579723,727.3344657596924,446.92259631697743,-235.47221200524012,-513.2917309581328,-248.54735329783483,-57.433568823351706,-104.89101521058711,-88.39047079743489,-22.30300775006674,-37.63095917348618,-39.97763522636528,-2.8206598519684825,2.2422039505489693,-0.4450008928818576,-0.45153254053774816,-23.15199224240496,-27.345452442304666,-3.077657540820667,-0.9869382277009002,-14.172393205011822,-10.147511368228166,-1.4655156569013172,3.7777606623589612,14.152528015585304,22.314410044636915,25.943959636710538,33.625087464696776,41.952863523161454,46.75266566661198,47.35514754684227,34.18115870069229,8.392458428369883,-14.439496204759674,-33.75660444282919,-52.20245223656448,-57.06287825280799,-50.09322057734189,-48.32454497747387,-49.54451543998856,-44.163029290959784,-34.434720259572565,-21.568863025265117,-11.049026322704972,-12.561694343052128,-16.043335850891186,-9.25328777517434,-2.1395461736851225,-0.29119748099267895,1.0110467665464853,-4.883535206018848,-17.068743920176587,-17.49547960515713,-4.838465936056508,2.505678973407182,-4.175883601953245,-15.577017422152402,-15.35841098106769,-1.979124039513657,5.164335589501398,-1.1261671304896055,-6.215398448058615,-5.662807061238162,-4.462995713732099,-0.49192193252921257,2.141055804863406,-3.442502310775783,-12.336808682406627,-23.18148541964412,-40.583371959291355,-55.191726557539205,-53.02480805183369,-45.82111376923004,-58.863958386133596,-78.44034759376598,-73.54177387771989,-71.00980138348993,-102.71443764021802,-104.11436599717317,53.216502612839605,411.66806685465656,700.692542923081,466.35897165948484,-192.28874591157825,-545.4403689256656,-343.48517957678484,-107.08154481010018,-93.9643683446579,-80.7873434059159,-23.395809862713094,-17.25712544712954,-14.814781337030649,-1.9780311271433568,-12.444371236525015,-6.626572721294684,15.472018599999311,8.687989103156589,-8.893556549568078,-11.273912865323608,-9.632940089243116,-6.439106147663537,3.6591392031564647,16.50116852938006,21.94744250769437,15.612195341584805,13.757084529047415,26.580835082990948,35.281874193242366,31.134010504363392,28.9364019884712,30.174227913164977,22.45103719437982,6.701443083242236,-5.548387813201405,-14.51552347802701,-32.33924359484669,-54.2865700718304,-57.429916172599064,-41.46378207852704,-30.71097245341401,-33.62701375335404,-39.13567830271191,-36.93479484735223,-21.043487638147287,3.311989489577094,17.04298792719667,9.975812188325069,-1.55667699784272,3.1774010069041196,13.021675708531316,3.003859250678783,-15.837914028788719,-17.711109513995865,-10.328149494388887,-8.794899306478243,-7.695016264190869,-4.109539192479009,-0.9546813713371947,1.3084089768156346,-1.832531723069236,-7.4247034973623816,-4.920236930277795,0.41803897127266865,-1.184134403394605,-1.6335776896132952,2.0022225734012284,-5.258678392229081,-13.683783748505231,3.923059647549546,15.550089425988757,-27.77228273494905,-82.60522026281357,-88.92221753771747,-73.75158013196042,-74.82720978531613,-93.0103227927494,-127.76606484424768,-140.92694881491627,-9.119365429491125,370.9338894838437,759.7167404894554,601.6094531945594,-106.8391747190211,-540.3701685539114,-327.06327509451353,-69.10612390691016,-96.67707970775865,-95.84075348954052,-12.20913241322171,-27.233858589994966,-49.39640508896452,-0.7617696785077506,12.20185881347216,-9.882765422597878,-1.9971037946531012,7.420375246415438,0.5286286208729045,1.4814000018061009,5.01970251845386,1.1472149500367825,2.010851101180625,12.287928881311888,21.38974954188442,25.35251249864968,28.621745939812378,29.12933523007942,27.42524986352064,29.931046376158836,32.468592208702674,33.812048083988216,36.665334527492156,24.12842803627487,-6.690934469596831,-28.580019897319325,-38.24541279914425,-47.317031226336134,-45.53879495825853,-37.512194669488714,-40.21080246305672,-40.01649131809913,-26.661229197377335,-17.99742913470091,-18.968772209175576,-16.656255507752217,-8.319213828516826,-1.5723958921200794,1.4610726341867153,7.940541110572439,13.874661310013229,7.938304155151788,7.420845703674979,24.75252702862099,23.354495962350896,-9.848580042744352,-27.951319277874497,-15.051015838492248,-4.537764252040418,-5.524401875456423,-2.0720774723243984,4.138009685664464,-4.288534350820395,-29.280501164621008,-43.50548277094805,-31.990524851583523,-17.559828296655517,-11.433371133538165,-7.723761758000791,-19.24524465247744,-42.64170124077008,-55.33610654457702,-61.233656475790546,-60.72078139145845,-54.943387331365315,-83.14953399702105,-140.50612750554905,-137.49812689027564,47.046645520248745,457.0941296815405,767.7735706497165,464.56068324839896,-239.50986397032835,-502.8181126987711,-219.67607261266403,-43.92280369904,-111.12959284470921,-89.09364371217166,-11.461341281102662,-31.986478521563434,-45.96552880234189,-7.283597583416565,1.9548892700876408,-7.107078152214795,0.8910176278714914,5.587972530143119,4.757836710343481,5.552770225811498,3.4435304293283027,6.8967987088869585,11.538156022341967,3.403309061709507,2.3137493992019342,20.569916610993147,27.17020709907967,16.080934794663087,20.70923213870474,39.32829209180999,41.3347746850724,26.95709140432452,14.319236565080036,4.344866530774235,-14.19788970022022,-39.06898039723971,-45.28294818443426,-28.096687596514762,-21.202417704168248,-29.391516360694286,-22.216093487311895,-10.9778506253144,-25.955151475169735,-46.21477911696271,-40.14304949556783,-18.687111351559253,-6.318300960724834,-7.843105853193343,-11.657170156551054,-8.229336444103705,-1.4935695329057523,2.5864767248155065,4.522177932904139,6.074723886371183,7.152758979838698,1.6507835249142815,-9.32534455190088,-5.676698425772667,13.881645061178425,19.90449460835956,3.0234345362156496,-22.999486988150174,-48.318421223835635,-53.00325865915001,-29.33372670734217,-10.182113786214668,-10.604425976516353,-9.545880899486832,-11.372576172646646,-27.49680618514002,-38.06128472574145,-42.16992383678168,-54.59646145459678,-61.86284116367959,-71.36910496210132,-109.3040893895703,-143.002682270774,-80.57564638040772,196.99157232919703,621.5425546597179,707.0447355803733,155.85331253615792,-425.59116448860254,-390.3248940875837,-94.20034628201425,-61.09872396827559,-111.73118582652357,-46.342937992419785,-24.097117714403097,-53.669322814397184,-27.561067578529247,-10.116166047814243,-32.14762849846818,-20.362165861298042,11.630599296196964,11.234331711250299,-6.450635688357341,-14.613966105321602,-9.535775833483449,5.992705269728918,19.522082368016864,19.44385834731251,14.390711191673557,21.03008910200682,39.95732091354714,58.44567498902025,64.19775715371661,50.86208356351939,26.982531448477985,6.699059569344165,-8.774884479009831,-17.32084680130032,-18.837105177749873,-31.509063578822214,-52.26505397317272,-53.51553833475392,-40.68985011284763,-30.57503036109721,-20.422107877449548,-23.478543955382207,-37.531278589183195,-25.00562331753135,3.6727630834580403,9.589782120071746,4.272747650162909,-4.992451195873464,-30.01030093488872,-40.20773666465723,-21.214581255704463,-10.525152095211403,-13.942717342484109,-11.102881346374161,-7.340235126906581,-3.9156501911247723,3.076102960772687,2.5106205176634155,-5.401452672732059,-13.835182352161553,-23.056051377455926,-24.123552812898524,-17.384807183339042,-17.411555653607316,-17.585314801472315,-6.260380696901882,3.5402580413599214,-2.5129407921209825,-17.26587807620659,-24.325192579774573,-28.98421215816898,-47.25195909333887,-63.46535559604777,-72.7464147995899,-108.23368658071495,-149.40261532552267,-101.73508507829598,137.24607146390647,533.6297430587173,697.1247557625493,257.22798139613843,-367.77215769805065,-458.04288134274634,-158.09504032889512,-46.91376286264521,-93.61046856338803,-44.933362302391096,-0.31857686435732546,-30.225601670244593,-29.205115654090918,-5.1179804193889815,-8.418392578363562,-6.923244466345979,4.501970060315999,-0.8481915582463095,-16.786100779055953,-26.639285512200264,-21.522774861509646,-5.287411258999361,3.919797319558155,1.048518984213894,1.3916889768423992,15.044497132811927,30.670605199808616,31.978678118784728,27.38771515853975,35.31605671639514,48.093152766538594,45.80185000125722,24.662008373004298,-4.0618299085974705,-25.73534888687508,-39.876938370787094,-55.07346129901478,-61.361083593322256,-49.6222307084906,-37.459541262218636,-33.49723412548861,-26.672942907080085,-20.64316776184836,-19.46060327915061,-8.607561884212881,8.319980964727108,4.5278369110628205,-20.970848471930434,-35.965906263956924,-24.636508415472456,-10.498160230125858,-13.904326891879759,-18.98728332955617,-12.368853870677135,-9.942896606477671,-14.71158517844437,-8.518840159723048,4.050000105504136,5.846452835898241,-2.1119684348486416,-17.11695540854777,-32.92718395104603,-32.06575947097143,-23.89544134884329,-31.175612715143963,-34.024403485368744,-12.045239495834299,1.8355339839340559,-14.106295786790993,-30.420744451034444,-36.996124865060224,-55.03630786121234,-68.64215871185557,-58.31101215518015,-66.16256335372861,-113.88837019695762,-127.12619171097357,18.63481981117829,383.1116585795404,711.9743163576476,515.5589461460935,-149.08959013227712,-529.1002465999787,-331.9535810546312,-92.3813431024988,-92.45746264488727,-83.23910918057679,-12.440932406996126,-11.806630986900501,-24.288956009597044,1.9577036957472416,4.896330998046938,-13.343135761948886,-19.531592939610363,-21.814891067353678,-20.09924597421736,-16.92554131398029,-19.650355389423172,-14.04079460233051,-3.4356370835963013,-4.7880871185416005,-3.9221229161734805,11.09140981532013,25.38056730499482,32.863170454904676,39.60022817075537,47.04235752184185,53.80098370294377,52.692015743003225,38.9759471321488,22.641668914899448,11.358985761687373,-1.7742909552320647,-22.08828327475344,-37.99326091891221,-34.613068091794716,-27.665100340358343,-45.20290714049864,-68.99619132569138,-64.33031479042205,-44.49504611198997,-30.905004480741276,-15.393597973152836,-2.647586230742835,-7.020119584021842,-16.21979811345787,-15.754368820208551,-10.874473921229423,-8.69973672662827,-8.165029224544258,-1.8506352287040535,9.173556528565502,7.579611714473309,-7.3858959201801735,-11.91333011906411,-2.8908997883576735,0.12418805526951715,-5.3593823079947285,-11.345296093067684,-18.650122043382247,-21.608777737659484,-13.188190976864433,-4.858664986507131,-1.465586482338023,8.569308181031776,12.596795767999366,-9.047663154424637,-34.792534894838845,-43.32472423560234,-48.22757407133644,-60.52987459005573,-87.35260330055681,-134.67747617662795,-166.4644636216179,-72.27257685515414,278.5874585969014,722.5088288202402,690.7987655482842,24.939725252243193,-511.25495272364344,-378.70576672945344,-77.69075811091281,-69.76507881263838,-109.94455739701925,-40.43609433108328,-21.560607726012947,-37.1472111122339,-3.158576033829548,13.044353887344315,-1.061098899700438,7.653098921666977,14.051701542922432,-1.3049967014973962,-5.876113461052091,-0.699648094603261,-5.281556559307624,-6.78857011026328,2.79654075294422,7.599892016508008,9.33760560079143,22.411746027979735,34.459696538587515,32.79978886080344,34.639734449438414,47.569152769615435,54.30749208977203,45.549349581113304,24.189766308399555,-0.44307632949546427,-13.733593459502071,-15.314890461253851,-14.282946287881844,-11.883410648994314,-17.51613787796186,-39.487307774877166,-55.47996660729979,-46.9621697704676,-33.5092481083951,-32.52355872320693,-32.73121484579636,-25.434761794736943,-19.040889553420985,-16.66682435423614,-8.738275425482314,2.937178606473644,0.8976904846163336,-10.61788625147042,-5.705009022509913,9.969912458062801,8.513248893758595,-0.7765317777939007,4.386754197501842,9.503128736203,3.67697757351643,5.954844135964409,11.864757692425224,-6.576165973356186,-38.652780187821406,-46.426665371418,-25.0294689308553,-0.312520819827828,6.695823835990131,-12.42852772765485,-43.279893774985226,-52.62601119415008,-44.291626542608256,-54.17726399546862,-72.41935787898075,-77.0097584457887,-97.34190313329799,-138.468219766512,-119.23065740234634,97.20356894261462,524.0340044623015,758.1766959103466,347.13677475384213,-332.02136991912016,-482.8452114938725,-178.23457300398923,-44.28096879276115,-103.79655826347818,-71.84474252917016,-19.68759710680584,-33.630820533985684,-17.570612843600898,14.359601601275084,3.192271626192305,-7.071317953924222,2.9282177475339815,9.413425198660272,15.428942103148218,16.457243379808645,4.0241709140420365,-8.689881516748159,-15.555272451762649,-12.987048878404057,4.137948161786764,16.066104296221038,14.0077827183361,23.74240710455112,43.47869966780139,48.35439797754659,49.94109305076722,53.284453738946546,32.234890662158115,-0.6541401016853294,-14.13476476161372,-16.7652231670205,-15.467345050726317,-14.000509667490252,-37.41507615041499,-65.07965525811497,-50.498476708032285,-20.272083799209504,-15.031705510001022,-16.36790763515751,-13.562365325412902,-17.30920191362953,-15.821850466151584,-4.543721085925824,2.783978704159619,3.920503164747249,-1.949552579685676,-13.852421392294836,-17.576305894308174,-14.071340309852452,-18.99139282959051,-27.160766931468082,-24.639365376789314,-14.753842380239618,-6.2462215384041855,-3.5268496454212404,-9.145571370524099,-18.144512758112153,-22.725348204043584,-23.627214600760325,-21.923516344963467,-13.37972595879545,-1.001939002996469,6.534304351085154,4.131158996223977,-11.388513174131646,-30.535369909336108,-38.90237155690857,-47.344944788180385,-62.87417809284939,-70.90664542902385,-89.39808133646504,-136.39058384513223,-147.63636845256596,-1.4644391277260809,365.34991505146934,714.506676527159,551.6191248899614,-104.9271562722357,-500.04334875731024,-301.01235658832144,-56.80867419246868,-84.17882339324618,-107.45547170533081,-39.77012831686271,-26.97204168586297,-34.13377369326129,-11.58576885402416,-10.909225252820093,-15.603513240236982,1.0978037087933323,6.43577911256661,0.8344249030554387,3.043891615391898,3.71698190515853,1.6136382431253082,-0.8241317911135599,-6.7462556180086635,-0.45705444781903826,21.83860417917775,31.411667893881212,27.042822156534665,40.440594897372,61.178099583372244,51.74486528669783,24.026801610109914,7.9798727334606605,-2.8681463005428807,-14.118255288225214,-18.738661192582114,-26.67329588670202,-38.98875199674439,-43.25770399258904,-50.10424823535456,-63.45840479161642,-58.778195335872624,-37.7773344500964,-28.310435670101896,-28.074542191212366,-20.443196236501578,-14.161552075060499,-18.30226472794166,-20.41965615576908,-16.111102806904405,-16.208108841086617,-16.807215365340234,-10.563050315713667,-9.931930379380354,-13.08366689778644,-2.573624244748256,2.5092939854565657,-16.97523657907549,-25.570262869272604,-7.908738528679777,-5.2789619186930565,-22.018806702912062,-19.921788331145763,-4.562739278922926,-5.700524384964925,-16.370703315920572,-19.365173502721397,-20.1378772211825,-23.148332089836607,-14.845586112712404,4.101929025767479,1.563923292192186,-28.727320391955335,-50.858066199652754,-61.27344208255069,-74.0572185056678,-66.87956999469482,-56.356253737532555,-93.17399020673203,-136.42819045992712,-73.08128995233974,196.7918671882735,598.4779349616068,690.387164868499,163.57487927643479,-454.1093533775599,-487.2137190625836,-175.14072990550716,-65.2957084091198,-94.70161676822909,-46.650262311894124,-6.848361024040003,-15.57189034178835,0.8234690478805984,16.095391226040526,5.387806455172804,9.230435617794132,22.78396357740062,23.96129647746826,22.69614300025425,11.586509753064371,-15.275385766384307,-24.576993740490863,-9.193462223219075,-9.525377825530915,-26.63975546639991,-20.877237456068737,1.7595701354041857,10.970907948761827,16.839947074219218,33.083219384839175,44.463595372425054,39.58438592257055,21.03007522907404,-3.3530895191209247,-23.129504944428845,-36.156025502100114,-42.24359540222767,-38.09868195738391,-32.31410989254619,-31.42251575481491,-27.15700729127904,-22.61309668392365,-26.107521148687724,-26.54388500610447,-19.817520438753206,-18.364579938958336,-17.292580016369477,-7.604795798513443,-4.11509010231843,-11.5715306995613,-10.275048202181228,-0.2081786625559623,2.0480635242401988,3.3041150246145445,9.997062878153065,4.470184352942521,-11.810080360193066,-14.660969392143985,-7.231986359458366,-6.7280470573518905,-6.952634326069672,-3.1444190258961022,-6.0454049601790665,-13.11250126891845,-14.498489124544763,-14.623801201460356,-15.46739773907926,-11.89141734774721,-7.826583324335863,-3.856957631071305,1.2733053195731685,-7.315417096356395,-29.021338149143936,-43.53778799631665,-53.91792008992739,-62.2367614969301,-64.71764509318221,-93.27837487756582,-147.7168757265902,-142.71991478943585,50.180562078207714,487.51916865546656,831.1731886879554,514.1327898628815,-249.47074145031132,-534.9850713849833,-222.93594448568234,-30.862287042696444,-96.87047625712577,-77.62787544319163,-24.236339532877217,-50.93352197495481,-35.912971184069775,10.004181323752723,14.129489894596242,16.12553720384893,-0.8583871261676865,-46.602768588939135,-47.55346566948748,-18.533504815772645,-14.576527153149788,-11.205082355302174,-2.3746822550136066,-6.24738942434804,1.4986966482428876,24.44462136491938,35.392109230051034,35.95444237084472,37.10225638688662,39.293306901694514,47.0277347497484,54.930338324507105,45.72999330071657,18.357905442071715,-8.162662517373573,-21.182620650552384,-24.5384313903811,-21.978481674527195,-19.41833656685749,-31.412406993407508,-51.38157971495757,-53.46673516776435,-37.91962199340479,-23.186963674980603,-15.922686691869664,-18.329100137206645,-22.29827611357699,-14.561048232220173,-7.611610927547137,-10.357546866810328,-3.80048315810118,5.558941967128673,-5.430988401327596,-14.718653999068056,-0.3580957860232079,9.673403744850003,-0.014206803878485275,-6.424799998101248,-3.15878770062624,-3.6418387846398623,-5.525505017365058,-0.4831322296824556,3.497909183395967,-4.2691944668377495,-15.390328944928502,-15.7362540771528,-10.016550093273414,-7.1911741861193885,-1.2499125558836193,11.174434353221635,19.273951116811496,9.273882685426758,-18.15369125529918,-36.91897935091558,-35.89172907203644,-45.38887692249019,-70.95554766651497,-86.73124394294305,-104.77902755118757,-136.2716413348334,-128.85826152831876,32.82258510349351,423.8022864475108,755.0692972711345,500.8119887039885,-190.2916873764607,-498.0647514885769,-253.47865753195356,-68.88560405597303,-116.12748469472987,-95.55634671725936,-22.051570620560263,-29.692504773940584,-32.41040908916691,-4.369259254961115,-7.367559275391784,-8.609942497373286,7.071557229403005,2.1374181830591112,-10.019357398730827,-11.665883034067548,-9.63919045838458,2.7203807318799376,12.032511028194229,-1.6299128843418433,-13.970724130405404,-3.4899495394316453,17.50038587587066,38.73904048554178,52.00400468165158,52.27174865815763,52.62112830241422,53.55966702444439,39.705312534484946,16.646059168336606,-4.00180377173017,-23.844267423897413,-39.53220842546623,-49.200532235946135,-55.95629524315383,-51.28461696868059,-36.36285181090546,-30.622249021683253,-32.9123536910569,-25.661660718308795,-12.280786534609842,-6.251131549098009,-6.779083903296179,-7.535474619763111,-7.363422727680156,-4.217980926540372,5.671775225235315,15.762826259878217,13.801464694934463,1.9391069541026482,-9.1851110933055,-14.278319726359284,-9.139824914121608,1.968067279878987,7.03138904618009,5.379351953938329,-4.236625181852869,-23.74028162703148,-30.732025993231282,-18.332613170817794,-18.541379784324572,-31.779000696510558,-28.42901883288642,-18.85349481795801,-20.947626793152963,-17.80935760952495,-1.2072493173503371,10.855647198168548,1.368015733195998,-21.51839192694728,-31.635348342427307,-36.99828864690586,-56.482805380606244,-59.71507452399693,-48.7175107674433,-77.2136614103454,-118.73125694110423,-73.83933775452122,160.77980143643683,559.8717137318314,707.6441400185115,222.8658513636367,-410.86248110900425,-456.86748840637256,-142.3433547942471,-66.8494300977023,-131.86325979104657,-68.32232481140638,-13.504729056897773,-41.321793181963024,-32.35850594288148,-6.670782715243405,-18.270712289792357,-13.99871492586031,5.437831324432685,-6.903743307644291,-22.097026478330175,-8.711594164219399,3.320322571701496,-1.340858071245302,-3.4378738231222776,2.7205538470005446,14.2510922029707,28.901936296104715,33.997992085128246,34.99718954703585,50.72488417175149,62.36974018487645,49.21809972807865,34.4556913319541,24.89824100686241,0.26705104674336866,-24.309628414761626,-31.8323122783583,-44.179167961508554,-62.84708912417174,-62.468004356075966,-49.579399543097324,-43.472998813240544,-34.63697859860776,-14.926269207711162,-6.914285604224915,-27.774921611215028,-48.84026644130946,-34.37581813507694,-5.002094662804083,-2.5925783752441447,-18.375679432436826,-19.015408060289776,-5.96327186251095,-3.156734821958125,-15.688482741122947,-23.793343458798457,-14.125597654353193,-2.315167268850441,-5.524771202854932,-14.441609902388656,-14.433359940119125,-6.801018832917752,0.0500024160446948,1.2026137288849768,-0.6999745421373014,-0.9010001585817662,-2.732970045470765,-7.688237113489453,-5.6866870305637995,2.5645642335412155,-2.487284376052596,-22.184851075136915,-34.906004342890235,-39.88225995606413,-49.574644497572564,-59.12490550097948,-69.83841957534338,-80.03847106304795,-70.00061229210695,-65.41504277007866,-104.90846432309647,-131.65067751172427,-29.42135802221793,282.7454822764589,662.2178007129005,630.9693569379635,11.91064409183197,-525.2787882898456,-427.2686099334102,-122.32555004666872,-80.242413242807,-98.17797918741302,-23.619287500147998,-8.148467088716117,-29.437362052964914,-0.7699351421274265,8.293271851561027,-11.006616375107257,-2.7895256654587417,5.518128353414644,-2.27670622949195,-1.640635155919199,-8.501997382199708,-25.834766102850075,-16.63022730599714,14.903858820344762,28.63843718059974,21.563761894390783,25.252725185168053,47.27315715591702,54.242446384983076,30.022687542873662,10.94052010451742,17.178387308895175,16.15252752914287,-2.1340756304516333,-13.162999822713385,-25.65888141860703,-51.568881711447546,-63.216294479713184,-55.78467374510172,-52.33855063501264,-45.94475943832188,-35.61906950676086,-40.80800333374726,-41.14302622611754,-18.172335782714036,-3.6069155820838468,-3.1934373013762,5.262948655448497,6.20331004637201,-2.017574409257623,9.576484376434713,22.247871622082673,6.93171352583907,-11.802984454301905,-14.254200295563653,-9.337449769758674,2.4460880800307674,16.273314057597176,18.26002714188373,5.528918269899432,-15.387473782076682,-26.744213774803146,-19.668847642711746,-16.998678973272455,-27.7868006710622,-30.49905182415589,-25.176415046419734,-24.453628224961122,-18.82776092315241,-3.589591148345006,9.83331097364512,9.106490155337282,-11.446423069800474,-31.10515305704199,-33.127727039065206,-41.78904247369736,-60.05370942557346,-68.52521595965483,-94.69928080696951,-142.1705423687029,-131.4773340720635,52.510304730653814,466.95830441024486,807.584352347218,520.3266038359021,-231.52727711660896,-546.3105100085482,-246.526780972568,-37.817355907905636,-113.09884400296804,-104.25227409646608,-11.292360336694074,-6.5367880545841714,-17.540000611646803,-9.53728827899226,-28.714411344201018,-31.444639494564882,-10.227416244376329,-6.072723080413527,-1.0802369477247318,6.129832293557195,-6.7023205583367425,-10.951065800290083,8.073466823481132,21.74493783760712,24.330322803936554,21.91415918867435,11.891252189887751,10.82519694171469,30.513057128502012,51.026174559913564,54.2302572061807,42.78044156245291,28.7883608756176,19.93338609502684,4.438121509645352,-28.204205701531933,-57.284747984312084,-61.19112403786325,-51.518466960424036,-48.27228219733024,-48.515891986593104,-36.74802455618372,-18.771853034255166,-16.091457874523954,-19.55199680237301,-7.112454060572096,4.7777840843230805,2.471133909839766,7.1512000638669,15.409414022618819,6.139680507663186,-1.9437965524486485,9.553891123782357,20.97070610238911,15.394043804833517,-6.775719162677877,-32.303050721604635,-33.750917842870244,-11.63843014288113,-1.5842968594168028,-10.119622107263808,-13.76580186360604,-12.779199429209925,-17.623867838748822,-18.254972243872654,-8.838224763908174,-2.953650243705173,-7.167548567728925,-7.8921415053384285,2.3150268494915203,4.249589553660322,-14.120385149191478,-33.73269977572166,-47.89264076133553,-64.40990820022724,-66.09379993190956,-58.95729339937186,-90.12580247521154,-143.73277752384712,-89.70875240742168,218.10478816131837,650.6643776862757,679.6491945258181,83.98052509100535,-465.40387417786434,-383.69575570665427,-89.45671633811159,-70.53594457186142,-114.9892580031607,-44.20148063016762,-19.121020716000366,-39.621249984704995,-14.474580494174646,2.382913762014333,-0.9916053107469356,11.83544663436993,14.12691134064688,8.190641908686617,12.28186365320923,3.518225367606501,-5.99973811848194,1.6116064842684104,-2.9744845907888635,-13.55296137872326,-0.9865898568090978,10.868457379507861,9.410211813965068,23.63815469055141,44.33925115239516,39.36096460549218,24.079058320421264,25.264305835610863,27.30936305565545,8.19099244729277,-19.064673191448414,-34.376856115880905,-40.88124474495655,-43.287213994180725,-36.983691461417905,-29.01952285595899,-27.5392389699183,-23.03059732168737,-9.224828902140267,5.465129438651502,9.902449820006536,-3.3984402728796965,-25.31675905382077,-34.26869729944674,-24.92474077104456,-7.395848895129621,4.976479926968079,-1.1420979695880895,-15.874540240513344,-15.786763853878785,-6.366296826155711,-3.093503288512135,-2.3606617810920767,-3.6103315315338698,-6.495539852807006,-0.7692194394320673,5.72528173214484,-0.8132751760801753,-8.230170364642394,-8.748186895006171,-16.95208438194278,-31.083669512866695,-28.95829477260918,-8.600440280727629,3.5339353121972366,-10.261435774734313,-32.11961235456356,-41.55906191845857,-49.94636195732182,-59.921846918486224,-56.18959864828413,-64.03871510144344,-107.42428939163425,-139.4798874310304,-69.76775696314121,215.77076334516548,640.7002682047946,706.4804029831482,130.41755873278282,-455.5725436003861,-414.2472772355772,-116.42673434303522,-77.51543334602624,-119.95191689581749,-52.33191481439525,-23.308876779689,-39.799073128738854,-10.114474604873037,4.025063115887292,-15.305618327759205,-6.622278115555677,6.232469155350031,-2.8126368790952565,-2.3494560957137214,4.012427917369969,1.6961501877393594,6.076341645720207,11.068290733623419,5.1873756267482705,5.515227949385675,12.515151914396691,13.121219324866306,20.747735554753213,38.16968614449378,42.7337630180143,34.890434523269825,27.928653916633955,16.31344765190611,-1.6616820742448457,-16.830135096004774,-27.080401058039385,-35.53127274861683,-43.91512040217018,-45.09901880925989,-31.47442507735111,-16.51826170717149,-13.910077913068033,-19.612709324300816,-34.35577314161863,-46.881770745958455,-29.08725709105215,0.7331896717766497,-0.19622131359829353,-14.21256085438499,-9.927850764225902,-9.407306993128685,-24.805008163525688,-29.61616244324467,-22.513823319367596,-21.13807631661716,-18.09199985057467,-8.319812229949093,-3.476926404969202,-3.4890568961131905,-6.720167499016604,-17.935131813684393,-27.358978190844685,-27.42141833307572,-23.266833896373683,-10.746547691178993,5.1046146234887,6.719045946854237,0.6477654234956525,-7.641998928061229,-28.89830658305366,-49.30884699589752,-58.857299776461495,-69.49050402409148,-72.11085971450899,-75.65518783959459,-111.92614583254259,-139.41766972318106,-41.97834648153305,276.98798574222917,667.5229068251259,634.0098230692652,14.312274254097645,-508.0105067376143,-406.83212870286087,-119.72944416708397,-85.26534881878881,-98.02120781901871,-25.200943944627056,-11.307902961475634,-31.85848849711769,-10.654618911180416,-5.172900251814415,-17.84418560364038,-6.842082402829838,2.150334605174276,-2.9069182385006584,-4.372356702388512,-7.446706610880103,-8.14087424292575,6.67149580397483,22.13260768394562,21.460603747901438,14.872703838169619,17.042269362979518,26.031602000742264,33.630653648990524,37.561240413370086,38.09298818068151,33.32597173201539,22.06167366810442,11.05226096357595,5.578961288799627,-8.69819105659019,-34.76374196220199,-42.244234292581204,-32.0480854117314,-38.11031644707403,-45.64040005051167,-37.0641564783023,-45.832550883746464,-60.565866081109796,-37.49877827679416,-7.454558037695115,-3.6017585406630808,-2.3994550240174704,-7.195705504985252,-27.564484451429486,-30.073903684665673,-10.350939579494167,1.6778523951737867,3.697229862432536,3.7115115813330988,1.31003869772168,-0.44784097078872875,-2.9021148144882467,-8.113187408688798,-14.773696619234876,-22.573131323649704,-24.911459099812475,-20.859311795651397,-17.65186744457394,-10.20208030550993,0.8930724130774053,2.68385131572502,-2.9773173282851584,-12.446470087306318,-25.933792529891058,-37.29142502053985,-53.70343579915082,-70.14106992616755,-67.47578456278433,-78.8156870900124,-129.62735100336891,-146.89923328246732,1.0238712401011298,394.6818320365779,772.108266581607,574.1862944018955,-138.46468486055846,-506.05556584992365,-253.69720712952974,-36.753573581452386,-100.16344270819295,-92.44853202050655,-6.349265955244405,-29.581906922233074,-56.771069151541,-18.854161624440124,-12.3334681664114,-21.114318633275495,4.330524719160236,14.20618176397258,-4.8611696781368,-9.66757965116998,-3.603370219232147,-5.857566201244377,1.95028136379546,23.505402569832317,30.371090292296373,28.871238401062367,45.22910104082097,55.75469430254,41.822861172677015,41.57803074662743,59.44461201119282,49.778341156367496,18.949634850238166,6.8506978380501025,0.9154508853286494,-27.62528521506817,-64.75142708335125,-81.84244160600596,-71.48479716662192,-47.068969101876384,-28.201919846778065,-21.054398397864038,-19.40574440286716,-20.688558664461006,-21.130867704454626,-14.3872299499446,-7.531040631468386,-9.911148432875468,-13.017279821958752,-7.190678981842293,1.4685178342258212,2.919388484339853,-2.1590389407568438,-2.1368486638871076,4.39841629222966,2.4736143943999984,-3.7366167678080693,2.080687821481254,3.2361543836624804,-12.577273974195656,-18.936568357097418,-14.141807504065424,-19.60951852922191,-17.976918884533333,1.9235444685463534,12.570774613939953,6.170580436575333,-8.284333140929093,-28.083906578804985,-39.380576338068884,-43.063432158905364,-49.29510987670096,-48.521570758220086,-62.28563968757625,-118.38857048511929,-160.48622827835345,-62.85830515901313,284.249584049988,700.8263945038324,635.276013107954,-22.162825635692272,-497.5062347522321,-330.60169329571795,-59.66283667736143,-71.8147656938355,-94.40454392469965,-22.668986251421885,-14.259644102531482,-25.148836383740715,6.032329587707265,7.145427981341989,-10.140282315624052,1.2495288271175822,3.948794201066784,-16.938532311116553,-28.158191281724786,-24.24338831997956,-15.035891365136113,0.15259309729458703,14.039394153336657,17.39888497180606,20.453474418944396,33.08391101617768,47.01987899242966,58.91992556393851,64.79573255006737,48.3428659215654,22.794154225348752,15.441422507143594,7.350407355006447,-18.446748662687078,-34.100764597295836,-35.330704881998116,-47.21233028858736,-60.831166321604094,-55.01818768142859,-38.34428918767753,-27.857499483699605,-28.118972217219103,-31.311825177501582,-24.984998925049663,-10.193742895956376,-1.3974130520774395,-6.014174333543799,-14.218989284615013,-9.576049356369197,5.611700689590926,10.462974604568048,0.842968994260783,-8.486446213673322,-11.28803056359871,-6.0577797457188804,4.2421288757114315,2.135802041496344,-12.318969587536568,-15.003824810547144,-8.071314323970604,-9.430118878633117,-8.835441900444309,-1.0509462847551259,-2.6675474201864873,-9.470448998220778,-13.210156701311956,-24.73050028083441,-36.99832531741882,-43.07179426796472,-57.49178732251657,-67.33563180795898,-65.75949737555553,-92.69162290443572,-140.78100386019875,-116.55000470312166,106.09760931555888,524.3372785727689,735.0046074586737,307.30236403746375,-354.54946570905884,-464.11953685192236,-141.18078963580876,-29.638270260617375,-114.67375634388819,-77.5750339026609,-9.046460940069608,-29.161881342185666,-31.705198801325494,-3.7198867076993807,-7.675898902520242,-6.913538633441325,19.340033134728596,27.077463575969272,12.554004918570357,3.010890774350356,-3.808613004362848,-10.441532731453375,1.4147566704972672,19.035019979850816,5.2464336401218965,-21.34210759795423,-13.691175246399087,13.774327529144673,26.229509602130385,33.39315236590234,40.351641567977616,26.143711180330385,-0.6190309650963197,-10.793170298239978,-11.3576240239209,-25.795337464741568,-43.538899157617024,-44.11310412583887,-35.0302965576814,-24.289553856231567,-10.644032833889256,-10.244490976280169,-24.155156167484726,-23.210578037206936,-11.591387582382389,-13.847276842865128,-15.662491637313188,-10.15931445480723,-16.172909581423013,-17.871904858857782,0.265351329436875,8.80788345634707,-2.2589653659605418,-11.880833975587244,-18.86612415899689,-23.623147075480972,-16.674219982654236,-10.701260295351336,-19.246032078867295,-27.72617608075052,-25.85649253319832,-24.347740914580434,-24.492014970210512,-14.517611571155062,1.8260602987935748,5.9296503023638945,-7.406164925318844,-21.29334283535885,-25.11370150588423,-33.865210019703724,-48.02881588613104,-46.83662379606658,-58.5418715528822,-123.10357995251871,-178.72661352864316,-86.32810446733846,249.8726475907223,657.3182567155324,631.5257922662149,19.07220588346007,-496.9956078756531,-389.0784100483683,-90.17763656124092,-57.08946265492048,-94.800045134067,-43.349740386208325,-27.15231180011928,-33.812142209054,-5.513034212410314,-7.688518431194574,-31.333965645862595,-16.262924680283746,5.543997147619875,5.832623104760165,6.436040722287192,7.936005059628977,4.84511847590365,10.012024620788925,27.618502858240976,39.14041306524868,18.36809353054824,-19.424931738100312,-21.812148654440307,9.457779434193395,26.673310303683554,30.97347619852274,39.947856089862825,31.15870810978887,3.1830988211607956,-13.678658164308194,-20.060431999520983,-31.354646440981966,-43.99457206387525,-51.93266047416536,-49.97051251084828,-39.82031316383662,-35.88493819229032,-34.045284647013325,-19.70574402201246,-6.689847642184471,-7.409193931451281,-5.047530192227775,5.654810046622661,7.043383422054109,-5.957433846274604,-20.046078537743263,-21.89692664155698,-10.510951788666436,-0.7184121380842576,-5.445107719520429,-13.739565162288834,-8.320880088206735,-0.15760156659685975,-7.2288688033913715,-14.091884117620513,-7.111687806026872,-6.228821927288777,-13.211637379755096,-7.622953574882121,-1.958612858942871,-13.708133846861585,-27.28706713684289,-35.40804003300774,-50.66234805084983,-66.58655005274991,-60.955962965110835,-45.94900419405484,-69.89356494560887,-134.5253585937475,-158.11620307981127,-6.963636236697766,397.24628088192935,763.6104943352536,533.2399153678117,-188.03845740239757,-535.3338216388221,-265.95320792392056,-36.08056540658212,-88.62028761671208,-89.61262739193944,-14.832725869386593,-22.553379807210725,-28.800728804447076,8.747170430647522,9.084524173764093,-1.4940223930469836,15.225263391579501,15.561594585745437,0.7916306131735582,7.070462255522901,13.920988686564943,-4.004350817693553,-20.432303933424745,-13.152234645313564,1.5947198803152478,15.261063308298347,35.37502926905756,51.19803213760245,51.41540993008363,46.19688895538823,43.21511477811115,36.55218439287549,18.51604520413707,-7.777690700886739,-26.6737097237555,-35.62795311013545,-47.102394122908926,-56.0611107531946,-51.977520570929244,-41.629572439633186,-29.10624134941701,-17.574884568388608,-17.616758725191005,-19.670327603379555,-7.144227082934112,7.197347652775088,8.421955531618359,6.479191503143338,12.479903633575486,22.60037092518926,23.088001826209627,9.462839375783485,3.468374619106031,15.155394048713397,11.640316777951728,-21.974611959454585,-45.518464985907045,-35.1032458698044,-19.955043389157396,-20.97922554294143,-22.081152746236384,-14.660528477798604,-13.793247085217153,-19.301586349796327,-11.393088712785381,-0.6830447308062304,-17.359212080812735,-45.17442779019647,-54.013342830911824,-57.13710643590712,-59.4797462157093,-56.36450418195051,-83.51719909926832,-141.30598446585455,-148.45903557713075,15.42881604330006,418.17038223701695,764.0007377059046,506.4648287400852,-205.91920850998608,-512.6147547930786,-238.6183139614684,-41.6082901781848,-100.06874990859797,-83.63269970981491,-12.697707100977532,-31.806926398688702,-32.156378859513225,10.358961307237017,5.2422603624707875,-6.566286894629363,12.361137201633634,15.229262940156644,9.279779040690222,16.968131925626132,10.625451143681675,-10.551649479757712,-19.876710324119884,-19.96610031087847,-15.504029665286051,2.809506164079939,23.338006685726125,28.097875452487873,27.480584958134614,34.87940739591379,43.78846161241401,47.94742946836007,39.51644812250284,7.912552286150444,-27.92865461845682,-41.40051214691894,-43.84031300059062,-45.80780802647598,-34.44412900232845,-23.61062286079201,-32.82735377919451,-34.295897948650705,-7.8594009208210025,12.081682796110963,-1.9571377749687144,-26.916454631698684,-28.536287136914176,-8.451161782814886,3.39152284978179,-2.6669537706505473,-7.917437738638302,-5.204399361808896,-0.3947002298407156,7.1446364935988775,11.988779636279817,6.297480372821127,-4.48544360843546,-16.006974077224275,-27.24187555525588,-31.845719676557067,-29.688301864081666,-23.471795152675924,-13.928800897795544,-9.621442505249298,-12.069815637064355,-13.601391035386168,-18.470132659224014,-31.439294226047153,-50.09391992279146,-66.05681563834202,-63.11527968402233,-62.39274374218065,-105.26272539051644,-155.1697149796995,-102.21424633161281,171.42860271131983,600.6320829999453,716.9289685454728,193.43143494438579,-409.52383403321267,-414.8890108996709,-120.96491083398186,-61.27083275141999,-98.57023419883805,-38.26087794039046,-19.618885323514164,-48.48409588156707,-24.618075618017638,-0.6563978727341429,-2.4488963332680864,14.975490438326561,25.355712595721243,2.0447357605653025,-25.270615609758458,-35.67145316817659,-26.843489515657353,-9.088177403790564,-2.5964980692142365,-5.054685485792449,1.3655874144005269,15.511921539820678,26.34132213436059,37.01695894179718,50.24079726238269,53.075964107288705,45.719907586572106,42.76022373159561,33.7217225242157,8.850675770277697,-8.861031394342813,-17.598171890796635,-40.46082563590376,-61.30321676757113,-55.09167298222516,-41.633487575686324,-40.55794850233822,-40.745218816686325,-34.808865913531434,-26.20164179977293,-13.890414466627877,-0.525815571893002,3.3683231242222007,-3.685004669145041,-9.038602670177603,-6.23337461806268,-1.9213027046180429,1.6219169354506953,5.576145894202618,3.5061190643101785,-4.0916408949396335,-3.6570515778236263,6.770664932292858,9.486686644116308,-4.850183601476239,-20.837324514332995,-24.997328018054542,-25.337746119626477,-24.309668932510373,-9.936218171503365,5.635468740523379,-9.287414867614853,-44.39096245482284,-54.758714691331285,-42.784109335381295,-46.577778357931265,-59.08706048153728,-67.10789647160408,-101.4657533456649,-152.96101710153167,-126.77265550574977,106.05408588438718,530.49742604603,731.460395579865,290.04330313839966,-376.13543497312355,-485.6649561988416,-162.66603482082752,-41.64788434837499,-107.75346290273231,-65.49686959459177,-9.858231710784395,-30.371372487910897,-19.067429033248374,8.683417620742894,-2.446589863172253,-3.514737709604276,10.674485167888813,9.743379501908553,6.9972227223389005,-3.8604592165210327,-30.87051261573792,-38.711245722775,-16.646012541319664,7.693670693476598,20.83483589311915,20.1018533872467,8.038137122923656,4.699620582389545,21.82219096323921,43.099366134998455,47.2266231914048,30.479677881880377,5.675781505697964,-14.299960777871629,-28.028331881504435,-36.16345736512582,-37.90988684040737,-42.350244561984255,-54.449483278664474,-57.232240156517705,-42.48097553797176,-30.362685447280747,-28.497161235599968,-21.87435261036274,-13.783939175951097,-15.466196890477256,-15.474721290913042,-8.045952232204996,-4.735477328405448,-4.8536254723146826,-4.327751769940097,-7.983116369468746,-9.717091425442767,-2.2999037132750964,5.1253218077004625,4.769524128314149,-0.8654053663673551,-5.226945056006162,-2.7215588630213503,0.9056514958084776,-3.2592580928260055,-14.73889160188255,-31.44375597914184,-41.233583338922294,-27.716932931371154,-11.785916032226478,-23.07876131178224,-41.776476572681965,-49.73149114331633,-63.86800399911386,-70.52786273750851,-56.91542591702855,-72.68898723012003,-130.08194600881558,-150.92864605444845,-24.114658165757874,336.35904953270386,716.6913858532195,575.7898935214437,-108.88717577353145,-540.2907054381767,-337.0926589555718,-63.61177971280247,-68.53620607617464,-75.44458902642323,3.8682866401832925,10.09621915622838,-6.495463084046852,24.123156128053395,22.56154086180334,-9.774639799192355,-13.046204293537386,-15.446380667352294,-33.74469319428907,-33.35674499831056,-22.484873742844858,-23.811373843686077,-22.13427717496618,-10.456595647448534,0.96400747087467,12.367280969918909,21.264361431499783,28.634208215058443,45.95757864528956,61.871455046540646,58.30528276668347,47.14932714000085,38.15483796520359,23.03007307885611,2.30154583592104,-19.38567948751466,-36.450448548215505,-39.74721468777445,-38.598534575954936,-44.314530907671504,-43.99305291324899,-34.00337119740469,-28.169929824453433,-24.58172549312695,-16.90590833594014,-9.088678597195234,0.19454512841987182,9.982139069471383,11.487075514951933,7.264500183694189,5.925984374675625,5.703961528263762,2.5188184490828167,-3.7870190736165306,-11.639890060927904,-12.935477019025186,-3.7833281411050717,1.4684092042106016,-1.9150302139604563,2.3684851426336895,5.476820583749529,-11.755622101409118,-21.12814914765155,-3.713027917328949,3.4552348950731258,-9.473463645546737,-17.98364802835134,-31.49427793992696,-55.68757970865268,-68.53857337773607,-67.44704767765806,-64.02787087905844,-76.55179369950467,-122.47766628980163,-162.966641680823,-80.13091284137607,254.8287764702886,698.4305991350733,705.6657485930109,83.3334604576458,-447.300168245161,-329.4112004238114,-40.442405609419495,-51.61617225765748,-121.00133190127103,-78.94106078359673,-70.63522606461225,-75.65773811580345,-34.74878244513779,-28.487213016464594,-42.816430358150114,-15.572124887348984,5.867190134839705,-4.156487259276872,-5.8258188743871155,4.339799703948422,6.564318662029577,-0.7225044382900929,-7.355944488967118,0.1064440840536478,17.889782248900016,27.911141843318916,27.065703205744427,26.130243629014906,33.36686804806287,46.21271176608498,51.52617252860502,42.62050693908958,23.68000225979123,-2.3256662958776637,-25.779200166240365,-30.328916635162933,-19.85179707125158,-16.373711053495008,-27.39759003919344,-41.412342429374924,-47.642783933666074,-41.84570217558371,-25.53536226552127,-11.441914776736319,-11.877142864041716,-15.97538719930073,-7.697599485209205,0.4892393321690207,-4.541466623922426,-5.7728208060847415,0.5511002243255074,-6.409997105308992,-14.927921169490666,-0.3739034214100947,16.06347829602258,12.247152507179418,5.1200547841977375,3.437141836285056,0.48807338211763707,-1.520741055624745,-7.8724444443125705,-20.11275551028031,-21.272020994133474,-10.880469544008854,-2.7853310613785673,-1.6500245680889325,-15.538099885046961,-39.979556570567915,-51.59231212016485,-48.54631292186883,-44.22201640860983,-52.14418163545544,-97.22815445195631,-166.2251835603878,-147.44445314264672,119.48760809971812,578.1626822675893,737.9920487894155,235.22293991077623,-407.18889252225165,-460.80422148834487,-144.60803945647666,-41.75163211635299,-81.23059329148492,-28.36140338538084,-10.601399547749551,-62.43951098449515,-49.9783332115321,-14.862968617420591,-21.864522544719428,-15.342115068182792,-2.3822036392529764,-18.70529208241999,-20.93954158760951,1.818845490075324,9.314876274958799,4.635796774291116,4.425579472702637,5.804341931281589,17.560416227939875,36.136011011187236,39.65678057957133,37.41438396591339,45.02491063627511,44.008391230395375,30.453456970867734,26.754753754270794,23.749253525036565,-0.24501169740246098,-26.538365208138465,-33.29754715863487,-32.67945977890172,-33.28660116790061,-28.787113732238133,-28.892469424252102,-42.69537504746196,-49.215618939719846,-31.4925505180084,-9.079226570555168,-4.098979340436188,-9.930684630064945,-11.826022259113632,-7.489444769415897,-0.6057553926705772,4.959300170586484,4.512928897921462,-2.7177681325757597,-8.82059561420661,-5.687245881084149,2.101904580299598,5.697175864515895,5.490124461839725,3.40890826693866,2.492976086048193,8.254597625910225,9.26587873815911,-3.7032977785735994,-8.19754989303281,-0.4304255256485092,-13.322597501489263,-42.005547146692365,-50.89579172655773,-49.05402502882424,-62.22582325714126,-74.89397553317923,-71.4108824224657,-79.64949783823528,-117.70297429194194,-153.31082492303253,-117.10709560877463,121.31985400418745,564.5013657713262,758.0193885202386,281.74990071226773,-376.22763806295694,-451.0815177787415,-141.97723129936495,-52.24052109107093,-110.96999646372785,-50.755360586618636,7.067544382756765,-25.02593141654671,-40.60296575071394,-27.575418654741448,-26.282759907036695,-20.54762554404051,-7.049142324187761,1.13821503231706,-3.300614919129899,-19.115546475501155,-19.990658694689074,-0.5034078688734898,6.3993727133444,-2.6049595166642963,-2.2116551738887633,9.007977938067922,21.75377571879005,35.98524195991632,46.04872258741579,43.847424024465596,33.20150217082065,23.975983971226135,18.318047426490004,7.0079293479199425,-15.685199809420881,-35.241469262722475,-36.6034049059111,-33.67902406416308,-42.334420679161525,-46.97760486620875,-36.79988618752401,-28.872926009612893,-25.715991900107788,-14.08482962592975,-3.695747349996793,-5.5261943112917,-7.0634797284768425,-3.1212239251443776,0.8181292323834466,9.305535922866776,15.191333248609173,1.998845118974593,-10.670343316239391,1.655134867834846,7.951325688423509,-16.067190914905243,-30.977109303960077,-20.026433129391872,-16.8704399822871,-20.498494029350802,-16.20396641160111,-21.800689190769184,-26.271519342693036,-8.59560584061121,-3.3179595423614288,-26.172461212890067,-39.88237951736032,-41.20439932860196,-54.111082325858575,-67.32516080124856,-65.89264661144661,-67.80982979276105,-91.43798826870744,-126.7002212097247,-113.6577651186218,91.22562589169374,516.7686155657811,739.2359519441595,304.8766353045325,-375.87778442204836,-504.3121681493917,-184.71090688705544,-48.97781306128927,-95.8488136527076,-40.77687053856765,16.667887070331112,-13.548043485325444,-20.34686213579689,-13.695575840684555,-35.87543614178527,-31.78807333220004,-13.086119471790584,-19.452187884490996,-22.244993132310693,-17.47160143722981,-18.583947940520748,-5.998724347971317,12.001290253574979,14.159567479196348,15.186386233766054,23.351148230715918,31.702301992072286,41.96556499365461,49.2671659944798,50.58154125370612,51.54879837130102,44.20408388757332,25.382606820846867,8.996142381964543,-5.609652894514269,-24.21391783339296,-33.92541721759667,-30.803710774895436,-30.05573746451209,-35.1843703634693,-36.280779294907916,-33.918534433119106,-33.388058024468236,-23.60790392988651,0.6548671870545988,8.568938106168478,-16.940433053730615,-34.331561874301556,-18.976653605082703,-7.833469204494211,-13.343993578957726,-7.245077674133867,0.6789129721183187,-8.34610081623742,-6.698961752484147,12.822365420176578,14.375745932431883,-0.9043769358346587,-2.759339036138428,1.525632274629377,-5.06001034613487,-10.965687612223913,-9.963162135832857,-9.661575984217473,-9.224450736901067,-15.284077197487871,-35.679631351623115,-51.845618406356294,-53.48145520094022,-52.0350581177875,-48.59743911509399,-60.86504979163743,-111.6212726644797,-157.3885203338491,-91.03261257374024,214.7958540629022,666.4300962884353,728.2378606566031,113.37629795128967,-489.1293352441039,-415.65488270866797,-96.77492584531707,-74.5783978037467,-123.09323412663562,-44.4011054732493,-22.258893577783724,-51.03558292613802,-14.260002838558046,8.668566118535427,-16.857468934086633,-14.051194738040298,5.889231795657585,4.549428072026609,2.548137057928402,3.5003534788296733,-6.06310297615969,-13.233424911539538,-5.237139965302667,14.094364238552089,32.848458562086904,37.235323769302475,31.946626381821734,34.796136561901214,43.50419334843136,45.49095407029087,42.27572113760251,34.92381743227054,18.589438562159884,-2.339113003816144,-17.638105536625883,-22.847172807262883,-27.35418500046746,-44.1316931978387,-61.13435709566369,-57.97223551964217,-43.679366284958185,-33.63666426303261,-25.63219593751782,-18.738151744043186,-13.42951398174846,-7.749477593905617,-4.08640969078991,2.408244019362982,11.508291348607216,5.133511785777689,-12.867830360180697,-17.70178053741891,-8.659392359703377,5.65717429359449,19.000511159118147,11.86938278359428,-7.5063835931515825,-3.535550736818948,11.793791756672519,6.425053997669954,-4.476725277933184,-9.890111160322459,-24.018369121080113,-28.0439073901832,-10.811750719937216,-11.571108521442852,-36.46909794287168,-51.47266470568839,-59.8768854403815,-67.62131963318086,-64.26421220436552,-82.30396743975788,-138.738168929275,-144.4151544757732,55.34724947177719,483.14234343452637,761.0059007214707,417.49293549175826,-265.52274418479635,-495.07815530542433,-224.0777817632598,-59.49483540157995,-108.9516225125933,-85.44597586184364,-21.345894045818184,-33.59558292557466,-40.876670055085675,-19.785663641264613,-11.886406572797913,5.714371676953979,19.44164088265575,2.6823768284812637,-5.166630998098331,-0.22155172583737048,-12.871881671988394,-16.38509200064852,2.345674514368347,5.873066463411863,-1.6667416158341095,10.17382649946774,30.346169529052162,44.324601477425716,52.84849401414728,42.424709651080306,18.46057107505255,14.592774006516589,26.33588364166778,16.070870021095345,-15.617302482216994,-37.912455779702604,-42.05168477985557,-36.74359306991418,-28.153912579838384,-24.90650799716461,-30.018064078666296,-32.52324300407449,-27.168078541055287,-20.37239813896418,-14.212400029990121,-8.178500682785309,-3.6840822082192517,1.131733875332836,4.836405894087344,3.9362304346775314,2.431077595445741,0.33939781186391116,-6.662054447287563,-11.198403804181064,-7.598265934489202,-2.5357107110803447,0.8667845478748664,0.2097727833587335,-8.61846294519188,-15.538419586641496,-10.930726379557107,-4.99822310735712,-4.58821415143969,-1.0192994692107593,2.0472846339146944,-12.025406917665823,-33.56379914661437,-41.287027547272146,-49.40235802099074,-65.3429689418004,-66.75049707235387,-76.10136404858736,-122.99688513300474,-155.28036407913257,-72.35801920174302,235.02156174966856,655.4748919137758,667.5976864372233,64.90900683369725,-445.6942109492669,-329.72819173904867,-68.97447664498175,-88.91696331300487,-126.52881927334923,-52.386139650170804,-41.294369966853054,-62.03192518854533,-29.510442618103575,-12.12186993445528,-17.61635614627963,0.19663044337537983,15.898744125088788,13.796196408853783,11.524517331912786,0.16491977583596196,-22.276644458644387,-27.318881087797315,-12.433630731712906,-8.13617625611737,-10.233871604881688,10.247977853024825,33.313535485059326,30.297566329593316,27.968910580233725,43.79452578888161,49.78998892133621,34.08808950977785,11.07763378685236,-9.033816359234162,-20.786788764827303,-24.551674044805164,-25.583655919511553,-28.55399826943686,-35.861895559967564,-38.7953186937945,-33.63405160870146,-34.382805051367164,-36.99469160856873,-25.67593788762249,-14.168615073942604,-14.052942860373793,-13.200280767039501,-12.4853230387364,-14.242591061877398,-7.680652096481015,0.5035607359986685,0.39117264768743,-1.9104314363356778,-6.479851631065841,-9.026695830184973,-0.839531318949593,0.2997799632624627,-15.720171781762339,-23.93248510421032,-14.072219040155304,-2.2478795807319685,1.6817763294938715,-0.1683343698698785,0.8880818710387466,-1.633071321382122,-23.042756635958234,-39.766493581268165,-32.900668149600726,-36.69261833225535,-56.59717377731718,-69.1357101840303,-102.82511673748624,-164.0634315569854,-156.06774862765585,64.0120192631954,490.28962481782855,715.7678092243159,306.11884023212417,-364.59269713439613,-515.2584558405728,-206.11421452764176,-51.224583674758094,-91.56801129010879,-50.21360466688432,8.340093933360862,-15.948777946081414,-29.60982222702564,-16.76146013602487,-26.228199406656728,-28.913489897546484,-10.190379596948379,-4.521299111596303,-17.015820190365154,-23.816786760914688,-15.578498239259428,-4.909314402339184,0.41439289747942,9.73793690296141,22.234812740413574,24.910242874770674,21.64507038584247,27.93833984609644,47.117506176482095,63.07617916722961,53.635587516154985,23.873105804428924,2.355589818674,-8.163742665947055,-24.73949701625171,-38.968127450129394,-39.463956612094684,-43.61631996445708,-56.46165817003473,-51.8676759057853,-28.17239733903109,-20.012875083204303,-31.379280257286517,-27.949749630441126,-10.581165294311127,-8.639414357523393,-9.519466073250618,4.807234385614491,7.220852370443843,-6.704637023448312,-6.06959373063521,1.3633038939627156,-0.20432917639329595,5.083301768215172,6.73730598406372,-12.321928125553795,-19.622169831531224,-0.2545866541623809,10.240766847095674,0.5570330429831376,-5.1336624809673665,3.947893819742264,14.859243968738522,8.870547936864602,-11.367657108188729,-25.519431595550547,-37.09803436088447,-59.037979911093736,-67.93665613338572,-49.748499335867166,-47.95616165469189,-90.74487898218658,-145.72581455407482,-131.96756897564774,116.61186636300906,598.2425173081656,778.4176390335514,225.78734123860576,-461.82754027888984,-487.59997847380305,-145.26961071256372,-64.02383327938055,-117.67092161995785,-51.02358877336389,-15.853989980634623,-52.45576245759781,-31.929452880058456,3.771447895040488,0.20553041664422622,6.0782844818231,15.108077046821496,4.785503093193865,0.7363532057986308,3.97756270472276,3.7089485243426554,4.344768026292597,-3.2047105952343298,-13.24732631438707,-1.9596288030124964,21.52361345055342,34.34951405210044,37.35537750463065,37.27534461985257,36.95114968847652,38.72376951680378,39.1429451368068,30.847749834967725,4.432221107072266,-32.61235278852759,-44.5507480877644,-24.826039368646597,-16.062039702174438,-27.88606850074025,-28.19974162967555,-18.782951561495814,-17.929725745585188,-15.41146510791867,-7.583796867688726,-6.370731026892052,-8.370271185005118,-8.167240989785125,-7.6476414356240925,-0.5387267374830307,13.074246911345254,18.6693767577545,11.860485079569392,0.6461261671633576,-11.282809627472785,-20.405134046244562,-18.247505448179144,-7.6400577660411955,-7.754273900105037,-21.876838688709753,-24.810037201612907,-9.378812382404028,3.7836855962219866,15.829638882751679,28.780820889755088,11.083192949986401,-29.30128502283722,-40.99235780360165,-34.23813798153446,-49.008037520360176,-76.47895254424482,-111.73547370579769,-159.91375242897905,-166.75512182025213,-4.730920728700653,403.2781813841158,758.4816766550682,516.0466634741814,-192.0881319770993,-519.6338609471376,-261.7351716754781,-57.83452211746031,-111.68610197231664,-93.70181174369904,-5.651265424810745,-16.732965820320096,-40.00370351339853,-17.489999336097583,-16.090167649652265,-21.22930572519492,-8.859332703121435,-5.537696665784965,-1.8358624895773872,6.246948021326418,-6.636809310510145,-22.34440410400444,-10.298327788522569,10.869479988917929,17.934584907707507,19.22332354979791,21.417633135238532,21.476699956417814,28.02460744114687,44.11392107237788,51.989531811016185,43.03234680621733,25.50675182862619,4.417308446959985,-12.67665552273425,-20.356752052387137,-29.05445595383447,-37.848136216853746,-32.89600043728467,-24.98107263759715,-25.602233383872274,-15.143586014348841,9.203638388999433,14.974111858063477,-5.5093416339178845,-22.383836030577896,-21.5146360243348,-17.369985867250204,-18.281294833256613,-18.26997656260996,-15.289599628004584,-9.82280059088998,-0.1278905841378073,7.138230410328183,5.412881896480233,1.605873621825607,-0.834455153629392,-7.046392928014562,-13.199417044271577,-11.244873354696425,-1.5564160731158676,6.706885092525075,3.3531533623970624,-4.6623128177681785,-6.407964323785743,-14.110741782273223,-32.71296887409773,-45.45939181187344,-50.62785669356916,-53.021043422158534,-56.52747359981218,-88.13304629121328,-149.62392695038113,-137.5803368361154,117.95910812022917,563.3221266887907,700.0085491941181,186.36324407775862,-427.5517708995345,-450.7805512778089,-145.9786271105314,-63.13854922770055,-99.70994600076489,-41.80629061065389,-11.878826575238222,-33.07136573711042,-11.807365541401495,1.1092080401836562,-15.203918837967997,-5.6646468154730965,0.22005793692306774,-14.751758460639795,-6.010035944534069,9.415451273905742,1.0395413402844458,-3.9439626386765365,1.5365462832031547,1.2177760584432282,7.194409923983821,22.109324518358793,28.031480346026584,29.513519770446088,39.443852121929964,49.704884826788366,47.89928079248103,35.15983099005288,21.2222540299362,8.024535941189477,-14.00816950389861,-39.9988313950374,-48.15135113342181,-39.696897034749625,-37.190843780105894,-39.60070916562954,-29.384238841025418,-12.575504490308333,-5.3624942692007505,-1.8294769341024288,5.631398674284053,3.519297745594054,-9.456454962956574,-8.192189695235204,8.530218405645561,10.890858899299705,-1.0149751968240768,0.4718250568058373,10.029416542982627,3.3379106715793423,-11.799359100641642,-17.655013224902884,-21.153364220948916,-28.47576362964236,-30.23212708261438,-24.563614889049873,-15.763810270630536,-2.518132393098801,12.055689907612365,22.047279136560196,24.048945860509132,14.47879169222515,-1.475307247344574,-23.075551433509695,-58.95341594082498,-90.49464392299276,-104.58192227841158,-134.19643043840276,-176.92488633081302,-146.7142321332908,81.23571703982086,504.6272142211891,725.5623988477391,312.71907305955824,-345.5412424084627,-470.12636917173296,-162.56937685480716,-45.66737558365079,-113.66320000583353,-75.28017015320428,-14.550699895622685,-24.307665770314685,-14.986261058893746,2.8247735940811687,-8.043820541054018,-3.997013532709353,4.3942084363485865,-11.37507249852607,-17.485836081057904,-3.9930543083084444,1.4280764084207647,-0.8596616942489419,3.8806688744347886,13.437468033253504,16.67543408026076,11.349282446300332,11.12298114889158,23.434681151649112,33.97669015269425,34.300889540687706,33.07569726713576,28.173500749824793,11.67751137798174,-3.8670643012623263,-10.618289125880068,-24.916839563148073,-44.751437534624635,-46.137216661584695,-34.9078935171035,-30.915011487226554,-25.167909734020107,-13.723513060980348,-12.416171528122202,-9.898802877776896,10.871664590840098,20.53507515997242,-4.775731444246642,-31.271922119202465,-29.062758790960864,-17.177972191923338,-13.850694622983585,-10.091319850004698,-4.555036113045151,-8.031667795293167,-14.338884757938999,-11.199230952485166,-6.462620984205721,-9.292746737088038,-16.27429969316637,-30.090615330663326,-44.9280604351114,-35.545960170665225,-3.6804436781331553,17.465752641227212,12.768162453866086,-8.280413249465226,-28.220740002381746,-38.02811767403976,-42.65219670471923,-33.19769962828297,-23.98860881483582,-80.32940322749477,-185.6646586822889,-201.66980282952616,-1.1687331296555783,417.30649218470734,727.7322451874218,441.78872582248414,-252.8105902458954,-539.3024579058094,-267.4137548704763,-55.76871730594925,-86.98162495401499,-76.10411654898903,-21.33214400292104,-30.564026773067944,-22.067323392343056,17.134797560296704,8.257208695064993,-30.098256107236207,-36.646882102864936,-0.456424326742944,32.70402448523275,9.418637674293652,-37.22924719649931,-30.493032286971236,17.37206661120269,31.19864506020878,-1.1295081176932862,-12.375941170787609,25.058811195910877,45.553047433272965,25.440276453102292,31.248558898026484,62.962166360983794,56.33475088097483,32.60187394164627,31.359195367202318,12.621932137335758,-26.41910597013636,-32.473058332274746,-31.46387185460444,-65.61561112333172,-73.6431308698934,-25.98482059475953,-2.648065558622747,-15.975921649792603,-1.742025061311594,13.281441221868457,-8.644890830339211,-9.899708124531887,12.246817905281159,-4.6542806125978355,-22.461596597365844,7.5718884371981865,14.502615033614827,-29.66207185999068,-34.39361875240896,11.378563252596354,14.381428957876137,-16.99458131970111,0.04027065017913789,29.200493308216252,5.786382004288894,-13.962534265655759,2.3053024651691594,4.220906117267629,12.086625532561122,55.68745322510664,63.73902696005483,15.4791590476447,-13.332246421112039,-20.38627060526026,-71.54034850324354,-147.7637264308723,-153.6213154597268,-80.60113701340015,-49.51391095530588,-73.61435883641755,73.46940561046972,452.0905343783802,624.5927176619829,241.30319891705847,-288.7151456883834,-379.1017028453215,-163.20338456108442,-77.29861739649391,-84.97219754895288,-0.1959609284105852,60.53911667314636,5.268729009286361,-41.951478216538845,-18.350269281264694,9.009958693078534,-1.1401261988003588,-19.65543268424088,-10.581240357536739,2.395373972544836,-10.882587730030844,-13.292442765124285,9.086699330524349,12.385143674814813,4.852646421661184,16.502126192934973,25.36505416655873,31.831853566253038,54.929176791071946,62.65460232902999,45.54936665613245,40.921282277855155,37.66676146252407,10.136181061578068,-9.343692181652571,-0.5307468152020514,4.895973233630282,-15.4953387478737,-52.07737661837837,-74.46161248486045,-53.10694279384891,-11.671395124606335,-5.184934273853823,-21.946652743488077,-2.4459386940762795,42.59215404881136,44.33595719483098,-2.8327907587442844,-35.35739622648754,-24.001246683227627,-1.0522440431995967,3.1235760596336446,-5.732535624320657,-9.50354720417418,-6.434406729435002,-5.382361415447241,-4.8964844986568155,-3.2288721830753744,-7.794460159130896,-13.355292735606728,-9.121225709985808,1.1979263575042087,17.291324939992393,33.391402840601714,24.799845701713046,-4.2987969866962255,-23.24298136219944,-30.566879387160864,-32.99232777326128,-27.71591276854922,-33.840863220219376,-62.7196142226877,-92.28472688203334,-83.8027759983353,40.514096276070816,303.2937897160348,482.4161461195723,295.92996233496257,-138.11962449669252,-378.9881841457267,-272.31975474678904,-95.0941646759265,-52.80811128874201,-54.27648858207391,-15.322218531655231,7.834440001084722,-6.631672292564115,-16.284795394983917,-9.581431025916883,3.605029092401277,15.261046630715256,13.528009637259505,6.439303390501305,7.740168497858569,4.177746548387768,-11.300655835389403,-17.893617698634905,-6.9816888375540245,3.8413688566811444,4.878786007869333,6.729160197733205,13.453570394443684,16.752789333349725,20.951118957395067,31.41126082275657,31.79815272491373,15.854376448351971,0.8144329868785984,-10.406500270780265,-25.6606918388193,-36.32692406411695,-35.596431275192124,-32.61753587864266,-31.76362865068427,-26.09222771714937,-17.543457936258662,-18.959551078372627,-23.564581917943002,-11.699934814160212,4.371352958321971,4.367363456684924,-0.6249646629781083,-9.655596114875102,-31.255974403933013,-35.1908258553008,-7.330328015989462,10.411012162972957,-0.8050108217777918,-16.210974563150703,-21.940143128060463,-17.673026340416122,-6.908895939131607,0.8329219939124286,1.0411192126042756,-6.537938320347788,-13.404054513679476,-8.049700103648961,-2.5535798250330846,-10.89849217119404,-30.62468107152624,-60.64060923401532,-78.95175103617873,-70.46130351899467,-82.52458465228347,-125.70003497874754,-90.0016083873844,141.44920875083247,488.1325446199822,574.8186440028846,144.0434104096007,-387.65432467729084,-439.37259716522215,-175.40257673425742,-69.1704424997967,-83.82115280999854,-30.686019932399304,3.578576404237367,-20.526027051578566,-13.522537156854325,9.413267297312963,3.9053678794700737,-2.782960983916606,-2.648416078128726,-13.200684593224498,-23.689680387048938,-21.189263326996752,-15.722941412640306,-14.57236104656586,-11.21413833682349,-5.41550635201666,0.6955101051301149,13.224119250747261,28.66610479898193,39.83441623643767,48.027449567377076,44.882238247584354,29.385513604767294,20.71840812988099,14.943994839123388,-4.751566595901243,-25.60245068349039,-37.266736925688946,-48.825824027929386,-53.605608189989354,-40.477506755552476,-22.084572361302563,-17.530529656053172,-27.85350244189263,-34.85406172032331,-23.740599328231617,-3.8261383806344718,9.095167851934947,16.316865016911283,21.918969151026463,15.197193131566346,-6.052588712745786,-15.07016996956056,-1.328325724238141,-0.5760420334341418,-24.641502421173538,-33.358365236939434,-19.435868365658504,-16.264085229040848,-21.57223299375893,-16.42656163952062,-8.180009411417089,1.3820545737858883,10.50735758150535,-1.794354647230744,-24.336990113172373,-27.750760679167012,-32.20911791427142,-49.28177048266974,-45.152279804436475,-36.263518561943584,-69.20834877961133,-117.87557015768095,-83.7013728675434,169.77986537546172,571.4648769284236,627.6573527080502,83.16318883402708,-445.7740363535474,-388.9507355132383,-107.87951026058073,-54.12584583966671,-80.04414338426686,-41.249493565521476,-36.661765278218624,-50.99945937855887,-33.450826122163825,-22.946175036735703,-10.763984759711413,7.196031294351098,-11.94693451687148,-38.25684059819881,-25.549934433392952,-4.543021849763985,-2.3089131304132025,-4.714470002683715,-1.5974106612032752,7.810986148580181,19.4857516317991,28.63299989907888,38.536420113518105,47.20522018902281,47.807570982719156,45.77349450731156,44.35768441160596,31.67071510603813,5.800340100457517,-17.513511133060963,-31.977942934250123,-40.364818116909824,-39.5112928416605,-37.389434259515916,-43.63612724321033,-37.864324193581254,-13.183562333262337,-4.931211569208006,-13.912995737315804,-3.129905384586529,10.793662806960178,-5.084872814855601,-18.862744924278537,-4.55781453791505,5.923087709783504,-0.36181059390082915,-1.781931559625427,-0.9216770881169154,-13.306833159990862,-29.12836782720686,-29.151273046604498,-16.441994958135616,-11.623013795687797,-15.890240213501514,-10.435758850359848,3.300233973439383,9.878202200838189,5.576362422878244,-9.877795480583769,-28.113319891370494,-38.258603664960106,-44.73244324887443,-42.289854561746445,-36.386928453379504,-68.86111179195376,-129.62967845035934,-113.57970293768255,110.43960316426492,518.8091438181427,700.0218463431936,259.3235775011052,-377.9324073546235,-471.2765533958234,-174.2344913092261,-78.94981841848598,-133.32544371443876,-72.7690135174102,-19.47992564490697,-49.089222153598385,-40.95940903149018,-9.622485707986733,-15.710566479107207,-13.398027526987516,9.557040197692059,10.319967818527262,-9.290047403365651,-15.447471652313974,-2.5775835519839916,2.0266533190078864,-6.514702562815755,-0.040783166902098156,17.839618171324414,22.563315579272075,26.993262609564223,45.65071519134622,61.5403849978706,62.714024811139,50.165282563059336,28.624527739726403,11.282503429545432,-2.798211785604126,-27.258528314018687,-46.67975400337035,-38.77429971464134,-26.48650374452754,-37.00337128156845,-47.2951240284902,-34.71969653255332,-21.76487249220069,-22.31218087441117,-18.94239324640226,-11.83108868570999,-11.949272232619336,-8.167309042103172,2.6510594214561465,8.279844123182324,12.137499395755754,14.169901958704571,3.3750290897957598,-9.39304986051022,-12.48824557652886,-15.096477952057935,-16.78598824537688,-15.748736072426667,-20.282804687120795,-18.79756754695864,-2.20703678175245,11.852271019994218,12.51034100447389,-6.670185556033488,-38.75715189757706,-42.08712282539236,-19.946708275294,-21.946353775658523,-39.17154589478979,-60.982744257755314,-115.44851204013486,-156.5205993757507,-75.05498545483039,220.29921663790932,625.7334900301488,655.8923318585646,64.69906616476756,-482.13015001744003,-386.0902047255544,-95.46662830723685,-93.79441666788236,-130.95866902098572,-47.75970556505529,-28.6131692540489,-49.888292242426196,-14.659768234056124,2.088484732406819,-16.682709109268302,-18.938967368577853,-14.862004172223388,-9.970598987505198,-1.4445924344445054,-7.137733370699845,-15.405799612645762,-9.842352779496757,-0.33467270500436985,12.27127857633116,29.31381521238606,39.43836288915431,43.23512162540847,53.513097370292954,69.37053983706863,68.54615861920306,38.078929984001164,1.7305609787173286,-16.54192608852062,-26.294748673404293,-37.59751149274682,-45.33190126568866,-50.55035773524252,-52.90861080380007,-44.96476610747112,-30.602489181983067,-19.87691169994221,-15.322229504530391,-15.220867182791846,-12.368204156661399,-3.1595463654023703,-1.9116441228690277,-12.73855571483767,-12.099674973247943,2.589134540540398,4.0479663011987785,-4.043338766229322,3.7768334308323546,17.476286325135494,16.581396151625313,5.921127069764353,-8.424500386198748,-20.928597109268786,-17.707257146884334,-1.913256804645611,8.660402216798516,10.7413760318572,14.132767171725186,14.895703127120438,-8.78405867056505,-44.00784850069127,-45.9259998825251,-37.53671201175263,-66.95110499518776,-92.13009909125374,-90.05040475797412,-117.49782992211382,-151.11463215787535,-72.15175434782304,212.17908345191003,593.7240442107538,627.2775518696345,87.01738027132956,-431.6009320246622,-365.23616671665616,-91.76805449944573,-69.43551332325869,-100.41600917886441,-28.46344197254121,-12.931662837221566,-44.346086969168056,-25.654674824497015,-9.871064128354007,-14.947081123321482,0.535352091137602,9.093319442644328,-8.19592479144621,-17.55888713583508,-9.202846179170658,-0.23433977775127346,3.563838004519196,4.975190698300743,4.51165897121488,5.19809566134505,13.26013718302766,26.598717753065745,39.82842084584039,52.199531969116,53.83942799256003,36.59350993077902,15.939578111048275,4.638302742821876,-8.057958937286159,-29.72100572431606,-48.71544968122295,-51.70081175740695,-43.678726702568795,-37.938796603603286,-29.982503690737367,-16.14106923487223,-14.785103677243697,-23.17035825303591,-13.528824121669652,5.204496111183833,6.158328908184114,-0.7222316716070409,-1.8211159893666284,-1.969343944424292,4.183919195466974,14.993347091420153,14.942205846965177,12.852456873582028,18.345075340272857,8.275337930840536,-21.35137599820088,-35.18482388210203,-23.67213209263594,-18.782806638472653,-34.162946181474595,-41.917619258554446,-21.490781700263494,2.1940007571873856,3.706431697509057,2.358719863349876,5.61884019213991,-15.570535870067017,-42.76351290154629,-35.667137903231364,-30.861562516305767,-56.22346744343923,-71.11549861037354,-83.50265325296681,-116.8451917372119,-106.6333853357431,33.25933326735287,346.77714147223867,656.69002018793,508.1531916069471,-115.86742462295787,-486.88858845351945,-283.1228454594358,-61.40422184256026,-99.84569407425764,-98.79795508356764,-18.97607115911528,-25.415424458875947,-42.684095502324695,-15.158550196503342,-19.131983564258842,-31.236646943878377,-8.912957371191931,4.159909998204542,-7.137639822582273,-14.733148836537211,-12.359123065728237,-8.837730880797057,-5.773620001147323,3.001313733798546,12.868244213055515,13.938425144647422,18.946303934368466,36.65080204038129,48.17354228060889,42.843555727296305,29.57839121092411,22.207072997480864,29.568694223296585,31.349126885429442,2.746177130216143,-31.677268740431128,-37.99222424797921,-31.122079975459208,-34.112471922249405,-35.65319458437565,-21.66619947334489,-3.5930687696415724,0.4387151455986391,-12.006618186656908,-28.73420775425048,-32.97720482600095,-21.918950974382224,-15.708713573074121,-20.809246538605468,-14.866034274891312,1.4103518990476616,3.4380559699391426,-4.508861555803676,-7.39376547941896,-7.5067787580965835,-4.184044939458291,-1.7744892117666353,-6.688048385096035,-3.9473052782247997,4.1433563986342925,-6.584850547598908,-25.102960367858344,-31.06193340767228,-29.915484519250434,-18.424724530147877,2.1886202255664617,10.742037721640706,4.809267710766084,-6.085611593792086,-16.455521785707724,-23.824348530226093,-44.10304485541754,-69.58830579323524,-71.51543474704874,-86.26758563738626,-140.0123953206379,-134.08828714492736,67.1423035268069,456.34964492744234,695.536800670711,359.7335149276221,-297.04014603114103,-511.08325714550267,-224.15456153545878,-43.31872333549232,-90.57958030041655,-78.74734995387406,-26.51624517899583,-40.11668080120777,-41.318609404762256,-13.124905182198525,-4.703966780294117,-2.974880770234993,-5.073203133711008,-15.613809497689651,-14.699836622771414,-9.661052101067941,-9.378969343286869,-2.227298712734857,1.5464225644137954,-4.608771233288211,-0.35842848183191567,18.98687262240905,40.01342769413668,53.19658080702263,51.51183958311823,41.68067795277671,39.566393811034736,41.22879957355443,31.51723961107257,7.3004240746084985,-28.026227791301963,-63.17965016010938,-73.6369724342266,-55.44599466528763,-45.035593104253365,-60.37020817159356,-63.68621237344592,-35.09154801759754,-12.350963755422,-12.937898454353054,-11.001527681757754,-1.3405718317203252,3.5862792558675203,3.533353470276147,-5.887140193635549,-17.237849738232438,-6.682592195432363,10.241529105239618,0.5121632695370586,-17.12184646063664,-15.197603555479596,-7.36514429111641,-1.3942325832712754,9.818648173769658,11.527026753554699,-1.5985650308368307,-6.635792966509769,-4.908718941942443,-14.792095679194407,-22.2015058076925,-17.699361469092096,-20.652620375737413,-27.720854116122883,-28.600535899429726,-36.63793240123107,-45.38456141772094,-48.81943813095837,-63.92903431846709,-70.32335618321775,-61.85983991290166,-92.2471711544955,-137.83330437821917,-69.35368647528458,214.05937520131826,606.7867001646592,666.0160590948511,121.59630095749304,-460.6125644059328,-430.8962134117203,-115.54217564264499,-64.89891923685062,-114.65060774359225,-34.24144543829391,8.87118268987411,-32.2291245285012,-31.64159756523993,-5.136267551309086,4.228480442637855,15.636340937729043,18.654050082591198,10.594746604756956,1.7859373298753116,-17.234431084663207,-23.28047388681008,1.5014179506225274,13.726101573168023,-1.3548405654143325,-5.322940521126464,6.275588304672936,15.299395445169466,28.24853549110982,45.53672222648214,52.79896707589086,45.2802720103512,26.46074542087789,10.410134096786978,4.1780743194107774,-14.737394764109421,-45.256631693382985,-49.89649826310829,-37.316883204119755,-39.83444179680715,-36.829476933825504,-17.876169783573417,-16.110132567895196,-24.3040595854116,-9.769880995241326,14.231646908654273,22.035121138576052,14.033459465805908,0.6598218629601416,-7.833341379321624,-9.924193218800175,-9.315264561970261,-6.094884661815115,-8.670360409808758,-18.734322382387724,-18.350064487917443,-7.122164391789639,0.23709580902568206,4.953485647577672,3.334114827697068,-8.91267904004044,-11.124659711173043,2.8675124474642715,10.533851169502903,2.633769009253104,-13.629870311950317,-22.62540671808195,-12.570060893661363,-8.042198294476837,-28.75247103969796,-47.50672494627589,-50.61945341114924,-51.65175893760121,-58.447109978382954,-91.93018637348342,-146.22518285099403,-149.2628778381341,-5.5208230306707975,342.02500813155206,676.547191964608,513.7463901675837,-119.79836243614056,-478.23576846785994,-273.4321290108878,-53.9017340843857,-80.41969546887611,-76.54649911938492,-3.914051021748506,-12.66322203809343,-41.11461941235252,-30.30539709750247,-30.438169562797405,-23.843072133555754,4.1838598674146805,3.8867585089031618,-16.41055594825699,-14.753426497125158,-7.02159844977796,-9.466964546570814,-2.0638529810145005,11.06399531187169,11.126133820480728,16.957171036751834,40.606782809138416,47.25907360656736,25.586762555934747,17.284386118644935,35.406295312547115,41.418327809835894,21.37581846567543,3.0194591777303135,-2.833282034863241,-11.1855108781001,-28.88068547790951,-47.69264038401964,-46.991298942869285,-19.27914810235891,-2.7641694299345936,-21.201312063334086,-32.970469687935314,-19.644251768944233,-16.5709422125756,-21.24295452235391,-11.24134589515365,-6.554238771430176,-10.156236880633612,2.9845873171877635,16.706982998960648,8.739399879841319,0.25515836360386146,4.431964758290182,6.300916200298344,2.2453493013954127,3.09482466290273,10.670377976538862,7.130316473073709,-20.862465626217404,-45.154536471475666,-34.527752000470116,-11.816780772627503,-6.017551772404666,-5.123267064372625,3.1759560893818417,14.390342682193793,16.484479838736664,-10.822187411442924,-53.18143517520104,-69.41622431516618,-68.62711039165677,-74.84245425048212,-74.36155389887915,-80.62917008351195,-118.92948434928788,-122.63114169253357,53.613599568797696,438.9793857445426,690.9204084778661,368.9984141413606,-274.35585467478575,-489.34533138249407,-221.29128134932245,-53.32443921500267,-90.10836714348453,-57.80901430829313,-7.313949433777935,-41.48777215063039,-40.39964558095297,3.068190091974781,-0.4444830365369654,-8.698845634499246,10.174506382128802,11.357079791496838,0.9554379240764774,-1.2355005391439793,-5.604826541989633,-0.8489743219552057,12.625725571007848,8.766130372413675,-3.1384019303432895,-1.4470912322570042,8.958333485878466,23.18411495671769,34.82463224872153,37.50574717801506,43.89588920706031,47.53169519813149,26.29058441409944,-0.5811373355698795,-12.086044074184853,-22.789621571403313,-30.33950134268533,-28.403136842953344,-37.144082519062835,-49.12280786471301,-40.650999695696555,-28.396740781579844,-25.531114438528927,-15.167579562334131,-0.8041408495741678,-1.0245596169880642,-8.685081302528577,-4.91573037059479,9.232097524893437,18.544647546278267,20.091750944943445,15.499498884010553,-5.348864736096619,-27.83649116863763,-14.141517327750975,18.01418844917842,11.754896318462684,-22.781260549426488,-27.496901233967524,-5.1693792146691635,-7.706326902220315,-34.44364941288627,-36.07674802956912,-12.21284649620069,-4.29829970467943,-7.389399812816695,-1.896505295379633,-15.116467755045978,-50.02209971194224,-64.95942352557466,-61.67531719993186,-60.301439320559666,-54.544613633023104,-71.86689732251631,-127.85481069435565,-146.62372397250505,-26.500382287837468,289.83277791366766,636.7170449509533,552.6728152385181,-49.46483068200686,-480.1571880517024,-316.1796601101467,-50.429474480190436,-56.55060751128184,-75.91335218331528,-1.2892574433804214,-1.8689915237842172,-34.81907062268719,-11.786667872184287,-7.498640353074862,-26.590185876530597,-11.449868133319633,-0.14523306326326946,-16.208434152761843,-16.63816495362112,-4.3519632604020435,-4.2035989205214825,3.537291911546299,20.547689837751776,17.115437230374535,8.031338953893425,23.20584818297708,37.833755961764844,27.77000763565475,19.93972456464837,33.39699919486265,47.78108976570288,41.570189467421,15.773769750271867,-12.483833125178041,-30.9584196038486,-40.5559625165548,-39.892481344585995,-31.46141859521454,-28.211988034932084,-27.885905178616113,-20.7885637456837,-12.938612606555484,-5.030069703658507,0.8809960900485123,-13.089166058219448,-26.705154438012976,-0.4669965403745069,28.879929582265536,16.00368794345315,9.344044416957683,33.07980105920415,22.981180938648507,-17.71064972691787,-16.661268758948733,6.838359207706709,-6.23835196971525,-33.613178677103804,-44.0126477723335,-49.46231923445232,-48.297331542486056,-34.28195642007559,-22.52722891515417,-17.64462654463649,-10.994856441010604,-2.6392805796845096,-1.4639598709166126,-11.529331601263216,-23.048096359155448,-36.64702096920592,-58.87799759960282,-64.6268830279375,-56.58661938383966,-87.47727402308291,-134.0886807600441,-94.36051143161524,114.55648221806369,475.48298025159147,667.1586593273976,297.3234542242817,-327.4100208306843,-476.0238019807574,-181.10567063659812,-34.15429313174087,-86.3634810025585,-59.604858721830425,-2.619290857651656,-12.159791863633103,-13.489540955509684,-4.644508155987337,-14.398749631559633,-1.9684192096449813,15.253524860942514,-2.4159992573865345,-16.549998532747583,-4.01028955706182,3.8114035694902264,3.2623226895637636,9.630979849362376,10.868518162269714,3.8580902348509287,10.118030222162687,29.36580465529139,43.03106125850994,49.67912468569884,49.95158364664333,41.789869997927994,35.48558737005165,24.680406323610992,-8.0000339938257,-40.45836037925895,-46.85507344824985,-46.11989073387825,-49.275292444004585,-39.13076151939515,-23.119366001559154,-19.56231062572873,-16.33205695863029,-2.468794582873606,9.90022701660363,14.075832764036566,8.686106033735756,-9.057369470833143,-21.15285564128947,-10.829055660748129,5.106881788296373,16.580400306532965,28.14757210008042,15.924422956194931,-23.70486056376121,-39.52625909488695,-22.0521357692715,-17.082397718447726,-26.974427998902428,-28.18048228148162,-30.20814699956398,-34.763747978000765,-26.79031085728532,-11.322197956945166,6.553995108538853,19.277015015346812,-0.9737746791218562,-39.452640274868784,-47.77932421341261,-45.36865479504616,-62.595885523863586,-63.043416725187576,-55.90492701788433,-94.03543036771764,-130.10019982421852,-48.84630293583814,233.4163139010803,596.1648249481009,582.6528712463822,9.254684585523975,-477.03088188700116,-350.5747643510748,-58.72462221303099,-52.52132117466634,-89.18062463148412,-11.104486773154512,1.3189939381694131,-35.732156746910704,-13.040886131836324,0.07639996246747316,-21.085409711278086,-6.704038320184576,22.34509646859555,14.726218029714468,-5.055183324614929,-5.40698153437059,4.497692353997176,12.329314779886213,15.768491560523207,10.676738349005982,1.5071836237116005,0.5976242458215797,9.256103239560353,25.977367352895488,47.965362899696714,55.66172583850884,42.33722562042861,28.4423066978065,14.86847715554449,-10.560233966040151,-30.52209946510011,-33.26053630647142,-38.60214178934289,-50.37409298996705,-51.63273793469289,-43.073532502064225,-31.833798891482786,-17.060579945853114,-7.047775866582594,-5.840719986890708,3.054096899557324,22.673317509696027,28.948734414507655,11.87988537517228,-11.017255484487748,-24.13215507084881,-22.74157526064324,-8.710635811249782,3.670893961981548,2.905661731710442,-4.621343873543825,-14.914091365763195,-26.46385890844647,-25.28518757488025,-16.881419590066734,-25.796244703545405,-38.77550343091944,-27.453324606281978,-6.3757154317095655,-1.8231696439810499,-15.209995927542735,-32.99977850163806,-39.17552994063964,-39.05225564743598,-48.49527150037887,-59.94647116948228,-74.81145403725117,-110.49697280535104,-124.62717021854684,11.837670148952768,366.84296565480696,662.7757091474596,429.61523143191937,-204.87856589609282,-494.0779601836588,-247.64822220419046,-37.10481811286792,-70.11096970063807,-61.30393025224072,3.392703401753373,-7.390017588070258,-13.732799308325779,6.4155426959000454,-14.278005828443568,-24.757217837168582,-4.16220827068452,-11.237528619561633,-20.291091100026655,-1.291062130438906,1.2144108441836146,-11.356568279810421,-3.4024339118261437,9.741547054333795,14.774585507419502,26.21705396522699,41.42779382735445,51.87285498497911,55.61438937025047,43.359877338444555,21.054008817316078,10.963384231655898,9.653810440914603,-1.4463973709810372,-17.58416688934561,-29.576763776101053,-42.881116339997966,-52.4416874057588,-47.85358301705695,-41.43664908275017,-42.70463003019876,-35.638470578836646,-18.285210629262068,-11.49317714677722,-13.03649202660717,-5.841535125114749,0.7779586251302177,-5.015414981987671,-8.30996250302558,-0.7390687833501133,4.222698050207816,4.306147318571957,6.982019474811356,5.408846757060745,2.612172749675377,17.6825881569251,31.558115221122605,4.440526924412005,-41.543876657960254,-56.58058894349894,-46.58205609311962,-34.05515346787121,-18.795763530780945,-18.408166729189375,-40.859996736628055,-50.73192468928961,-46.06718424198375,-59.02068511832761,-70.48028074146364,-66.16536570811789,-88.0443592070667,-126.81712585234393,-87.07026863688709,137.85824120655118,512.771512006984,659.2500902065016,225.85921683261446,-384.6544019426636,-473.8863227881376,-170.60975290386907,-52.09272349081333,-108.49208849536132,-68.47708662417003,-4.668670817932039,-7.7844811350025935,-3.654372050555647,1.4743708598051413,-16.27593059288474,-14.096022413797433,-2.6499729817166893,-1.8955835578444962,6.245068673445804,3.899067690132828,-9.812121973861721,0.8911654029281735,13.11490335236091,2.9083281269051984,4.150146767469958,11.464286523121576,-0.7238575289101741,-0.42813010098589777,22.67744243731468,33.93456533118734,36.34164701014919,39.24172806404672,17.72769794426848,-16.596885060519835,-15.076359480180262,10.001760268158781,-5.161760469560459,-54.66683778191567,-65.9766434386793,-33.99711809441443,-15.244338985312893,-18.08088289428946,-27.70262668673597,-44.54427859321445,-44.23663779449045,-23.639591337647964,-24.362197988140192,-35.94788487936515,-15.718983744139074,12.533974116855816,8.147069286073897,-13.683446779342553,-18.663166445004208,-3.3044085886646783,3.7001823835622716,-12.862499502079036,-26.578981626469822,-17.737990885288397,-2.3555301295434674,4.589169076106341,3.8968618642407407,-3.2436077368322778,-16.726974296682656,-29.289285141032398,-36.55928004945804,-51.316420836834865,-66.16084922934769,-55.6631883425324,-59.28421326956716,-117.97476386314622,-151.9856848968828,-45.01338336652563,257.12048258852377,614.1943772370312,575.543624903104,-21.61551610141892,-510.41870258578865,-371.6020752083799,-74.35887560222835,-63.98603336435508,-86.8694735041573,-1.5194941197485576,12.818780267389613,-13.413495499874294,9.285665796541378,9.341798615776598,-6.925044164226231,11.763458733321334,14.47224741031043,-14.222072009560662,-27.29172204940472,-21.586306327599218,-9.757363395694389,5.5005105316139975,11.989517454537724,10.6871085478159,12.369784026430885,21.106571282132798,38.7547853529298,50.19531634416688,41.39321719481745,34.1320062473326,40.8053622257809,32.26860495709757,-1.4801977318282202,-27.91871485522963,-29.91500661487526,-29.47515043347044,-43.12720522666157,-50.42444953380299,-32.90523435114876,-13.982085007904645,-12.823915651863707,-7.282855435892785,6.106600115382129,0.12165964165463805,-6.3785087875852735,20.436010885004396,36.88865636741412,-3.678743843930331,-48.883728677560676,-40.497541748115076,-9.5379516708174,-0.6001689622670003,-6.139226379071053,-7.604716984686217,-8.339905215379183,-16.501511752095332,-21.753652348144634,-8.616147322534104,9.972535572006574,15.015058108320488,10.269994598121539,-7.4675790696828255,-34.37734478695865,-39.52730094335308,-31.677744669079175,-43.306335817348284,-58.76879331463393,-78.6113944502214,-128.8373049212129,-157.76341981420674,-49.0536762943172,276.05415203819405,640.4556817079701,561.5800323265195,-46.85478835725769,-481.54172979393536,-316.9468921374382,-50.01687166195374,-56.318675945589035,-82.07039611421241,-9.984685694874372,4.243897694909656,-23.59017388754008,-22.030235705513,-22.92358220852439,-22.29727238018163,-8.17406626467831,-5.988659054854431,-5.664600444407817,2.489685645993454,4.1586847422376145,8.087892592093738,14.624781894978813,9.657660242371357,5.589480357438905,7.453652531907262,4.587739625809989,9.131796630605908,24.334586796134634,32.072951865986965,36.56665984222182,41.707892188136185,27.750902799229227,-2.4441574464553355,-24.226153590591316,-31.76702372093642,-31.680666463987947,-31.623768405290335,-34.92894270755978,-29.659094383647812,-14.838776345019667,-11.335466423318444,-20.507382333846255,-23.274890378881892,-13.130763280923706,6.457335790569263,24.83255222876256,28.656178137140397,24.073913866689516,18.844747964768565,9.317380183649135,10.439884657707701,24.17850867840989,9.88981766095801,-32.4962014036498,-51.87809444907473,-46.62061552346344,-43.673526373557614,-34.780008815204454,-21.285755979808155,-14.263388962538702,-4.769675801412248,-9.059930964091762,-41.77268944742781,-65.02799583794649,-59.19578246286211,-45.145715241879316,-35.936965555316974,-56.750561201603674,-115.64210673670681,-109.75751512183516,124.36383096892561,535.3128270166617,675.0100748110044,214.56785883441444,-375.3299610744871,-428.1178410322575,-138.85943689565948,-52.82838359212148,-108.81372060814238,-65.43463560883772,-19.81638491936674,-31.162483596573985,-18.356254712258245,-7.612662190146754,-14.72345267720717,8.142757134944512,21.259016247020604,-8.95834488344958,-26.56208308299974,-17.299738936966335,-14.25585634315092,-11.070659967213018,1.9584877970824168,8.760136282920442,8.305283215712791,16.251745718888056,33.565633370593474,41.47625274687638,31.932370182958415,26.72915128943012,35.012886499819416,31.829689120785968,14.924167453389133,5.717447336556646,-8.685513971175148,-37.96777759754499,-47.71677140770144,-32.145861702081085,-27.83509553150846,-35.484638678696385,-32.68600632542514,-23.231491224680255,-10.482837420431881,6.876450007259096,13.182711322860264,7.587166061710693,9.940300817102393,19.040388279444848,18.735574120257716,8.926190903776979,3.819783754060124,10.016805850306342,7.145468927617857,-18.958439289904998,-35.122578369317225,-23.25055400122552,-22.4199653955285,-40.20554766913706,-35.23127021045841,-11.491702359541609,-8.0521704431691,-20.34530035334235,-22.175651332256592,-26.03866159449444,-50.938715226966195,-64.12063487341085,-47.102497612696496,-55.43811522649785,-103.73171311714583,-110.81861868764923,26.3986852067585,365.6658867182716,668.8819176178308,444.1694492523251,-210.98612199271588,-503.57563023838327,-237.49423269482367,-35.26145516727529,-85.10112790145709,-65.30926672101072,0.8032835763646347,-38.76237318329187,-59.65748599009698,-20.365439152327426,-22.205607446410454,-30.45940384335946,-4.963221622872554,-7.241861799530163,-29.291309794567702,-20.144805672308806,-6.378122859706693,-9.279800293018788,0.7058544108795797,15.936059118138784,7.928027059297162,2.321485177558075,21.98934328896103,34.059341040528686,28.035353256976265,34.066646227518326,40.79487593334984,20.51689022765255,-1.169446859642898,-5.493570879009507,-19.236788899974634,-40.63693838917209,-41.47033646371497,-31.33736502194292,-26.711225095144748,-19.416795662161228,-12.608280407817908,-15.261712839819545,-23.643428891727424,-36.324871515836115,-38.17484982999368,-13.56724157234601,3.9228733610876,-10.293302788782015,-17.404839893420167,-4.962957206284422,-5.488738066277499,-9.528279108693297,-1.7784897007923384,-5.050870642405727,-9.381743364875511,5.142102021017353,10.604889512993468,5.468083381713381,10.450595659316015,-5.3467687198692495,-41.12743773350715,-41.65531353519107,-23.58230093870265,-35.74818677638798,-58.13164965767897,-66.84587079895242,-67.75958409122141,-65.58988997148631,-85.96070415308422,-130.02423382708255,-82.51192043019148,205.04322358781928,604.3515236132605,618.451200982464,45.279066323689264,-498.01266460060424,-444.75750535272977,-141.33437670168547,-65.08268027378438,-78.97473858830902,-13.121373478015059,12.51482944829521,-12.62859063848764,-5.740539235123077,3.7327960436031304,-2.938399547056296,-4.309634695718135,-17.12150749512997,-37.56779906161749,-35.57552454071445,-18.186336502194937,-5.728106314048219,4.288257426072425,13.338307879763015,8.006478934706113,-3.112599005672708,9.889960537153101,34.521602338409636,36.764993572443544,30.625061611308592,35.298243835005145,36.63065795077311,29.25179877571083,14.463700552741033,-6.371735635381398,-19.15771068506554,-33.17532797514906,-60.597644308437445,-70.54685668211116,-56.340896734959,-48.8776663754914,-40.383407783166724,-23.772471236753645,-26.06342491337552,-32.900574632768326,-14.155419509053587,4.440685479449456,0.8372799528596353,-3.375523510490133,0.5166059934200433,0.6487764778838567,2.2704995680660307,14.741426730838587,21.016701440585344,5.3377823978444585,-9.312903443221124,-2.73134411699556,4.989279834444357,-0.3213069494616754,-9.490126347096057,-18.69484330894545,-20.43612587371466,-10.904252605231171,-11.167028524376532,-34.93701235194674,-67.27320391019103,-82.62600148555926,-77.2705057102903,-91.58046408190998,-141.27836661642488,-141.6909180929104,41.434568939140206,429.75065571862456,704.1343392144395,403.1598736600306,-280.4236265560097,-548.2173141492387,-251.19620370382353,-32.0757887082531,-87.63350886300009,-77.29173929292186,11.985195041860159,5.534812577168665,-16.776300211432925,9.572571667343876,14.118153018379637,4.734650139261806,15.054814275565338,22.18662548101566,17.98090243158623,-2.0824800634474467,-36.153972229725056,-38.34990876468206,-0.9643782913476797,19.42505985367569,11.016498412021829,11.634377625766863,23.647887386116444,28.986131559444686,37.40224762539031,55.935345929353325,59.58393235177732,31.361402063859156,-4.765968058307223,-20.88342972505641,-23.283153118644396,-29.346649776418914,-38.944755047830554,-44.68708837952809,-44.204637781431984,-35.58938368927171,-18.456172814468648,-4.509603101774545,-8.178148344078334,-19.3068251958486,-15.856978694778025,-4.034015231564165,-2.3128612873152576,-2.204229038780108,8.058944407818476,11.45430265011662,-1.681117366623461,-4.083439785358798,15.533663922276293,22.91372330087627,7.291445542770447,-0.6346238875305072,-0.09202433739992344,-8.704253170992285,-10.783192893935038,3.650830595705088,16.173128467280023,11.663115868806752,-13.396901638476585,-41.65754359270814,-51.78095451654516,-49.62408503719324,-40.98117127867938,-42.949142145911395,-89.4614668957322,-146.20740830130708,-131.8438134459301,44.22303188370515,436.18894649615305,718.3382057187865,367.6819532898538,-327.841836895267,-500.6880295925785,-172.99076353872482,-33.94296791639823,-102.66984396692561,-52.04587310988648,-0.3727015417359638,-49.48715526728497,-38.779347806519084,17.635579764142733,12.637478948665526,-1.3208636348059288,12.905337384494807,13.98144611359281,4.120169116326221,3.483322074561376,8.940484054985063,14.160143281245869,9.775426296111096,-3.616038184183607,-10.62780039435996,-2.0051975405182136,19.11940973929917,34.99918813432963,29.863235658777413,18.28879597327014,20.743885169085793,28.84220483792203,22.243008116507276,-3.4932192805136726,-28.32965103626712,-32.06126105043348,-29.2007515101278,-35.54827018152258,-30.62421228624448,-13.668853438718678,-18.06134643777789,-34.485860296270644,-27.351014267147512,-8.863932371987989,-2.6130463475506094,-1.461275335494248,-1.421887817181421,0.5848133220831659,13.868429208280105,22.807559123902777,16.975246637429454,15.264426252500662,15.477482729374834,11.185359675019585,21.335183571501368,25.003498231922777,-8.795930014085304,-35.11087532105986,-27.736844986631002,-36.71356073480126,-55.27367877629903,-28.90812211968639,4.163941824885519,-14.208253195555294,-42.698505774666486,-44.24481641813575,-47.31713413633527,-44.89799405632052,-30.182409843572636,-65.72359191952997,-143.51304848961797,-145.98699288544242,26.557861381859198,394.77713471034247,696.888636221998,454.3682418103178,-209.70774303467948,-503.8340353669382,-239.6323281299819,-28.93663345163607,-73.96692140636722,-73.60034227440411,-12.391195545469614,-19.107158323360487,-22.14122986196088,7.563258586434765,10.72509512022173,2.629299375774761,0.5569669988444597,-6.636723198862695,-0.38900281591321395,17.688417014673007,15.935686164119137,-4.226776802610491,-13.676399258080865,-4.172183197446159,3.336479724543926,-0.3842323180108683,2.64226587406562,15.653413290828619,24.39333714015219,30.701416931068618,37.422554960297404,36.94322343783048,28.16669257477028,9.40937928493387,-16.4207677442339,-30.675207613380472,-29.950875519191968,-28.614814583306647,-26.55296868599994,-23.357780190035232,-28.09014671206318,-30.383103991348438,-14.327226887436815,6.856733681467663,12.20373533075539,7.721940782157998,10.442961756484578,12.833071127195115,-2.23745215503272,-20.9743156385369,-22.089856342607465,-17.436227531387228,-21.423523197466857,-24.588950322659866,-20.080774601638232,-11.391808798609041,-4.437219167593067,-7.151177722761862,-14.968550821553926,-17.34782067314605,-17.230578267032396,-14.364530274561147,-4.973595818812331,0.9135592717358243,1.9094996079669446,5.542255606028469,4.352594253280771,-5.777552630672233,-28.63159553857448,-70.8490715924137,-97.30505275264454,-84.2229906944858,-89.21937029594478,-137.95421052618124,-129.57833800348152,82.82237817407082,485.18407598939484,687.61897036497,294.8669893074679,-335.36483844768924,-482.9181763327969,-205.66322420566615,-60.560999390355946,-86.91805973766606,-52.22987787544917,-13.44532599360916,-27.885805930515332,-11.764922611666202,12.637838291241305,0.1009651357192709,-4.941391643920852,4.773641820517444,1.4852212511628373,-7.615833077887888,-15.224477927589145,-20.0831274744613,-16.436592634779643,-9.569380454031158,-5.514828388966372,-6.222543114053359,-5.423817665792286,12.554496448661553,33.81719131872091,32.00520510414738,25.933743760580164,34.70177790265109,37.90838293120426,28.3394622689819,14.299626670232215,-5.181661325081421,-19.78975199009662,-27.049989123983202,-39.954112574995975,-48.12393973191496,-49.438843503592594,-62.70108601572295,-65.76384749653033,-39.55863013886969,-23.965189287494358,-29.743494480603953,-22.397123559593396,-8.69398702434276,-8.101160973779436,-6.118646513282393,0.4919714412580518,0.6236840368456065,-2.9860239273302582,-7.285786084733104,-10.9128757511276,-11.77217907331957,-10.688144237915669,-0.5316842555769838,14.829602690288628,13.699119159282374,2.140056748363371,2.7780364614257635,8.134875405114581,5.797029048630023,-2.983882229377155,-23.80335945082004,-47.498819904195855,-45.685807662564265,-24.661509070563326,-21.967658832885505,-45.4542154901279,-73.4201783156452,-88.60915386941237,-80.30301302924516,-63.673974966367865,-82.57249052155827,-134.51818810392868,-120.03634628613752,109.75448034014588,537.3699956085616,736.6123783251932,297.400652545629,-374.8428783964257,-515.3828720895407,-208.60893113457067,-56.4425475099218,-81.23290920432459,-26.490862409098725,14.205733245990615,-28.731996712185456,-22.417961593967128,10.842563682797326,-14.563161519819399,-34.466688913118055,-17.939944679617042,-15.438254570136781,-12.337548350004468,10.984716389039193,14.115989957822503,-3.711013590451966,0.5347705046431184,20.67318925129286,22.329227525376666,15.51126248570383,26.67976105543498,37.33281602852816,21.20983292086916,6.82158632488954,23.175167289319422,36.47818937682767,16.775479567567057,-10.684967219010325,-23.718319170764104,-30.711388019597717,-38.014956334993684,-43.151392508867275,-46.231001073434825,-49.93231902730045,-48.63436716495485,-32.037739387028736,-14.079279867781079,-15.522986466356045,-19.09747079492754,-6.523641403856269,4.347594576956135,6.735439384279551,13.36760617633406,18.231417588387,13.334061057301337,6.407665810541481,5.249935721860628,15.42138508138221,29.553241397513286,27.980076803246494,12.710544840588454,-4.280586383422076,-27.139220802015476,-45.207489752190696,-39.82217933023982,-28.102053670583867,-30.423858819701074,-37.75809148056014,-39.824295841148725,-28.81188872848259,-8.221086282826136,-8.003143452559446,-27.927352441866816,-38.76214189919231,-53.9435817659496,-74.2040311251922,-62.548267706097036,-56.63285455392097,-108.6145169522733,-143.38322345750532,-11.845631102175105,371.20566513992935,761.7309982165488,596.7091419822611,-129.09669785254215,-560.4268119606137,-322.2321616522106,-52.18176766627551,-84.58409320809304,-84.32935953021283,1.8648890428082865,-15.720694946326638,-44.4955392852579,-4.237063838929759,7.360645733515593,-5.081783806414212,7.115556257561611,3.4474666488263725,-23.35573928688411,-31.241334992547223,-19.128162699647522,-14.416754875894313,-20.88408147450275,-13.202338095238686,11.813337765967336,23.338650022506542,22.831806467671534,32.542637138004444,36.23590041815536,26.180975637051052,30.567455444228294,47.07948359331985,46.55275172186522,27.202966993075464,-2.469481172871742,-37.82518931484819,-53.072968083665415,-31.998807573877794,-10.711800257709065,-22.517086096567496,-39.152003849972694,-29.591072739710242,-14.499254886018981,-11.65986702498148,-7.671691104345843,-2.691106817380801,-4.305904358575283,-0.5617424890879832,12.647945464930567,25.6223123389358,33.08409275560807,23.649842344258595,-5.020947506301905,-27.634841689591717,-30.716114971497746,-25.526368174663773,-17.716021818357174,-13.498109415788296,-19.19150688794184,-19.443291221237693,-6.649372760870019,-2.58777353510769,-14.834932740572174,-25.323950108612454,-27.473175455794255,-21.301343949142314,-3.48664103786499,3.2704285786043545,-18.002225410374248,-31.265809972230834,-24.783312926729096,-38.5651131814634,-57.926715370366196,-52.57464550789109,-71.72096579588987,-124.33130116725714,-83.83640748992171,196.85424892858595,625.6192348080922,709.7831530803373,144.02099223563908,-469.2419616858307,-435.32428875468025,-106.0366316585304,-68.40104800794285,-136.2185687582112,-65.00593059654474,-31.260150112184782,-52.14122756319316,-5.478757222382656,21.86075551380168,-8.388002671997576,-5.77601666129169,7.44990362191683,-8.742874902879063,-11.047872468876623,-0.8168378467159982,-1.789760673759349,5.248583167292388,15.184380728928964,9.128323324760904,6.0409730188775335,18.087065249125914,31.761299739688347,39.42521674822423,37.74426085263449,31.47296362321979,35.64438671843576,41.66462673279029,28.135676862886328,4.064410183110663,-15.240594405123394,-32.883043805697966,-41.05208576514875,-35.26271897133218,-38.23863238332186,-49.17475216191001,-39.16839098145154,-16.003623783399966,-2.4773632236123966,9.521819678006393,17.589383165438658,7.423880737716296,-2.314994255663482,0.9959827460689441,1.5266568808280603,5.407628509486446,16.83635926116073,4.232267133742443,-28.723929314209258,-36.22789657937665,-19.60559456604072,-11.00116857036901,-7.107768501171048,-3.558793372782958,-14.236411871946814,-23.35913251015505,-9.115165314086756,4.641807021028953,-3.3705923222623753,-11.784092519541264,-10.690158754513341,-10.44535859740547,2.8899711736703297,27.875904722926393,23.897129640779987,-9.508524719905502,-37.439825889558975,-57.62864338347116,-66.69505203548823,-65.64424461076172,-101.25663974035925,-165.70888873666112,-144.59630445032738,84.59392116432075,492.38572875712424,699.6328912372973,304.32482295078717,-341.52953745514765,-488.2205243797132,-189.62340742905496,-40.36332936147294,-79.77739161537188,-46.004835693739125,-4.079238851438539,-27.234969313771245,-15.826582004075934,16.776995855443417,10.255390503789068,2.4305128876771427,6.5033780396008245,-1.7619481615578358,-8.048829231544955,-1.9882580893399524,-1.0843346709618054,-12.13867755308668,-19.92635969018324,-11.705430201843269,3.0291612325821298,16.237852684248537,32.37339145498485,38.31020915745202,25.16817975779665,20.84233846974241,39.765416806988846,53.32353280203444,39.68775701518149,12.161238445150557,-6.228579622244121,-11.672591224279117,-16.985173035141784,-26.521451793486193,-30.876215545149964,-23.538222731529785,-14.592039243351955,-20.183706965933727,-26.451317021371274,-9.577061196352236,2.7689786185518095,-18.346944448288806,-35.06077710373956,-22.486963208782793,-12.400663080587812,-12.067865106189615,-4.5085140368096575,-2.701074368112728,-15.385272117798223,-21.812075005455466,-9.817157474782448,7.41072424496906,11.176798180289484,2.95472142137257,2.7843116906074012,15.92265360306991,22.416875307734333,4.221912419667881,-26.129925015543606,-35.905810143281066,-26.399880505261365,-30.782380974470318,-44.90810282325326,-40.38706227106213,-23.105550892368186,-11.61689689467643,-13.31954545998337,-28.482485506147107,-43.69288628722748,-57.45231216990105,-71.6022578853665,-62.68960113910664,-51.43695395002919,-88.55534476980205,-122.19299928622954,-21.280141388616443,290.0058162641798,642.8969795843437,576.7859147669434,-24.496395670642585,-494.42479821915094,-366.4557633379053,-95.4022196724622,-82.18185636996056,-99.87405248278756,-29.80883834014918,-18.740738931575073,-34.58847180974051,-10.55545623030983,-4.872780061487482,-6.623341910622958,15.286251715049676,13.900825401641072,-9.07520626132384,-7.359444303333378,2.601378008146309,-8.354179085431369,-15.890377867826704,0.6291816208329886,13.172932856633096,4.806283623654931,5.10653526100499,26.923468624445867,45.729804223908,50.825059993656424,48.67263113809509,43.86940538975968,43.262433457344855,40.834454248977956,18.068247562249695,-19.872729657909282,-43.27319710444382,-40.487776377967634,-35.23401696142287,-42.83841131495378,-41.0897065136405,-27.129322359056125,-35.723823110964084,-56.19246918443068,-41.39813902515755,-6.863980304195849,3.5232497759200427,0.10860846856860462,-0.6469787143300643,-12.401520359773524,-23.58007622394492,-9.295415123834541,9.750639141528666,3.907113758075262,-12.077456246596164,-13.830850023249797,-4.400537399807721,1.9220828519504636,-2.0648593815067784,-10.492968837765112,-15.473506996738056,-21.549053405272343,-21.02833448797842,0.017733936600656364,8.550104304106423,-24.286128658821774,-48.49513155033314,-25.391717341940534,2.987814784929993,2.3292605861502302,-12.668168403188151,-26.49744398941337,-40.504773280916304,-59.46608452174876,-74.2345237272814,-81.94807571835307,-106.81942662618225,-137.73511608149286,-83.80801490992623,178.20650843757485,606.9096036862101,761.7137007979125,256.83412108314104,-424.888715683933,-508.00656222579255,-174.14822565699313,-50.9385525315918,-94.5334370287795,-45.88481731846369,-10.48854199408106,-29.206990604896585,-3.1707830401588017,16.862804125826756,3.2619115978238327,13.76367157684962,19.03300646717437,3.9693487875993307,10.5055945467383,13.998033298558964,0.25914426100953847,10.202022615917212,25.30262071298811,12.105771372730775,4.134020017992494,19.904876571861607,33.001883908029576,35.78482913150581,36.093762237953555,38.24967794147174,52.247392708642295,67.3692651140428,53.83793249152239,21.865648195415297,1.152802044679766,-24.15200127523075,-58.033339883061686,-51.91978962045737,-19.040546004762106,-33.36710593891104,-72.1911580901262,-62.338782556931676,-29.29358940292026,-19.284334761305693,