ECG,-2.1457858568082466,5.307811412944021,8.413522950363205,10.764431409333241,17.905102928364588,19.51541911000399,5.688044307710134,-10.32738281143897,-19.1582121300857,-27.988700428006926,-36.53819452259267,-42.411615102910616,-46.561428193363355,-44.31316664139399,-42.81840496911179,-42.96525096984996,-0.15516514541981508,116.49939433638758,240.49699561948407,242.47407216346647,72.9004201468477,-125.26029872871813,-159.24777719685312,-63.232510818718765,-16.636812309965038,-36.77193801916799,-31.702968640717977,-12.300695130131832,-15.945261604076531,-14.806933616805303,-2.752544579517062,-1.2933171988124261,-2.8912071347479404,-1.720443934186112,-4.396296002144696,-2.112945403178549,6.506277084937073,5.630094342437625,-3.039292034337821,-4.397806397333987,-0.09162151699447563,0.8029097507336216,-1.1184603730833205,-4.667476726802886,-9.7383255773952,-10.774750579964065,-5.2754518266703085,2.875131419817343,8.067279540508267,3.401669119278951,-6.286898084743104,-3.7905290947661636,9.529119047966445,16.158796433630076,17.008108521016347,21.80531921914845,25.45413899938531,23.42346279771674,20.574449660690497,16.194415340548936,5.22713299253181,-9.438656257816863,-19.835374967386137,-24.24737531108031,-27.158945088779387,-28.575880853995848,-25.13519610496229,-19.837008096084727,-16.33005140237843,-11.858012681130809,-5.791326781929502,-2.050506675375331,-0.9261829574762785,0.4055596919029085,1.3116113008665895,-1.282233965662897,-5.166150894556649,-4.296199848367099,-0.63718507034487,-0.6551265541199296,-2.3287081807074017,-0.9279889912021453,3.891943007884494,9.543706322978153,6.037439579942957,-10.471665551724818,-21.414262275709568,-15.831597190717513,-9.200024109366463,-8.66523424344567,-6.0247746213971585,-4.14406772104469,-7.089793149120226,-7.3104415038253805,-3.608968494777802,-2.402746672602486,-3.241699854362925,-3.4657472957549906,-4.13991130862852,-4.3690902769921935,-2.6524329990509177,-1.2441195094668194,-1.277153988974157,-1.702520224431467,-3.1542637091124526,-3.691095047308142,-1.3937162548765905,-1.7273993702758785,-3.6186454186686263,2.9192984346595043,13.290993741895061,18.240075588079623,22.275211966936293,20.322899904119616,1.2998593231696276,-21.947034732921665,-34.82801300647651,-40.90509970336852,-42.5821317931823,-42.24456720066966,-42.86976477086633,-41.0373111629762,-40.40275687769482,-29.502178852404715,34.17275623571339,151.92649781772423,238.995544027823,191.70477282640832,9.101283335155752,-147.66054754127674,-133.7235287240258,-39.308341193454254,-19.62269006865815,-39.682822681015374,-21.614045255778336,-5.027003406708957,-12.031820510965268,-6.841537312040961,2.377271195261434,-3.757897826630913,-7.810961098922238,-3.7546498640476256,-2.7225555756263926,-3.213559732414466,-1.300363940791816,-0.5807669801387441,-2.39058695832746,-2.823979616684061,-0.7266729940570089,-0.5395822157008334,-3.7505257297877446,-7.583382088949617,-9.969053051061023,-7.999473633585484,-2.994191671836009,-0.96209397398477,1.1443626073162845,8.620890342579255,16.030602944671436,20.538668682685604,23.316264283951575,19.34334255613018,12.972000669266912,16.084958645749435,20.908930661596195,14.741250215142813,5.5078159675164615,0.3819493840606323,-6.590863916544626,-14.539266766701711,-19.05655360186129,-24.9035496109019,-32.182667972970506,-31.996543234281074,-23.838641117331896,-15.760177769692067,-10.677983239051425,-6.4001305284930545,-1.3063881063648815,3.5814215531119764,2.851783301890075,-5.2150104105912565,-10.781170904075804,-7.67209218677856,-4.296417758667632,-5.7362469696669,-5.8506881396106625,-2.817798758675515,-1.5530671478636506,-3.1786600631138464,-4.157998739049701,-2.2795486146903308,-0.5007485182973044,-1.7867960307263564,-2.5015536861795544,-0.5817144859361401,-0.5782482213085824,-2.506147123408822,-1.7948415787381036,0.4429580802046109,1.0457697751673267,0.3018590328835584,-1.2817433686587636,-3.537011674634207,-5.587414568585323,-6.363940719369603,-5.556801535950633,-5.817721855960961,-8.494618828964226,-8.870168981286039,-5.370287765137599,-3.8987123872909946,-5.93408293690651,-7.207746364296354,-6.707604584030188,-3.432920774989609,5.241025893167452,15.130796065119693,20.021874908953066,21.564698039920593,19.91283279207439,9.245141877628576,-5.553244611262066,-11.790998754371316,-14.265805332868498,-28.55566506239326,-49.666011963345305,-55.89644201975685,-45.0859976399155,-40.24793936034119,-42.791869237214634,-9.986848517103645,86.64174743015191,203.1045260558702,237.20010725167373,113.1805118267307,-89.50149223426813,-171.04658527933793,-89.68968215295536,-17.93104908932871,-29.206373503921455,-29.868935304421537,-5.0808592963235455,-8.34255346485406,-13.383498871135034,3.311233700739476,6.753793638593412,-4.730734134556448,-6.792208527137858,-4.133107017982557,-5.10919568439652,-6.799762883853481,-6.496135182531465,-2.778794079128719,-2.796919631488284,-10.08874722670879,-11.397479950691817,-3.7280468123059727,-0.37489964941416964,-1.9224730313965575,-1.0270095411770197,-0.5197138273042632,-1.8389126598001706,0.09319015713010492,4.320364306284102,5.9930969700645,6.186506670637025,7.2081662245364235,7.337449229447833,8.808800355157702,16.602898890192648,23.661885005355977,19.93362280769399,12.836473651877197,10.755026194308453,5.477905975304246,-5.919513110416255,-14.699736840695559,-21.207733276270417,-27.79974883521349,-27.2304617361139,-19.345214252753102,-13.297410027817147,-11.59848645778886,-11.451736573224506,-10.487950983108991,-6.188774366156313,0.36521811995580045,4.741733649921089,4.035394330286002,-0.5154166221361551,-2.4785661131951007,1.5103419211985574,5.687064060726808,6.4291753015258655,5.743476559241817,3.488892866143928,1.9335357070342147,5.121175305507007,8.41339276031744,4.916592471784666,-5.514617319278202,-17.83909279138569,-22.093177129109076,-14.89110374620072,-8.002327219319723,-7.070343988658122,-4.253993224855225,-0.3485706428758073,-0.881088017508727,0.3275179836920463,5.1464852708850515,2.319951874902495,-9.530285370564751,-16.98709152067945,-14.254831279217061,-8.538292591292391,-5.476094059424861,-4.680118421301701,-5.604418581290892,-7.535109760407823,-6.062135238526274,2.4045846402946682,12.779845862027983,18.265866348893883,20.81759118079399,19.297221044639336,5.764590900002595,-11.932507174508999,-18.381269250302335,-19.747164390385368,-27.670898771186714,-37.99596265912467,-43.77046900662269,-42.644466015333116,-39.94482983798372,-39.63092999498795,-12.671537275258554,76.4650683979307,195.22655624122203,240.07539674669454,129.5507542109824,-68.96265504450798,-163.52215526271817,-95.91026619787223,-23.115383475209452,-30.820868298885536,-35.1696848926317,-10.152776907319677,-8.106310030361566,-15.574243550670946,-5.318091556878637,1.5950806399294004,-0.1920058251276826,0.04990218506987887,-3.087994375193025,-6.705458741898207,-3.5089420266707867,-1.2085422107146258,-2.5954405422642663,-0.8660726838593451,2.2948404466388403,2.4203123242889077,2.784660576379,2.9094023789912447,-2.73688189382417,-7.271963894724762,-3.393241303963117,-2.9684553437707715,-7.4346296455663445,0.12653245632369892,9.553392086315885,0.92172855325911,-6.639549560508553,3.7826204252687106,13.796223832300868,16.838056547369277,21.257417231807906,17.94432148588635,5.728148056470644,0.9859972978028408,1.2364351046746354,-6.851626414724603,-18.17449514317876,-23.49043043990169,-25.06167294478559,-25.540784310403257,-23.235200749305374,-18.695717465552654,-14.004831088176612,-8.509877420365939,-3.2512890891721185,-2.3636748140482524,-2.954955138474693,1.0462111776053593,4.342418833328414,0.4209683307959562,-4.435936504045804,-3.6867841479747563,-0.7664980023201853,-1.0247456213349349,-3.4318789773084157,-2.64301682459816,-0.030475779067609565,-1.299861724814428,-3.0412358862706137,-2.4630663610363097,-4.265677191251752,-5.038907250734084,-2.1775482850815147,-3.4503712429145583,-5.056247415695528,-1.1978019146390375,-2.9751918775176787,-8.37016984887865,-3.422496399818785,1.304713303281261,-4.7681711091728065,-7.9504063131853835,-4.257899253398904,-2.8681144890735615,-2.095966026924885,-0.1700688635004184,-0.9153684598294207,-3.9155729044515724,-7.939774492084338,-7.104735078878013,4.351602848016628,12.380904179819911,6.684064612741054,6.033181239129064,16.000696213073017,11.939158096751715,-7.940217456252752,-20.264720192336068,-24.769385865473225,-33.20730982059731,-41.1081311236883,-42.90745747778357,-38.43084067286717,-33.25810689692687,-36.654033145230905,-21.60628127954778,58.40898672611957,179.7761055386657,251.19324639200943,191.12480066199754,-1.2266505593888795,-177.72683185089198,-172.5594103442495,-59.04622201258917,-22.249591388729762,-45.5471232331072,-29.534093778586275,-8.768017638120423,-16.918838523728,-9.344084562256723,9.387182729347192,5.894099607824069,-2.933271394170963,-3.0962460960242417,-5.165806476558991,-5.760342061396608,-1.0790370684196553,-1.1043767692269064,-7.816861102397153,-10.22745564572358,-3.9747025597081738,-0.3317345384382735,-4.024255852463576,-3.937764092427095,-2.43916094553484,-10.143061292478702,-14.753926130954405,-7.406921626916296,-2.6070401225287947,-2.400181584509033,2.2512208438469026,6.097511110212597,8.316458111095999,15.345442418330775,21.390019829999254,23.955665584802887,27.854105877573637,26.52456917317522,17.072381562682146,8.60246325529066,0.03487077373028136,-12.172871034459696,-19.578118655345662,-21.85887674884196,-27.344561620941462,-31.24709307279281,-27.547149266784956,-23.543052382586815,-21.703430124597602,-15.86272225225228,-8.261840945890256,-3.944644002314204,-1.5438480035573043,-2.1837137694517086,-4.672596881318979,-1.012878312171205,5.109174080031721,4.976414839620379,4.827898282253564,5.5131127987554365,-0.48160775482132223,-1.7914663051947688,6.375263733912354,3.4255559059717164,-9.057741501211929,-9.65269628920913,-4.563686772838201,-5.380362581483844,-3.1355295500250806,3.9523114711421607,6.089922793680971,-2.6476587162231375,-19.37811743248072,-25.821206490295047,-13.51248459234123,-4.733510571672182,-9.330644770349384,-10.111090810159133,-6.477496636682892,-9.082477864912779,-9.583230866753198,-0.543429222881282,7.161592810499025,5.184267779481265,3.778263926080117,13.697787980770673,20.967967428080545,9.158060795163072,-9.67077169478365,-23.16529156624017,-35.2801389611589,-41.647212358495,-41.62024874770668,-44.92501801043194,-46.980946830284424,-47.03242096288187,-42.313522488292485,13.103748041413368,142.58859560148994,267.62359908333326,266.89405708166754,92.42895058184487,-137.0503055388272,-210.08302746436124,-105.18489574370948,-18.5010449547409,-27.8849339720581,-34.44534707732316,-14.240319098220091,-13.416070298187474,-15.17127913935072,-2.6322365648754547,1.958660803570286,-2.386960792815529,-4.163050491212328,-1.3579966039220084,7.507623209622375,11.931384835289998,3.123601525538625,-5.35771937924105,-6.122120855687728,-8.050635701548213,-9.94240444798676,-6.088270946764837,-4.623651188207191,-10.372789907048888,-10.687596366826597,-1.9354040687151581,-0.4860499071338946,-5.749002937104672,0.2317941672310202,9.451003753839942,7.631283724461994,9.772469377760803,19.87216503768031,19.991382555319625,17.80300313218003,26.008669603681316,27.783570472718104,18.786407781550167,13.600429390736261,4.840392297726602,-13.213010485265668,-24.268105499375434,-26.81092004916666,-26.958065326910422,-18.449539570861113,-13.503425035756209,-26.616390759509564,-34.93935745914993,-23.539743886079364,-11.903133732491968,-6.241347175960637,-0.788441542584982,-3.2109408511284236,-9.119845882126715,-4.253706430237892,4.017230099891922,3.7026561196349395,-0.6203532688382554,-2.9311580898937324,-2.834849854183192,-0.40522811807985093,1.645416591211009,0.40635248872400354,-1.3123493481420718,-0.35892490491149864,0.22949164626156815,-1.4512775066771875,-1.8127834459151613,-0.8816177079256846,-1.4963225702156455,-2.6789448865450556,-5.420440333914646,-9.91774352506689,-9.456915498906241,-4.716920664171971,-5.734946071495742,-11.506673955099014,-9.87408792164486,2.2408979669720983,12.208697010961789,12.421996609909652,14.914069873472139,20.9493097896893,10.802802781607353,-10.430302629931965,-21.215242375317693,-28.5809077959022,-38.687429716283546,-40.57710544164716,-40.07257748142508,-42.16851509369789,-41.665729155317194,-39.12701461372805,-0.46471174839394536,115.46471442766546,250.08601555610397,272.26634647938226,116.79269450906135,-113.47341541234351,-205.39667456212658,-109.62470429869924,-19.6184862842561,-33.57967481538937,-41.95663316003112,-12.386614522390929,-11.483929177458414,-20.225508284634245,-5.442147306583265,2.3363117943156464,-1.1378460379333486,3.884975277068335,8.796337431001103,7.224930470445486,6.774117346951935,8.738296384736685,6.507618337100108,-6.716867595643343,-20.277922317091107,-18.552591307057085,-12.361362542099076,-13.076570670492,-11.297016590162555,-7.412193954892029,-6.491785440561015,-1.4655358579293871,2.5967696066397887,-0.7590697055996101,3.3576732193781442,16.037978462415573,19.99921339445546,20.6401326381518,29.248498062334253,34.9349634308487,33.123666350930854,32.71677674708227,29.115333233869656,14.831554903047762,-0.8127832368240837,-10.684352693743527,-22.09577735790993,-35.34301574002307,-38.566811363892114,-32.13774012939978,-27.88124291822629,-25.474897439116212,-19.714337207464492,-14.675654597604701,-10.521010029543483,-3.535155038532432,1.295719601578888,1.2737403813940755,1.5549092611588415,3.394697261273783,4.82692089916094,4.337688689880313,1.8467999482395,2.3695553261104143,4.460231109647125,-2.0930266692487454,-11.556547470265636,-8.880717442724777,-1.2173669553008573,-2.1996972721847943,-5.177548783922804,-3.028047816997879,-1.2529872541792848,-0.207165916332122,1.6830585826006255,-2.776400556898645,-11.733863777182618,-12.207632867844126,-6.325909680717148,-6.0144959852825695,-8.187414607368158,-5.810991262655518,-4.095742045682494,-6.647113763133516,-6.57536007335161,1.4402312695627986,11.191245942153586,13.69801412489669,15.117422206149033,23.821420593296963,25.614309816417347,10.660457349638438,-6.246633276007416,-22.843568186166248,-44.98756905706345,-54.7791612801347,-47.32095882705473,-43.95546820528521,-48.121591354598394,-51.547317489653246,-40.28552101313448,24.700452488109583,151.37668279306234,262.4562460562789,244.75333628331504,62.33812471838884,-142.92884577494254,-174.7259186283037,-69.0878890592177,-20.596316992645747,-45.8932511545284,-39.35665434657311,-15.395204486210435,-18.647333314096294,-14.065515292819796,4.25826194106043,2.992958150396685,-6.661340052889107,-3.874741174194888,1.4990146392921906,2.575110568222451,2.568007884007269,0.23070221979958472,-3.553083892846886,-4.39492496561832,-1.6564646034053103,1.5428811639079352,2.2067292936148357,0.3861048303772425,-3.2420103941983758,-9.053966360869994,-12.487061986470623,-7.806391807242617,-0.05064859794455412,3.412451452697269,6.618520199211851,15.379112919118356,26.397346478003428,31.656397481718198,26.436311614032515,17.702766568614035,16.730897764912196,18.70151093061307,13.108584367990069,4.916635404039904,-2.1689242411540963,-14.17513328279762,-24.251136733019813,-22.093163870882016,-17.009955731604723,-17.607398431864297,-17.488340766304653,-15.472859400679079,-15.924858622817775,-14.992767465196259,-9.714621641993936,-4.877938499273407,-3.748030227839319,-4.2851757260080205,-3.1402855224307658,-0.5176713882333548,0.9047173414869851,2.296807567302582,4.111748305755257,2.4527626511985128,0.16885196468465935,3.837231186492784,10.23736715267392,12.397472819331975,5.722841875157955,-10.572561494305074,-23.452075800975486,-20.25688624274649,-11.310632595739193,-9.175206436993438,-10.062449799506282,-11.021734274380297,-11.70614034681335,-7.3317282578888285,-0.8001465285860894,0.41146264973378877,-2.400163641824787,-5.230801355751736,-5.731739653428849,-2.541027764797043,-0.08023782509605226,-1.753855629364005,-4.133200886804705,-6.211167355612918,-7.791373270545964,-4.137503579761061,2.3614763100697753,2.8434355419735526,0.5015176043802838,4.832102747568076,10.204473241166593,7.826156055006429,7.907084600972101,15.629571302828102,10.949631576002838,-9.470717996509388,-20.024038578166085,-20.81055786011217,-32.400817005430696,-45.539367449298325,-46.34581767634649,-44.906302970331204,-46.240834888784065,-47.079849599737486,-36.10419369480399,25.361508355130567,151.9284145475107,262.71730568059394,229.6173964302586,35.7055820191395,-144.390586239717,-144.92354735169044,-50.56393014463105,-28.384154823227405,-50.35242797816964,-30.89598260762626,-10.596244551412106,-19.66866673266972,-16.26110561115645,-3.277159812385646,-5.232303104118957,-4.091424610311316,5.143565136476491,4.272337348584575,-0.7222090211134313,1.5776776739014888,3.814434376047301,1.8040256611392727,1.3740150279856187,3.4991389175990544,2.287492034458766,-3.966033335652905,-6.610980879076511,-0.9703839890724626,0.7971552015926648,-8.854212033681714,-15.245087037483431,-7.618519438527269,2.616756283299853,5.1850895118476705,5.182901643930231,8.885598350095623,15.119848942412792,20.373400640998355,24.276913837308605,27.84981185086872,27.595163095282896,20.248965260022338,10.791040087388566,3.5952057504884873,-4.775676782890884,-14.443253113181239,-20.11444675599527,-22.924223308110548,-25.353159885161148,-21.966782414102404,-14.64166794500478,-15.99899434859843,-22.25472661881261,-17.236030855346968,-6.5081735895555735,-5.5340725649541636,-9.36450818559512,-9.410255571905246,-8.875621669622893,-6.889190947513125,-1.7657426379305594,-0.33325829916925365,-2.798249882305093,-2.683467267043361,-1.5601428858057567,-1.6994524519142278,-0.7293841511847781,-0.6024738555729563,-2.828700840355042,-4.130675215110104,-4.881342333715346,-5.687261941880774,-3.087047706283383,0.386380145867542,-1.131048547498497,-4.623706445261137,-4.762269478158773,-3.2666068115615214,-2.5863609061663526,-1.5881715448736013,-0.8333547712342355,-2.444323820623767,-3.478563943189708,-0.11814964938176153,2.486908884907704,-0.47087939783853106,-2.5225712191641114,-0.7794369878561493,-2.9118935405076307,-9.055138148913922,-10.558503413496851,-6.2767678782797915,-2.7600391018001904,-3.7838005809816915,-4.7632390167485,1.1697483211938888,11.138165524252301,18.35210422126823,21.292289468115044,15.836469074715465,1.4070532201382027,-10.30474176972636,-14.954864197167915,-19.064678208587317,-26.02227288628171,-40.44886736385024,-55.82704639930779,-53.47768452979675,-43.96175324892101,-40.45917752617827,-0.10017573493568932,109.69903839328958,225.85619414984478,232.80328331018862,82.34222226203086,-107.13439193445863,-152.8292539891182,-68.1587559205899,-21.352657702469497,-38.9417189235881,-33.84951390302487,-16.284684663308973,-23.317396740138655,-23.498892788799502,-9.803762231472875,-5.965820398796723,-2.8958125383158313,3.8534070551025854,1.3771807081877032,-2.0491689828643747,1.847010323320105,4.270877963557724,4.127161346013927,3.4001502478655414,-2.4539210070343414,-9.292918544930453,-9.898262311689388,-8.039407040320668,-7.806143999965947,-7.9049368421761645,-8.084117528207623,-6.0728043073656055,0.6214856816205505,8.06117846815822,13.439082447137348,17.478681012770508,17.7603757178191,15.885396049581761,18.328391141025183,23.144169844419505,24.76321582511652,22.669544491424624,14.875416579469668,2.129864411141959,-7.267802495812653,-11.765833856766141,-18.287781789907427,-26.9559868834383,-30.92380817885819,-27.67892482878965,-21.451860758225937,-15.882411786875675,-10.783807407966528,-8.168026292786815,-9.573647368048679,-8.990808928299128,-3.078869042368714,2.4340388298247415,3.1304230734948586,-0.820015830114059,-5.333259168307713,-4.481307336716958,-1.0264525530984754,-0.11666759729355025,1.6691969733216743,2.66610150358132,-1.6083890517841697,-2.0081871466775847,4.968246235185708,7.437995095259652,4.81987226874884,4.873756272856367,3.1062375946212786,-3.78155136490612,-6.9834660947277225,-2.213151801001228,-0.22125295987107307,-11.191513448265265,-22.895204392720125,-17.669303613979494,-6.255279927817384,-5.87616031402986,-8.439676437501793,-6.52087999947161,-7.220009270586415,-8.007685378402204,-2.987884365727293,0.8925444495163761,-1.7658786781269011,-6.518323073362402,-8.187377564791374,-6.477533671504743,-4.734864096285652,-3.8524551043003497,-2.71827351986368,-1.42973352843345,3.1911052898336445,12.233312187041658,19.572900114859593,21.84987612723368,15.922223127774664,-0.9714900287819153,-16.79171701479667,-21.945993557979083,-24.84432126521365,-29.01100772028937,-33.45500172305822,-41.45215874124816,-45.442967306657486,-42.50799289214269,-35.13108071481773,7.720109697706469,110.6692071444268,217.16688616488676,220.51480549282147,75.72852333310723,-106.47520493000687,-150.73564728526424,-66.13826937706199,-18.979133491057762,-38.6053363223768,-32.208245139480745,-7.9895199402027615,-13.150167858488286,-18.66508819201897,-9.441858781608031,-6.974421957774424,-4.531731328808826,3.39939098323216,4.397908814794292,2.569597016869136,3.5618220284992037,4.06927227500629,8.355612605781769,13.505988565106179,10.340514194658478,5.539306221274581,1.2407284493460455,-12.426201904334292,-23.244228275076324,-15.87795033588695,-11.01372644571077,-23.56957394344532,-29.61132635586487,-16.795380820166077,-3.042556899359502,4.493899602910513,11.419359311054,15.27584928368656,15.52503900499666,17.82081889547058,21.869240255660998,22.892378525414564,18.81910430437525,10.377884087365342,0.03248947511190714,-8.80925436436295,-14.810561059017157,-20.250073842662445,-24.933388325937248,-24.6515296097694,-20.892738033593382,-17.816434364395068,-13.100946835943237,-6.961933687811058,-3.6900577703852235,-1.4907080196356244,0.86763550064369,1.5921959882301273,2.8908698264106922,2.6976278311208386,-2.8120071072098582,-6.405492948127741,-3.84134626189518,-2.334752216444203,-3.767016675594392,-4.358652940095775,-4.11959344410289,-3.0280161332722892,-1.1130707635425594,-0.3075350951941065,-0.34398392426752267,-0.43606862774512845,-1.3999678345676472,-2.9348859808542853,-3.580201710531653,-2.357073510401634,-0.7073163071315474,-1.139311369455318,-2.3567125289317037,-2.7853558287083136,-4.001944583096876,-4.57976942963076,-2.9912083418912996,-2.512050425133086,-2.4695784383591786,-0.19259560049552293,0.4640559354653404,-1.0458705258965897,0.059308396273678454,2.5569978900520063,3.1936029240430104,-0.06696246348421031,-8.782417112063069,-13.429860152448665,-4.892074513069172,5.822075578694436,10.493760061964647,17.614287164511147,24.48147438681972,17.863103327015516,-0.7813738050251731,-21.748663448640464,-37.43357739215952,-41.07270537039618,-38.43904440390219,-41.65115803540137,-44.59219523650262,-40.04760646953273,-38.80073857740178,-29.00402113068146,32.325570936131456,146.57740220724207,235.56113639396239,196.3133159946122,18.5502823892923,-143.590148696073,-139.23867749082393,-45.66961307691245,-19.71939703388197,-38.10806803922242,-21.02581012452348,-1.4063293160974304,-5.693679230872517,-3.945087094405631,-2.101125810297601,-9.53192859650512,-6.303575228051101,-0.9729906081107806,-7.051070204121171,-7.640942609103959,-3.080487010768856,-7.25782372969536,-9.170495841504192,-3.4897770824492067,-4.731393747183645,-11.443529400639424,-11.944409973286485,-9.71534988651003,-9.946347242895234,-9.301704220965714,-7.432169701184796,-6.116016350492646,-3.7939362943623998,0.48750818829541775,6.835300292413619,13.796532675051349,16.609434091475375,15.819283344223471,18.221046399759217,24.26181139899547,28.872772329360632,29.604908989686386,24.72812130372254,15.032862154965146,4.899834839474811,-5.475765406621932,-16.300153467017502,-23.749169640672847,-30.119262355979735,-37.179423545071536,-34.95060330761309,-22.128468806263996,-12.1920278582623,-7.781854027608368,-3.70976933975753,-2.4958719710136243,-2.1289788652493273,2.3796135352490166,6.156057576521755,6.855068255121735,5.6136452771586285,-2.536499324434608,-12.247118696311606,-10.875678808558233,-4.75881930162429,-4.804323397400607,-6.025466881301205,-5.322237413750976,-6.568494861545957,-6.636089256217284,-1.9040977078283827,3.2273056112061633,3.5575937509068165,-0.6023984323682239,-3.455988338068747,-0.2436800069192726,5.183321578008683,4.586537082400386,-3.602773571515664,-11.492701027299717,-12.511465809909813,-10.452006486568571,-9.135402059066458,-5.437173115804507,-1.6646251949022721,-3.0410050336583154,-4.809689099633721,-3.8481794151271416,-4.498590716898994,-4.971054271194331,-4.4909739593135924,-8.63984450475634,-10.285362956725674,0.7420095746872213,13.138769076912181,15.762529539773404,17.095924358661733,18.727519700303908,9.653219886239711,-5.880725283475659,-16.009165156941837,-24.18972654699428,-32.837972376107956,-35.651157429983655,-36.51426760496316,-37.61147819577559,-32.818228958260406,-29.400055080842172,-18.611520244964783,43.96495004613919,160.16309131103424,244.40869468290305,193.7753156963846,4.580799580596359,-165.02317003786897,-160.1598630956438,-60.58665802244735,-30.22469653109695,-43.960348287738086,-22.045588755600697,-5.347176237187611,-15.646945170165425,-9.892918276616118,3.0759295819357337,0.21497484239411158,-1.4928157196984024,-1.0107280215181493,-6.303656058116392,-5.240520064104814,0.9392850879132535,0.13130454636291589,-4.9148520689090365,-8.232834556104976,-7.563471106746961,-2.976056340452895,0.6837699105170225,1.0061825027614422,-3.7564610562422587,-14.929847957103501,-20.94601667199085,-12.621042307111543,-3.132062274048722,-4.612019796533357,-8.439644830473437,-3.5821941892628804,7.622227442711797,16.137655510132653,19.874554257879222,24.034365506366637,27.160671033335348,24.36103820208956,20.22514705410488,15.911296853752088,3.645460076723337,-12.54208407721878,-22.507710824168797,-28.274596057058396,-29.93268594875368,-22.99833943187498,-16.709758944039763,-18.37811731350555,-17.03248182623838,-9.154817070058726,-5.875002152279611,-6.214764199071709,-1.784295703499545,1.9033860347281024,0.030812089161657674,-0.1553704552279891,1.5048136065753672,0.26564542102677713,1.964972898271045,6.243832931840356,3.2817970053066787,-1.2313018789992478,0.23769432221176778,-1.855711716899374,-6.69308365377906,-3.7394080831612158,-2.544455778836431,-10.03988543728352,-11.48756779754679,-4.712776421716746,-3.4552210989987184,-7.177919820223144,-7.442063421128621,-5.162285677808725,-4.309620921859179,-4.702641257921272,-3.8256734275092867,-2.5986042471439843,-4.182383838084224,-5.291443850688331,-3.6000818341057865,-5.206707594320523,-8.033245943832735,-4.048743900484354,-1.8098797650783265,-8.272174625744663,-7.177695755342361,6.364897421861205,12.639860781029292,11.810759954072557,20.1381070772078,24.89062787937528,9.272262561743172,-11.331248800543552,-24.014380833715002,-33.88593571345899,-40.17502601601465,-42.634019956308634,-41.03832325207921,-32.93053060228627,-36.4870076667112,-45.77852009363164,4.393835266102286,130.08998990853684,239.93000239614722,229.50964754443248,69.8505878343318,-127.89099146423288,-178.41191413765495,-82.91528981574777,-24.949168403367867,-44.13664139743814,-36.920802225725396,-8.734583318988431,-12.786579929512737,-17.401985134176087,-4.180224585132509,0.5849706455808104,1.7350561950380072,9.907431941448078,11.368396784830892,4.200827114968834,0.5625141533935647,2.875561788933135,2.578090603321023,-6.374066716313866,-16.21566334887376,-17.177180478393442,-12.41545489198634,-8.144177288179833,-7.08342952561515,-12.247414601832315,-20.129512079191638,-20.349282463660142,-10.898793524802272,-2.272644867704496,-0.08822637948773071,4.308717157398892,14.433001248353,20.75760561678034,22.575084922302587,25.504784186307944,25.0557598961429,22.837907191169176,25.207280929409727,20.02921174857748,0.7244290541978042,-14.69371610448346,-19.16545824241767,-23.493190877572836,-27.690575003263625,-25.365365001371355,-18.3265421939042,-12.803258479197797,-12.997509106514642,-12.951094543608734,-5.226926472212147,-0.7010121783652536,-9.273087751732614,-14.904772535506218,-5.504282923635083,3.389936657797823,1.8756197870389189,1.3077256587959445,4.280377626611092,3.15312296641498,2.905330305683891,7.5562226055433825,8.905019797474552,6.732964319057707,3.1361635809099493,-8.736707937357966,-20.0824637106548,-14.800327403458322,-5.024840206795742,-6.245533613801064,-8.31091625413406,-5.7093526011904245,-6.831315247873187,-7.9197799654464625,-2.6342335000332673,-0.11356821535775641,-5.847980109007154,-9.453389192140397,-5.37902655843098,-1.9427783084621613,-2.0345545113884143,0.23567255220648065,1.0327100217071772,-5.205621461540804,-6.811275652071059,4.415661962943339,14.952658054335469,16.87421465585059,19.30532333897676,20.032370281446703,6.141963829660945,-16.58879581059373,-30.99015540775281,-35.222456431585876,-39.18126782387034,-46.60810791387962,-50.099524413356676,-45.394553969345225,-43.2400572685778,-37.37593010497735,17.063910508858505,138.06709757920208,253.36942354422584,243.1213372798157,66.37881033495677,-136.81261686176381,-173.1508787292151,-70.77643708491057,-16.910854174688478,-36.292174767864154,-27.786290057789245,-3.3571613210874496,-9.592406617605597,-9.848660521866048,4.597626233463874,-0.16911689911464123,-10.22497358185441,-7.633849462068772,-7.511460622998818,-8.363567981185508,-2.1668070057008437,1.6731401594580406,0.8153771005996839,-1.587407148524223,-5.145260743485996,-4.136120401549899,-1.3249289143678347,-4.375368061635973,-7.095670791169903,-7.80383875889244,-11.993754736470462,-10.504319943116858,0.6491860885836502,7.366208305836822,7.199092796789012,10.115223151749046,16.15280204446785,21.191729588827744,27.325594470039363,35.987204757284985,37.81348778674216,21.863953431739592,0.1356722048029282,-7.0656411681643,-6.920202816045277,-12.996694411200963,-18.637148056232505,-22.30595500352858,-29.526285181696558,-30.82052856005421,-21.019542739160762,-11.481005319082803,-7.88278539852201,-6.77690035855322,-4.506702926823159,-0.05469083005034214,-0.08007160998258023,-7.325559825017999,-11.203256857163073,-8.113847882463006,-5.6359829317169705,-3.2727071105237107,2.001754690984553,4.415844863294908,0.7045823762848018,-4.535389160132304,-6.368590144933475,-3.2907908664552075,1.074037579601291,1.3796872590659053,-2.009817146690586,-4.898741935957313,-4.7789832166185375,-1.2481311813464768,2.9226131056848055,3.4081787593186066,0.7298177478266457,-0.7535395366469784,-0.44025741041873534,-1.7940266634175401,-5.5745095757880705,-8.444370454183893,-9.087629181403168,-9.34353980793154,-8.913977525318813,-6.555473931095005,-3.978691247653388,-3.278732702124268,-4.78563482982185,-5.6021480772473335,-0.30624042547831776,9.261089363923176,15.800147635024386,20.072413972110162,20.726133278630293,7.837957159206756,-11.702929549250243,-19.926486824874043,-21.521007498216374,-29.540030956880827,-40.69162742395285,-47.606064937355505,-46.573263363498086,-42.47955818790152,-44.25425937065235,-25.953652060014093,58.80725115985958,192.57896694787487,270.5775050252821,185.73617175032504,-25.496262587844388,-160.86670394525032,-113.03955475360935,-28.989556240798557,-31.444952505249166,-40.65136568181034,-10.140360000121444,-6.287823259588439,-25.739123579893388,-17.999461482011842,-2.907762462956738,-6.829854693022474,-11.622888683291855,-8.267577970359888,-7.181403933650206,-10.577769214343933,-11.802196388315835,-8.245399498968048,-5.990821182758264,-7.0244141080755105,-5.343949943411747,-2.819487195752818,-4.100074323003435,-3.703498007988527,0.036886297355706255,0.5449539514939792,-1.5165838798970708,-0.9262566000852335,1.9361319043332867,4.617269442725935,6.731442184982031,10.42488274364893,16.64001731874995,20.085727047907756,18.246863479565675,17.98909732537072,21.047350752757627,19.047627811394054,8.894483589599869,-3.2801615686027494,-12.53280002951221,-19.702741380057944,-26.083167264759794,-28.423740523272606,-25.571907696724498,-22.727910497469598,-20.933499944329196,-16.862318993213467,-12.337007916334208,-8.70631562442151,-4.706999171451844,-2.696348773554064,-2.0159673119285166,-0.053888923481030915,-0.22865668120298288,-1.3112016708253327,1.1663304652743154,1.5260652665171772,-1.8385562815015284,-1.239748132879149,0.9366591940579383,-0.47502119830349887,-0.5349570818963691,2.1648762410527933,3.216149730120225,2.084834097473486,0.11048123572247803,-0.993314096194343,-0.1643394374962428,1.9033039341330866,4.711683285524253,2.5240216702504235,-8.706620698180105,-15.974768383518846,-9.258413085813991,-0.9942804235626959,-2.9095395435232625,-11.50277937122429,-18.17331318283088,-16.312067403094023,-10.307211112297239,-9.200816668797204,-9.481310740020957,-7.8743362006912125,-7.937861960587513,-3.4571687014001213,6.959709356090613,11.805043064915004,14.919380658040073,21.718619124137575,15.850166207404037,-2.732689801213417,-12.3992811464367,-15.938413969740697,-26.14332564536239,-34.87345977631363,-37.73711133644335,-40.115355707915214,-41.96501036045731,-46.52452376495619,-42.328041063056915,11.796539973347166,128.95791824475288,239.95459884583948,226.35014600923927,50.94409990327972,-134.29858722429248,-151.0589079941329,-57.84361049906438,-23.609023343447518,-41.33771191666764,-27.187547585988924,-8.258993556828099,-16.689852933364804,-17.898961500526028,-5.982286374732224,-1.1489357577406718,1.335180660088363,3.453874165483506,0.20079533940294425,-0.5977884161935032,3.959425075506756,6.468560061620008,2.8914897913614563,-5.8400080677557265,-12.891804185115015,-11.976115787133724,-7.493163178429081,-5.747922410065614,-6.997463355061124,-9.606593804024548,-9.806810162571612,-4.2042483051580275,4.542996616323412,11.267106237502169,12.834434420788977,11.30207406183488,13.045413880279577,17.811787182977145,21.697470347903682,27.80170518402526,32.07316064988842,23.022975623203084,8.036772775066325,1.389953455340042,-1.6130491791642854,-8.72758248247656,-20.432181307585047,-36.02553947938722,-44.612442865439455,-37.08103086945049,-25.39064999918836,-20.15900551875819,-16.82007203878377,-13.21714108338465,-9.71186226092206,-3.9083333010559844,2.268382406310124,5.645210049079621,5.701488248040237,2.689977578827693,-0.811754199944497,-3.255873681338585,-4.609044423918381,-3.2914137512773527,-2.725471313830111,-6.572861760142883,-8.014446717508937,-3.350748317395773,0.27728416839027314,-0.5871505705242797,-3.763828174587566,-6.797992815872826,-5.763490370860384,-1.2128750922639284,0.6497461343557269,-1.6090239566866096,-3.7877999296776625,-3.8702865860808817,-3.5807068707576972,-3.3999393186773013,-1.4767981803644394,0.06111989013638297,-2.6900119805789746,-6.55404598415259,-6.830983848797382,-4.453519769735617,-1.5367694398631793,-0.6209875719029725,-3.518563660514328,-5.594824853224421,-0.875583826945975,9.264639990812531,17.629209291895613,18.874315257050625,14.086104143625127,5.072960369545385,-7.454380905400207,-17.281746754752763,-21.826633805420876,-28.707486001031242,-38.53530710341873,-42.87614546737075,-39.83121209066445,-35.22447259962261,-34.323889513142845,-23.941898344034882,31.304633241532457,139.5766332823689,232.04535488375473,197.6604556824318,17.550246188017972,-148.59670799911376,-144.97171312653578,-51.09113983739074,-22.76302469251065,-36.42030504931244,-19.160484946466024,-5.171550669745194,-12.634285268703973,-6.554647157183142,5.9095927014646215,8.6742628786597,11.60083554101003,6.704018972330222,-8.982754706843426,-14.750079416262247,-10.63017749696357,-9.464002639924548,-9.044769066099704,-10.013425670697345,-14.761169975532002,-14.926168037710514,-9.19077112901524,-5.353460028733471,-3.6585653068696384,-2.365150274929662,-3.920829993062834,-4.695510613838583,1.8426689777802097,11.094624797073294,14.28057065529269,13.647627356012087,14.91415805131051,16.2812587676624,17.076289928423762,20.366970855438748,22.588031345968403,18.20636730713862,10.095641697507006,2.924071793932562,-4.229856439802118,-12.90978441931275,-20.901252635060025,-25.534218443544848,-26.716558880473116,-23.815343092438408,-16.53218058585341,-11.342882457530651,-13.603594919088707,-16.343551453652676,-12.784015071379494,-7.2160592918304935,-3.2059378047059397,0.572035494642531,2.443441865797075,0.8609702460353175,-0.4164589847596245,1.9944462642162604,5.274159322484475,5.064007948687416,2.9402602322622244,1.019650452877511,-3.8288373816987136,-9.932641203384094,-10.76709570327862,-8.397703044345311,-7.411445407159482,-5.987220637594307,-4.538032924802658,-4.405633618892544,-2.7182068343261356,-0.8618364121910114,-1.565727921743287,-1.6910590335253897,-0.7575457189275774,-0.4094832978218088,1.665668517842808,3.9977663631482607,2.7419834677415977,-0.7890463263278695,-4.736627877883317,-5.686568719120279,-1.5005338697684154,-2.9751080794675886,-15.573046451913607,-21.44351084171243,-10.371459684418248,1.9615132199612102,5.897769037243927,10.31148070939479,15.354122852337843,8.200701649037486,-8.656573912998192,-18.851619826981057,-23.013623400547083,-31.02972335302867,-37.52465269978934,-37.39210862074039,-36.25174555320755,-37.54985225749735,-40.3075299929328,-24.204406682236424,48.677442924794185,169.6238338581476,247.16611253695507,177.5886788849861,-18.074295402928126,-157.86725705692578,-121.42587104471761,-30.051142848411065,-21.507578204241927,-40.41375743029587,-24.029553451727153,-15.172214799139685,-19.55606377919372,-8.42195549303841,-1.326273478519921,-5.271533729094517,-0.7009893779420171,4.25469602061595,2.96621592125967,5.101267294007331,4.990470471077307,-1.2043688313606653,-4.9925563843896,-5.334088277678992,-2.5125360742383753,0.009611818664525984,-8.228530804738345,-18.506742673607164,-15.125357538899749,-8.446298501059623,-7.126461984610877,-1.1308384457257505,5.492117861113356,4.063513917378253,5.311784521373038,11.692161945112609,12.717172407637754,13.675481334817373,20.510269826958723,23.743632370649824,21.745149899014827,19.252477588362744,11.528440184078864,0.0030997682373472557,-7.079657921995912,-13.532875073251944,-22.139653795059452,-24.212291442077994,-19.572183066745275,-15.031655228674524,-9.90747528557451,-8.571547679372308,-18.46424364112502,-26.956307365350206,-19.075977106545295,-6.594825562045582,-4.641695375556603,-7.28618581560645,-6.984648876044734,-5.03172159180879,-0.9328874004836631,2.9356107538445926,0.7897906947363538,-3.2550244279792384,-2.5085667360956663,-0.0341066764765916,1.2383333372718015,2.327429335579419,0.9980174993314801,-2.686377792857259,-3.997903900502328,-2.279261758815287,0.0072672308021131116,0.5760125278074488,-3.826390904010399,-10.538436530386786,-11.411149467976156,-6.8468417733894,-4.0261552494322945,-4.032330849827478,-4.399145385074706,-5.268061831771561,-6.596415405026221,-6.373927024350717,-2.747947115894462,1.8391603802870726,1.4161767264533234,-3.853529812856423,-5.8961533960475405,0.9662169153852633,12.042485762758822,14.928554145165414,8.522849197738548,7.3686160510032295,9.28011706285892,-2.4669710351947334,-17.94711500209273,-21.141892556593007,-25.074559899219288,-36.629338041879755,-42.23519047565588,-40.15895174109357,-37.84481684990787,-38.33858891154415,-32.926813846092514,11.511050319986914,113.01122388892813,217.5413403686071,220.17280777117418,70.02480285812248,-118.99249392866169,-161.24714632571798,-68.39005715467952,-16.905362148344523,-36.23526207608102,-29.214115304465167,-6.253709603035727,-14.246236736791259,-17.397917485498375,-1.896693748573254,2.2735713154224406,1.4708139533469273,6.011384977748984,5.121374573820339,4.542918673466433,9.707454296644968,10.207558477178466,2.9913656922049725,-9.637992787770576,-21.49421960190526,-20.923611043158967,-12.152029420941528,-7.719617307305169,-6.366792726533915,-5.369229188506228,-4.4867460344840655,0.28393751958119307,4.470656287621014,2.8740696618405344,2.5899327145955,4.61865733808189,3.3170247100118093,4.993633552167681,14.233063947382675,21.248700783351907,20.310332728535684,16.380147784060952,12.11329402368646,6.388102608792411,0.3789829651551164,-5.183778269624776,-12.414511072734832,-20.208316372223535,-22.804064824280253,-17.87166966399591,-11.08187552042709,-11.339138425821147,-19.506449950594668,-23.998631520946414,-17.41784243787311,-8.348607941860585,-4.556678077314116,-2.8466457007524824,-1.8053416510199494,-3.295780827323725,-4.23252560551619,-1.5858312970477293,2.7049481154905815,5.451795754738673,3.862707279307492,-2.020473764685006,-6.500900162932237,-5.047962665313902,-1.798079838743437,-3.0859903973042506,-7.252395984132994,-8.197179698712894,-5.236721844265784,-2.174589659210991,-0.8005373229009081,-1.0186172340368982,-2.685160986492698,-4.518137509602781,-4.670793618295736,-2.657388334535695,-0.7589743583962747,-2.551272928767217,-6.368645109163234,-6.32062428828236,-3.089355987379439,-1.5743536226661323,-1.494225020159056,-2.025539374242495,-2.085379878663001,3.8083767451274655,13.849976938588345,21.095011013842623,26.69230302081995,23.719202975214905,1.0806551799397166,-22.638451976790996,-28.007445471169888,-32.339898582770104,-44.193706836652936,-46.625135096269,-42.74279563236189,-44.062373885368665,-44.54148785215983,-40.541569815045875,-17.487646652598755,60.232165004738874,181.91376801962684,247.36580030088768,153.9522084318911,-47.054055148544634,-159.5685838267423,-103.80727510222003,-24.835041613797213,-26.844623671579342,-36.83983506397476,-11.47193039170839,-4.156627846456409,-18.748355179118228,-17.06097857443631,-7.8412712058823,-7.115254937775262,-3.558708652745642,2.6727778219545604,2.3835731740559547,1.5086382745474687,3.2286647294185196,0.5903569679119354,-4.315321158189795,-5.700078787907044,-7.507084436255847,-11.645202950491477,-12.482487884111677,-9.268471133885653,-6.729206820998741,-5.7852590559972485,-3.252181536423153,1.5433132092557642,5.066413528146816,6.715925711333954,9.661029882127254,12.472060122601446,12.70016443609541,13.827968115731656,17.360657249075043,19.56686446852592,18.778578889015446,15.454773341876226,9.452318871357493,0.8342356602456058,-9.141190429236492,-17.023072747955844,-21.209655706355818,-23.878370006809234,-24.19947963076961,-20.418531431627077,-15.414122716020305,-10.275517734925355,-4.743260278855358,-1.4975673274800556,0.997989121546615,4.776548370806379,5.176032550868421,1.5406931680744744,-3.4232047346767303,-11.352454530070663,-16.591899509112032,-11.711771732358391,-6.492185596451652,-9.58664439102229,-11.406661899960623,-6.5568826923246295,-2.557941490480223,-1.780993263555196,-0.04199838518637389,1.8012862375007455,-0.6768768258145226,-5.243540189958238,-4.590859401866597,-0.2697043052917163,0.4927031304844185,0.7460034700417726,4.294580357310542,3.1891297638023977,-4.981640565692551,-10.743932381072383,-11.159035662515977,-10.876361786449456,-10.655065530767818,-8.6938564378626,-5.663044584484792,-5.0128797325032295,-6.234704814742159,-2.2035779534689315,5.252753185395467,6.8747606778253845,9.770580126128257,20.399915121929407,19.19275060634518,-1.8892531259494971,-19.72612161681467,-25.182577205018113,-29.19855452056622,-33.49563945161071,-39.111858500962626,-45.267003020434835,-43.13898796581616,-41.742708107091794,-39.68725331364949,11.968657410382797,131.1537889547152,242.25028666428926,236.16378208858353,71.87275456236577,-129.52297688471216,-173.6886801177959,-73.69223803936572,-19.42041619169918,-40.827432047699205,-31.968314851290565,-4.929103297531384,-11.023511081453332,-14.661290368483272,-2.084522087686386,0.09094770188327317,0.628022876624212,5.276587710797102,0.821695088484339,-4.62791468726812,-4.235229585030167,-4.756708006384647,-3.138669014227218,1.310938012486477,1.2607079679906201,-3.0038642824851136,-7.5666652897918265,-9.093821404917286,-6.543114435861975,-4.303458921288618,-2.079269952071284,-0.12654183214462034,-5.644026410924566,-9.633870180382214,1.9872840696785101,14.357864951600837,13.869414965644532,15.188624666216462,23.30775921633049,25.386908227433423,21.36492978263339,17.20104569470734,10.365205380684387,-0.09683018222642037,-10.58822482611641,-17.67664185619575,-20.70501920017886,-23.379514105272808,-27.203260512818915,-29.324473610921505,-28.992715692924726,-25.92971369716819,-18.858298942437603,-10.238164253943399,-4.915927416779294,-5.146375822071079,-7.66433613658096,-6.924526146104986,-2.645027500309828,2.510639418433663,5.714309269843032,1.748886169777773,-6.2644265761819,-6.614754089022034,0.09766432938664593,4.522667492830326,4.535145591110693,-0.42871579510010527,-7.5635823439341285,-7.800748618518041,-3.082967108402724,-2.232648235655045,-2.9532767402988096,-3.0506369677987752,-6.090518813363753,-6.767573947658328,0.07889019460194202,4.183907247839482,-2.2102765570970186,-8.309393119635633,-6.005020331277407,-5.049145472187698,-9.115708120068163,-8.420280886408468,-6.271072707920891,-9.566645248558736,-6.027670620802873,6.917134546049099,13.725800235649695,15.644684213637312,16.297213955934396,2.8662240144457796,-18.050008272599992,-26.295908493652824,-27.42735900797855,-33.73516426519738,-42.23778526174728,-47.627788529206825,-47.7481400607492,-45.42531505239769,-31.323413028324225,31.232432454749848,151.1097430526262,259.7355085097659,250.95001058294304,81.92846292875124,-124.8765585669004,-178.33727235762984,-91.1977059916201,-41.08991036510251,-56.823201045710874,-46.29469118059278,-21.452890073315743,-23.135895479833334,-19.567805452224768,-5.842619626349929,-5.95712975841646,-4.805542155732317,3.193721114407092,1.1022207168624831,-2.5286793020972276,0.7680373804292824,0.7687090847966189,0.035571936360656586,2.760793411564188,-0.10918852510636157,-6.655237298356207,-7.617903412213215,-5.339853748321136,-3.9122951479033996,-4.641724132217533,-8.81620747348176,-10.643133984605148,-5.292956527917861,2.213018569396033,8.408861975928737,14.0436362208426,18.551557786796845,22.35502322682777,25.084742014178033,26.867882220359895,30.734895003502537,33.031698049299244,27.31168307230599,15.298717430614099,-2.41550838510911,-23.467188375139212,-34.376258998665534,-33.29686938481379,-33.41835810193858,-33.118642327018534,-25.528079791640796,-19.559149785253954,-18.354132686265686,-13.591600595568726,-7.250902898973456,-4.258586247710962,-2.0386200192647816,-2.198626879422344,-5.020799790334507,-1.9135222306034008,5.728708551750968,5.4174898432084255,-1.7599252292363596,-3.793785550557823,-0.5149046382427045,0.08025142222095027,-1.0419073471087898,1.0356722929058488,3.0730242925333027,2.341817420458586,4.882976609911326,10.51176530485738,8.033839998274122,-2.080157286198393,-4.338774833148122,2.892970933148428,1.576900991540473,-13.807899996058435,-25.23794357869103,-22.6683533404523,-16.899494887231555,-14.639655285204451,-13.060220168306202,-11.694685942947551,-6.1236135868299,5.310679755825383,11.488668539979574,13.184569958375828,20.179637874923444,19.256011654004954,1.2539333009193858,-14.447631195882266,-21.21055118921453,-29.782929269274177,-37.5242700103181,-42.36530465265044,-46.44954305804779,-45.13826062736361,-44.14430238486959,-34.9190261100866,29.14876074702017,156.7852989533512,262.88469615999537,231.50490336727887,43.70962521050474,-141.15242935438422,-149.25669588395056,-49.82047156278583,-21.79127134535397,-50.63485419684393,-37.398248087299066,-11.624366870511118,-16.495171167740452,-18.412199247120007,-7.952438245900204,-4.429359168307281,-2.4748966265557297,0.49503146170450263,-0.7625762133006289,-0.3935741186349926,1.3807177676068325,-0.19536044189643054,-0.8349411703023688,-0.017591837834007862,-2.2261289414853245,-5.219410089152289,-5.8329767448092396,-5.560358824346749,-5.1299861003348735,-4.010708414698467,-2.9107436915838765,-0.6962967855165383,6.484434358839165,17.130393270131226,22.415075118287085,20.44562564169847,20.004325591051472,22.560488110365142,21.433243628576882,20.012368735973585,23.082439515464173,20.822152304754017,9.098282383596853,0.7106604712813086,-0.8988617382663415,-4.733377929779879,-11.358991961640534,-20.32197066607515,-34.152851406032454,-41.44173701556727,-33.091979625824194,-22.921665137442286,-20.474028160789878,-17.582424700244225,-12.447914195751324,-8.593420249307734,-3.082947367261651,1.6631675820291,0.08767134158461332,-3.370345291924096,-3.9703856508205986,-3.1504626314034283,-0.7916660381690246,1.9675001103470446,1.0924698412209244,-2.007226686185237,-2.4297643164096083,0.6895515326330752,4.295016276172551,3.865888538814925,-0.8081236855766569,-3.1659385897916046,-2.188993481123413,-4.945028847529925,-9.076174998208261,-6.353156987517468,-3.3192703848744536,-8.805028582414668,-13.178934168656316,-7.421834044435848,-0.8280773773837549,-1.6398566596546544,-4.91089262257122,-6.290318075399986,-7.270124928148029,-7.366587471434435,-3.6994698220773543,2.59420528428569,5.898404733411228,6.421472074722477,12.6056027584085,21.499886484876264,16.714080439766974,-0.9899924507256204,-15.093883924762945,-24.19753390368693,-32.990318050038624,-36.684468456904604,-36.52813643652456,-37.15276783271787,-38.925238784183456,-43.10098293737613,-28.767518240050677,43.62897551864302,166.9211612256836,255.46401771580773,198.31437577311618,-4.197952230027411,-166.06745189220595,-139.10609837303204,-40.681052566587354,-29.266196534304846,-50.618068532751956,-26.851050123817288,-8.426531664145624,-15.813483610621555,-8.082971126630461,3.7969911633749422,-1.8757798198904077,-4.381673107600876,1.7043411680840181,3.9061962669808734,6.829794053427473,6.918165316047612,-6.372006524831903,-17.843431996251734,-14.17191457575192,-8.875932438187208,-9.383670266471134,-9.580615179542427,-9.920816101820911,-9.107169747904287,-3.9235361509689923,-0.009004292176579054,2.5400327362450614,8.420224380933393,11.403254305758225,9.6902662501554,11.832318298483042,16.354780315452153,17.405066955860793,18.003866842253316,19.797958913069674,20.43527707602456,19.372810750342403,15.26008887666076,6.994292105892209,-4.752355610252069,-17.466802146760276,-23.795394938454137,-21.195585805003248,-18.268342075875122,-18.68749907481554,-19.131547801099302,-21.09306271177777,-22.185244804589022,-15.897271857797056,-8.033330629016413,-6.424254587978613,-6.68108305816491,-5.451898920375143,-4.453365227443399,-1.5524853155609835,3.252341341016521,5.031058464650093,3.072599253116447,1.2650393282951988,2.7375178620079517,5.823794977625557,2.46930992875582,-9.152352405737744,-16.168339060547964,-12.023689525278895,-7.773301663738017,-8.243666718116508,-6.293161562213276,-3.450751143266249,-4.999600909008837,-6.833070770806005,-6.090083906986135,-4.254698130787121,-1.3933911878865342,-0.945327335885767,-4.512250199313733,-6.407368819767478,-5.400259837943199,-4.322211944378855,-2.2626276159496133,-0.23473402088684203,-0.5181834492108095,-2.4042169046238486,-2.661194784013701,5.246107428431355,15.856767988635262,12.42712023526154,3.620573466658975,7.255205616648899,6.146428518596085,-11.110349439756991,-21.498822466681784,-22.979533521993304,-33.81108212560544,-45.85481722451003,-46.59099678657233,-42.449039528896,-41.45309478448634,-44.03081028210562,-25.821306596785714,53.99197237761179,181.68726347959634,254.91813052184324,167.6275772420482,-37.29829111789762,-161.59850437793642,-111.30401714202031,-29.900638721495298,-31.04247715262267,-43.12085638517454,-20.28859929075395,-12.605242652434804,-19.707064229681606,-9.944481805626069,-0.8090939101976939,-4.715985737612819,-4.501520387473724,1.6720417039643776,3.479869639969615,1.4298022184233963,0.33283195970225776,-0.029377893691735046,-0.03758289390772518,2.519496001038746,3.164067233586273,-2.8178516187612237,-6.911939958739104,-6.711534358030929,-11.933894233276071,-16.630794786587916,-10.534142075303976,-3.340611557347816,-0.7852089317537532,4.37769516874088,9.638436890754807,10.305069215845782,12.127187009312935,17.58389766635641,22.174079878778436,23.239465949388492,21.905584605240676,20.703577134815426,17.734667217107052,8.83634807924162,-2.558184544053871,-11.321707396560635,-18.690015887419012,-24.018954002268647,-24.51843735071537,-23.771227960486794,-25.07596305402578,-23.79149827118802,-16.602461822631525,-8.854894740262797,-5.210977130739666,-2.3954488688413473,1.4062789732222676,2.1689398793186054,0.7786236779281497,2.384661055319424,4.983555214361268,2.486829342115575,-6.029378589142036,-14.803947881589341,-15.787449926574881,-9.480089037549922,-5.412894934866776,-6.339719356912898,-7.287456986231392,-7.079729059206916,-5.740243763328911,-2.7005110318980794,-1.2905671651499198,-2.7764395690081987,-4.306794320283454,-4.875929413480419,-3.5592239294906625,-0.628493955951364,-0.2660255352987271,-2.59041891309331,-3.6313881164256365,-3.042327396642005,-1.31604531943547,1.0568363641989889,1.3059075903180384,-0.5625319626696772,-2.3110477768135755,-2.767977901322379,-0.7249558690988485,0.30455435853247614,-4.176734773111079,-7.905223626197309,-4.904489765927501,-1.5143418215526259,-1.956734446949831,-0.5035886747418412,7.3062329482161275,15.693061040686821,11.63260766923411,-4.928322726195889,-16.459941987125184,-19.81435157406655,-27.893003159158933,-37.19167165742142,-39.53510434145133,-40.17204076988571,-39.1162817434049,-37.03987670412948,-35.137987605641115,0.565816389909628,102.4692381913888,217.71034750904903,228.61072062979127,81.57193155149346,-106.96820984003789,-154.5528850005016,-67.67310861600727,-15.388487475456635,-34.71597722645897,-32.1028425083565,-9.110003104778087,-14.316067284353359,-18.84614778773008,-5.103557930104337,-1.7469041175156992,-4.701708181483879,0.5258224033234087,2.102452564832956,0.0883414721109057,4.179287552551114,9.33868218649608,10.27686035480398,3.6393132689679746,-11.342445913879288,-19.622438500132176,-14.367307680344052,-11.501920467242023,-14.397883764932619,-12.121727405757625,-8.948202271303431,-10.024320085970484,-6.974047773511591,1.3101263213506262,7.431118706001893,10.907210837955043,15.421071766653096,21.702292179002363,27.059651598590353,29.6742555553855,30.072748090594057,25.12948163273623,14.595797873832748,6.865596344933866,1.3118926140434155,-10.395964276278384,-22.39916509823356,-25.57430738434565,-25.013923654743735,-27.194428204462685,-29.564290910594544,-26.848961257194084,-20.011253018562197,-16.322325333705237,-16.013949744133903,-12.359652497622957,-5.937621403327515,-0.21311936489359695,3.4827267069191343,0.639562262334751,-6.207254191716517,-6.634651808464122,-1.2683783047513666,2.0365738198000223,1.3948896230965602,-2.7062388556310983,-5.90262230749013,-1.9788165498842574,3.377784961499575,0.9455801001977564,-4.709909257309823,-5.130199836454871,-2.1250512574881846,-1.2519584061287334,-1.2401886051108804,1.6391846820793674,1.7632248055413626,-7.2362062369815,-14.835542142306352,-10.044205382503124,-2.915433931001849,-4.001604186512207,-6.615028081492726,-5.06350855737027,-4.106182203079491,-5.394731585251136,-3.4909052708810675,1.142387754410473,-0.3409219652177873,-6.4337945751694505,-6.087165944230103,-3.2065054259797012,-6.180611119031658,-6.61973290881391,-1.5746936215956282,-0.34742165301608097,1.9814114732875223,13.209773090616405,23.756655221796343,25.043426554425977,15.661909360029455,-4.786124998559995,-22.765719614041892,-24.752932254571384,-23.348406930645215,-30.966421924933222,-38.481956402308725,-40.92442962327373,-41.50663461061626,-41.549808664495515,-45.12247819208305,-31.27113701497911,46.87556111193651,178.06482211740382,260.27888759579497,191.24052576617646,-9.69598982758518,-171.7970447511465,-156.70033549004563,-55.73061452089404,-26.475737700302133,-43.067218351533114,-24.63356026049007,-4.6530597982714355,-10.641463186845996,-8.610638767584083,-2.2175932424675118,-7.808495303710476,-6.410170802583257,1.5103283433218362,-0.20177226697819428,-2.499506205526391,0.4310560912575765,1.5925907673536033,2.751600814294102,2.211052251786059,-3.738822555912968,-6.030660055937199,-2.461303591886505,-3.2005930809935057,-8.651053860903549,-12.234182937428683,-12.9700728488734,-11.595335229933088,-8.789559619896998,-5.331864409873441,0.32366872234445454,7.240810918952795,11.168039464023611,13.195955867629108,16.885177323583353,19.584830555328594,20.872307546298828,24.589604317669462,23.024670787138696,8.725483161036012,-4.360839193486564,-7.470759926931151,-14.296376556258046,-26.925017946394707,-30.851660697977202,-24.921691117983087,-17.991741239634766,-14.143285786327496,-12.927774368784862,-9.06428201765387,-2.431481062219806,0.7193182937040028,4.784331341684426,10.942637101153583,5.258295826058022,-7.976688392628379,-10.276199151060435,-8.916948227528174,-13.76782950596277,-10.730941546650516,0.4825591555824378,2.6115557269299696,-0.5184806641488251,0.33002279021051706,-3.4216553082171686,-11.540872748801362,-12.902956852842761,-11.122780553060066,-11.597332892668792,-9.051416832119813,-5.273833759130891,-4.73092269912693,-2.4713577221221232,0.33113883431656,-3.1157037155210965,-6.23116952194157,-1.689027785017525,1.2563566382573477,-3.6977135428017363,-6.908680269581835,-4.483328718257309,-4.281402863874477,-5.9150942821624835,-4.618578252497004,-3.8714062261110955,-2.9321237777240485,1.8186497912363295,3.9819826414812125,2.360189545994978,4.089923559474377,7.7481337911625605,12.043160005979033,16.037937658058596,7.510795976763656,-13.07022687768671,-28.01994054143898,-34.16878854408837,-37.69016007505138,-39.671341112476625,-42.1058426854638,-42.38011380395401,-42.59928389866495,-43.87324734040192,-5.817411257908795,105.86215591310643,233.12425153145549,264.631290739896,135.80645312277787,-82.23071893913908,-192.3619227260513,-117.61696793904787,-25.977918861064865,-30.712732427240123,-40.893306788440434,-14.809652482739963,-10.012618920647053,-14.78232804170367,-1.2752389582261614,4.455358346744724,3.997925569478329,11.530109714817318,8.78720813873079,0.607449794444431,6.586482158518232,9.583593919772694,-4.641986908878707,-17.026749245590068,-15.230926920323515,-9.937608392442007,-11.507000191555775,-18.563960474271603,-24.85779375310469,-24.906380757630117,-16.300017178857058,-6.214119712226253,-5.0195877841400005,-6.860484993498378,-0.17525793536311096,8.419869023689419,11.155465784154766,16.138253686524365,24.519029487997095,26.78631197199213,25.351271377494303,26.675413770092103,26.666840765575284,21.178154931702807,9.319100079602126,-7.5812195484683595,-19.425879582869925,-20.637907396895802,-21.235292782583244,-26.42166912146218,-28.42611004667655,-24.06253568523015,-18.174809881704082,-13.840432124972484,-10.1913573189847,-7.056423758441298,-6.565681662004289,-6.149913477351665,-1.4482993822716326,2.075027425253424,1.1548332981184508,2.67852690881975,3.5127631143732136,-2.3926621977242384,-4.682360010604576,-0.005718710866151611,1.0954913591511914,0.05323809052326389,0.007953635668752845,-4.19719688954801,-6.0633640956180725,-0.12465338852465324,2.6820461889122877,0.05261672379999638,-0.522779452402764,-1.6581993468072591,-4.41259588312179,-2.650577836625243,1.523176734579197,2.235202698873109,0.23527495676811494,-3.1906626346545304,-7.564590231581767,-8.457597137088646,-5.071776339138842,-4.8496714549893385,-8.814358356973091,-8.905953311612388,-4.419179351859175,2.6414509251942855,13.74842370602525,20.40961152374125,19.749630531311627,23.45533464691213,20.919338319067446,-1.073408322887345,-16.879164013350955,-19.953689216057114,-39.593607790847045,-62.67575433019176,-59.46884517634199,-47.67553431265295,-44.648775370490576,-45.81502231350093,-42.265757113561605,9.32003307190407,137.9343944789997,265.43299658352765,259.0804595112673,79.10088239946637,-131.79847740466056,-174.39061360358872,-69.99178247971051,-14.468373362715042,-40.1227552291757,-37.72003280544009,-15.029693903087217,-24.309799096435224,-27.95478309173825,-8.112768742461235,0.47546010939896455,-1.4387794783675982,1.4458797919418096,2.0905281880558855,1.4191500060731173,6.447438863341507,9.969317500073146,4.229316413606271,-5.038068120541901,-8.711943830814114,-8.764744519848357,-10.97932072643255,-12.8214743563178,-12.889128834444275,-13.456268585441325,-10.788150276832482,-4.516115457857847,-1.1511484491152701,1.1482126665138248,6.8840775385543465,11.8053307178712,15.25807916174692,22.27972076252955,29.758172847861427,32.17883783520288,31.292663430962396,26.37059695548977,14.10246324581543,2.000900986985089,-2.227931206869634,-7.3241963334970315,-20.221853803257236,-29.99198545339241,-28.50569424930027,-22.53762848710072,-18.249435333026153,-14.43571922809813,-9.394108279416683,-5.437062454603263,-6.808863999641023,-11.109996913248027,-11.083358410310305,-6.775364118468714,-2.68915911571027,-0.5040859245807878,-0.9796458484852435,-0.7620525854965514,3.7400243855394955,6.745470529432438,4.952296892159239,4.324123928804147,6.669092505004717,9.95673798076836,10.425308991706281,0.36128677822098965,-13.772986344751379,-14.7368208802094,-7.306200069026407,-7.834724449945394,-13.373494302519111,-14.006032048387382,-10.6083975779997,-7.46321777365938,-5.344165641630197,-2.8525479946640395,-0.9878594826778802,-1.4348428697054754,-1.321793788750072,-1.116989377483839,-4.06930433809607,-4.321364079161629,-0.24347671136399196,-1.440538998338666,-5.981444612124982,-5.674029129473661,-5.355145353745519,-5.790120512062037,0.5978764868427868,7.636653007205201,7.895527316165624,11.743483198158136,21.36921121989579,17.751944591707538,-2.706607891631908,-18.751180193745963,-23.858075772466755,-30.392348916300254,-38.16830195168592,-39.547155621009914,-38.28803578897987,-42.58697529907768,-51.1093806905089,-37.436542766482496,38.59728704950374,170.93384735878516,268.80332041278973,213.2374185090862,7.952935614111318,-154.97019499400125,-129.30388667677795,-34.15081482368225,-24.378698175017924,-43.025792794478576,-18.165324838439666,-8.660059834599899,-29.450411897658764,-26.873950506116376,-11.231233750995015,-11.078702757425878,-8.598211053395199,0.5610445966794533,1.2594549374877584,-1.1258450482702145,0.8072653319100302,2.5835782021414353,3.087066087381536,3.4007946548993004,1.8928414252321,-1.3083251778023604,-3.484726310982105,-3.4734451454569015,-3.4240118708263076,-3.9325951310340423,-5.554086943506797,-13.423110269058714,-22.857082094858185,-18.17334953962766,-2.3153997224393135,7.4742712857764815,11.807591794542962,18.131413645266196,22.550036925323397,25.374120303985848,29.774300509428485,28.243413408229646,16.779800964535614,2.872891716191715,-8.03027350135919,-15.578701366930474,-20.263055287517673,-23.451156329121616,-25.446384082406396,-25.28037182110821,-22.398979528952125,-16.627590512423637,-10.078881866646695,-6.390093651205358,-5.626456920377585,-4.650476680538452,-2.2178723850670954,0.07565609012148222,1.2617339302226984,2.200594156290359,2.5158481821582876,0.4517635219927101,-2.7411040988957627,-2.8654998110988856,0.6668634577489696,2.011144529660357,-2.179559357307144,-5.526206972649292,-3.0805347557451146,0.14169494530935012,0.619497029774775,0.18521498988465712,-1.4918489427946113,-2.7137401080006183,0.5577529398145542,5.492222765487538,6.577345719549637,1.5252068090020545,-9.33332509378469,-17.276757879937435,-12.763793197375348,-3.3665622345290656,-1.7880877085385745,-5.19420621580774,-5.850580124223687,-4.879666211068295,-4.426491872030542,-2.1051977368854216,1.466978502717624,0.9364204525402959,-3.2361826030279883,-3.4608698656361847,1.466023483582915,5.465826501494714,6.721562130771524,8.545412122589084,14.66445208838756,21.56749690771736,17.37798104017501,4.728765995567121,-2.597933422330195,-14.995226167240197,-42.58962064881581,-60.20089593027925,-54.432169530200575,-45.744710550071815,-45.65846156342805,-50.42756816249636,-40.471694841935516,27.045294631806378,156.10345005912393,256.9381520811922,208.4076813514615,10.264529095381622,-152.23441865869424,-130.70097302481503,-36.018913730317486,-23.13260877551573,-42.02209808662963,-21.510658980879327,-9.66236330467461,-17.0045509678331,-5.4801184059824095,4.7990615651469275,-3.351803607254082,-5.903613350572298,-3.036100221953671,-6.459833276809037,-6.448159409556284,-0.3636334779153483,2.000027982061204,-1.4525311338697247,-4.702818012044097,-2.760447158511818,0.804006884955911,0.6001209372979055,-1.7673523532145383,-6.079492316903886,-12.096716795174464,-12.580661055108953,-5.749172640033519,2.002502836710261,6.56505360555429,5.539857290505234,1.8958430351782551,4.569137048864398,13.615673077470003,21.676704194629885,25.525392382621387,23.842159419849192,18.796959808677506,15.591710174673786,11.803528847994261,1.8913217299451257,-12.230043352385923,-23.362946713786545,-25.607331838034263,-23.44925331408655,-26.051012791980046,-28.046978386330927,-21.494446075005627,-14.924457356463659,-13.371385880305352,-9.026911796098567,-2.3078865975727307,0.205356222155185,0.16112248691887032,0.5642031878019793,0.7959856429911127,1.7552967802558923,3.757045060104989,3.815574829146698,1.3676998454267508,0.5312293872845446,2.5452226141281376,4.727378635361706,6.876624328028694,5.546480898645759,-5.763992369984921,-18.21370452983856,-16.591278386901866,-7.526574450538388,-5.615596875956876,-7.809339861023705,-7.097724546746271,-5.57650740931175,-3.897210197604382,-0.4156823318226941,1.7597379712879686,-0.2353163715100166,-3.8818520087799993,-6.238107241230732,-6.972463340653103,-5.460925570173352,-3.043241379189383,-4.280732892645088,-7.471379221125876,-6.292279276454469,-4.228013580780699,-6.384918769701141,-4.66967475125069,5.039614929965683,11.847121153710326,14.17770277749943,21.357521722099793,25.265789358687464,13.725325651556211,-1.9041082172438961,-13.620472146024834,-30.21434175132783,-44.01138230082743,-44.0381369898651,-42.992960920142664,-44.86390034252074,-42.723617600383825,-41.488900781822245,-17.37920295315442,73.44397477881327,199.45203495364967,247.6562511980517,137.56166272322886,-62.27010300716945,-164.67532867764714,-102.72086142016745,-25.793047910535186,-31.373199277537296,-39.1114218799648,-12.968999467904446,-7.047187683829041,-13.297042275205682,-4.288958347484565,-3.3201373455154872,-10.02890567987953,-4.816965063735946,-0.8179598219723303,-3.3911440021848556,-0.6139200172020853,1.8197725864768328,-1.1666149224591162,-2.134478071878993,0.0553972977073518,2.697053003952382,3.6588374878704277,0.5447376622717326,-3.2936236622438457,-4.232357186572456,-3.5158604425335804,-4.1873890007756245,-10.125145802053401,-16.07237685196706,-10.983502179667092,-0.2282850805735177,5.776440503082467,10.65492551008589,14.88762738184381,15.29191682704167,18.736004646291782,23.856073216611954,20.164166230593978,11.499231523832018,4.2612243527733025,-5.59080770077499,-16.295700353349027,-21.50877644186773,-22.764533893336434,-23.364896242918235,-22.534094674116044,-17.9675649553543,-10.602914578195186,-6.143409691816137,-5.439906402491639,-3.154395493899603,0.713978259442694,2.5908738027298686,0.9161332804149875,-4.80428503472336,-9.478222835683603,-7.929300606359267,-4.331948911600323,-1.6160514127456267,1.187363567523187,0.5213591160225519,-2.199943078804564,-1.433140444600527,-1.6347611643972666,-4.949671399032852,-4.169663840299997,-1.7755375737876502,-5.696694258585049,-11.329500176120517,-10.463692885381498,-4.2108488605557515,-0.34938422046036965,-3.216198401578138,-5.415759825830904,-0.5973419084563591,3.0592819913487883,0.43789475454845306,-2.2851412735412513,-4.155322147038256,-6.405284931993732,-6.408233646569588,-6.817751699859778,-7.209015534713182,-2.7378001651785775,-1.4767524829328478,-7.1042702125390695,-4.073442541381728,8.53630608917537,14.931655677880277,17.668728507133,21.269157891652853,12.643545001289878,-5.646268691296077,-16.287598977462473,-21.754876769198543,-28.357385789593437,-32.6455668576755,-39.45410042453271,-46.12514472496672,-42.743602434962106,-37.40847772798002,-14.201994136784613,71.1567775686024,192.43000648360945,244.67204678315932,152.27567118312427,-42.05201201332896,-172.9547781735634,-133.75998371295685,-41.03135033356956,-29.581117561711732,-41.868587877311036,-13.489202584215217,2.406212166831498,-9.973326441343776,-11.412575612160639,-5.423918737905408,-2.221987862758815,6.727464472422582,10.584563378969616,0.5354473367626706,-9.536557144281204,-9.711196074591173,-3.2919083697884037,1.7293545473614733,0.10886773805871552,-4.0265548912641265,-5.566240277120816,-7.514309520824911,-11.481344451030047,-12.883081236659663,-12.72644573460721,-15.936316579257486,-16.641808916829692,-8.989529444013613,-1.469350396496769,3.02171266902754,12.310833650904517,20.616026430010987,19.144846373782038,17.800362708881323,23.37100325674406,26.557170411886176,23.16987066170448,17.378701321896393,10.243868002848284,1.9241049005082353,-7.239590378046909,-18.270792657266185,-27.56764759047436,-28.76334514057008,-24.382100143490625,-22.279955363012498,-20.04280350656081,-11.8007051736531,-4.9684184996202205,-5.534936699618564,-4.475174864507609,1.1806768028793435,4.5792495081557485,6.22937712886335,4.426587277227426,-5.726439038056231,-13.686314187709904,-10.291181240381285,-3.4968648260246544,2.177213687336276,4.912790235924499,-1.4255601211365772,-7.956820518278155,-3.88737790647009,-0.10354457292377539,-1.9392561570724425,0.665954700825691,3.932799641154631,-0.13667742867041976,-1.787516423824111,5.611467059732234,9.704664508040734,-0.8713001492145747,-17.242111887444285,-21.979175385095175,-15.071365221065292,-8.00942634608614,-0.9859089048738996,5.834869626211573,1.507470094494229,-12.240961146448292,-16.37144339955628,-3.7380107014339985,10.17326772678799,12.893386418552147,13.243035707760004,15.794773641145161,5.761905001853263,-15.690359995909782,-28.730584336285,-34.166369385002035,-42.274901100374436,-47.13429958701272,-44.32160661625664,-41.065088044129055,-45.39613031501536,-44.596099044691925,6.5414839656459165,127.08570854432104,249.75635600451392,260.77940738407966,102.0871385791217,-121.9383024260191,-202.3336924487362,-107.20675797272754,-24.404944349288,-31.770057160339686,-32.32901593312136,-8.534251316686898,-12.125971263296758,-18.15406314307951,-2.9069829388212725,4.701847066950491,3.6537123653909718,8.614871010062924,8.549597704683329,3.2596813937161855,5.185320507995296,6.978419370068549,-0.4509874707528727,-9.185051838566142,-13.994439855155605,-17.137848212768425,-15.14017982624125,-7.193710864212725,-2.828181338899361,-6.3487444943874,-11.800985643191757,-13.374872913029568,-8.208132322999743,0.6219829195773836,4.775509848123379,4.066160172203829,7.020140608496231,15.995558329205531,24.21355985345831,26.903687108646814,29.084604243221044,34.43418680446321,33.302824393193355,21.703686700715767,12.186889351599493,5.340752760043059,-11.905591055439336,-33.30436445977148,-41.19444812879186,-35.99877582192484,-29.34749110911332,-26.153871540987776,-23.781185479804535,-19.736635990179376,-16.07742267797807,-12.466238853159382,-6.240774810735292,-2.3754475876509975,-3.5582853266016627,-2.2642242784168296,1.885113762251052,1.5853720670815168,-1.6499177050541523,-1.5600796509313417,2.42112550292799,4.158565774711774,-0.8734195997808767,-4.014393876347351,0.40144730953942354,-0.43604189901026214,-7.857705800868947,-6.100799020540402,0.08849308276748324,-2.32887778824872,-4.766900926322143,-2.3159279994558934,-4.039287993355137,-7.163506749781131,-4.817499794048793,-2.3133448642769636,-3.3176826624398457,-3.9796627775074276,-2.796612791078969,-2.0022499008333385,-1.517503045306852,1.822267272558645,4.567517169877112,1.6742506944265665,4.553851884531234,18.088521943140123,18.602645427546733,-0.22484168444820885,-14.567434562762118,-23.781747047476003,-38.03271462569305,-44.006310547985606,-41.90090471174382,-44.777225852488854,-45.9791490236438,-45.66896110305521,-35.2817521761026,35.06859653856364,171.48245475701583,276.5859699174977,233.1315580481491,32.59466237051356,-157.9621266859707,-161.1454504794187,-50.76017811265215,-16.27727707679025,-43.25719714087525,-26.095035652155925,3.6619732126114073,-1.5899804017091164,-6.946998823855079,-3.0507513012703615,-10.360303883629303,-17.192070553102955,-14.143141897585311,-10.971469585797596,-8.645655152991816,-5.854209955896806,-5.910300890341373,-6.214257711090305,-4.025801670953395,-2.3572325768261164,-2.8131329974541472,-5.448818851085919,-11.039009262831538,-14.784552413142285,-10.363568125909604,-2.7069138925654768,0.22375250855474405,1.3814247445742647,5.002283492288756,9.428143108027465,16.228464705556497,26.34064755159444,31.811011935750997,28.438125280190043,23.901994877995513,23.154210342083715,21.320687778165222,14.717365481059565,5.116071815965299,-5.768828531883914,-16.579866569281943,-23.77931252856404,-24.51496098832769,-22.581485188515863,-25.420132227984727,-30.192889167094712,-26.154438765741297,-15.373269147651445,-8.832823302411816,-6.556890137182606,-4.467613293323012,-3.7457372273541623,-2.6496318859395087,0.21604114398247454,1.8081310684017158,2.9411482376251525,3.843719925205706,0.791852920110137,-2.874097367707704,-1.7439115391623918,0.9302377180284029,1.1852743341514165,-0.45943861580868894,-2.66643217019727,-3.6557922131156264,-2.4500914072625433,0.4533023328126493,2.4972970824712104,0.16743019688235705,-2.8757193441671385,-1.3250507593170155,0.4650510313100855,1.897254798411506,7.068642854912146,6.016357414656076,-5.920651233421502,-12.328277707350313,-8.193528544824083,-3.4338586373522624,0.2522452925619483,-3.1948440969067278,-17.715680786615792,-21.784902858635114,-5.952473165842258,6.31476403237294,8.981375583162972,15.33675786880486,14.94861046876072,-1.8088416088123491,-16.09487011418374,-19.87422032653373,-26.947940164803313,-38.78895106944876,-46.264868566357094,-46.777322599341645,-43.368964557478584,-43.79384429519907,-39.214987331040795,12.0230825632689,132.39377417365426,257.7905549955391,257.08599409467286,76.9529978088225,-128.47697721013614,-160.0336959894167,-63.23311392258493,-21.69602972012013,-44.679626782915015,-38.33760160703322,-17.498102999068728,-21.35974206146296,-21.18739376384934,-8.501181154292569,-4.953036575670412,-3.8952788620192536,1.5741227421121717,-0.06967384385130693,-5.299356225395233,-2.721749542393389,1.7814462304789416,0.20896235654438566,-2.7447543788115496,-3.198168516138314,-3.6359698229525126,-4.034086969756486,-3.0007768462368722,-1.258730639152902,-0.25307181807484125,-2.885702083026262,-7.490804011882515,-6.041701802726958,1.7552380327297352,8.573179016544822,13.132289725912873,17.77390928684882,22.72520295466463,27.92885044041946,33.26562278909804,38.456640012002616,37.333469503929045,20.857615205732234,-1.5388584300987018,-11.716767128282097,-15.353511468831876,-25.581975923897623,-35.067277410146204,-35.794994055092104,-32.31322138372716,-25.974541234595065,-16.622662419874818,-10.022308465186526,-7.943494788891208,-6.065997866819323,-2.0539847754467218,4.06896657800578,8.813376116496386,4.479610753170704,-7.564714421838641,-13.39666580044532,-9.000356214485574,-5.46737368294124,-5.9390335915590535,-4.760785895518955,-3.9351392949302877,-5.993521400575803,-5.659972676419504,-1.0542996087269252,2.934450855073994,3.161013786727084,0.9784524254590821,-0.8009080762700442,-1.8977802324899011,-4.353388566874342,-7.6841904622418,-9.003954738545467,-7.96415645413604,-7.010128090635069,-6.60953852616538,-4.772919310684012,-2.4091110966782203,-2.568041119939937,-5.23431977892714,-8.282497895289593,-8.213122561992355,-3.819254255383738,-2.487944684823935,-6.106062843169294,-3.0281364450754436,6.72111764013999,12.366193778267437,18.029794026822813,23.275425214143613,12.245399722309074,-8.95500853431605,-20.47763574292015,-25.977452107391244,-33.26344528310526,-37.575655905122574,-38.503806162419565,-37.52604351318555,-37.396799657401004,-38.897950461219644,-12.730687586283231,76.77310975044757,201.1885233297166,255.07498079607313,142.7947072052853,-71.18329294913222,-177.30627198736204,-108.51575623781142,-31.006375757366584,-36.94971724444454,-41.21745180009698,-15.175492191574172,-10.1377255346015,-16.469224776182962,-8.836194297888568,-3.063669380141649,-1.8460757821921305,3.448562650109543,4.633049560035722,0.48273054868303067,0.5368076142063369,4.1813067725730875,5.450863414266644,5.23508284257454,2.9657319540124467,-7.582474267655812,-19.21469720369335,-16.68369570096024,-7.6860951637197745,-6.87867913452275,-7.1682905614560175,-1.770870435278803,2.999665116496488,4.035683829618012,1.1456268189501595,-1.7937476113129902,3.321670797521312,11.830411674954687,15.325714727739765,19.289958715697242,25.637921013774886,26.74474211105331,23.039966790411885,18.379064079638237,10.885539802279101,0.22318868039446382,-11.704108670125654,-23.332756548845442,-30.678125630657043,-31.085383332381422,-27.445062519651636,-23.42301446785771,-18.988880514854692,-13.719551802664004,-10.43524813435083,-9.341917049997235,-5.535464393326064,-0.134851014457686,0.5981357966616727,-1.1984308168204088,-1.0864487129477585,-1.1271887465627328,-0.34573077997403345,4.011187727657859,7.310025572249213,5.521753076988493,1.3429306247255894,-1.165521317552896,-0.8003480341778078,-2.1425981679823902,-8.519545386166012,-13.249346763520618,-11.7354737191316,-8.891985655490164,-6.615592617698215,-3.8517782159051333,-3.82761544649013,-6.981511985471436,-8.856910278320706,-6.838961494724279,-1.7648223222103905,1.6026249753741997,-0.7699873935227597,-4.549001489732164,-4.619359648775896,-3.664610304785753,-3.8392522855371567,-3.897238056540843,-5.454296031084317,-7.507858347877973,-5.9328585284547,-4.25811635979118,-3.7320756229558016,4.253342154403281,15.063357186109648,16.777328504662712,19.81217274287934,28.792264345266673,22.039461620261957,1.031626076334593,-12.445329579068034,-26.844732212669378,-47.45786105628306,-51.74761366549896,-44.028081985717556,-44.28291968587244,-44.564282835336996,-42.911145114087496,-36.52563750287186,18.48808769954426,137.27139307737352,238.01618824141923,206.68937831740652,28.550043128192517,-142.55313818477197,-145.48474651568844,-47.2994773225752,-14.88088672002647,-37.38878740561776,-27.161210017061393,-8.653745016873394,-13.577519660802038,-10.47918999306128,-0.023514417812222632,-3.5633805414119415,-6.255359923310825,0.7186804213819689,4.3051141369907775,4.570533585521258,6.588543570006023,4.6994746631674325,-1.9979071733107157,-5.099957542802951,-0.40364923635095096,5.699773440762032,1.5887748412816958,-13.574650570751878,-23.14925507893598,-17.887679840401255,-10.272532577238405,-7.53393396006128,-2.831353921193161,2.450360545808862,4.317373720232171,9.378800396957203,18.966751175440177,25.312819609851108,26.080897142166883,23.989437634698113,21.603732374027995,19.613567809406803,15.09343394345938,7.504195490276385,-1.070637980671175,-12.280149153452669,-23.74063076208087,-27.275830588267553,-23.756600292389333,-20.78089740470955,-19.517803099418472,-17.94232727304983,-15.854653327160394,-12.946388452696084,-9.249538550679805,-5.69128437455066,-4.209268539777659,-5.126167140361144,-4.395453143586014,-1.129288469453913,0.6459793628984798,1.1196897798127603,1.3028120859090375,-0.14646103690155954,-0.20202555221791485,3.076863391139001,7.0348524436194575,8.725886427948907,0.9940603908104535,-14.59905940587693,-19.14049994093847,-10.508852315942471,-6.888038367305895,-7.395726280256478,-4.20656306103535,-5.738282538792038,-9.55575348502182,-4.609877314417728,0.6334007594224786,-1.2582462677808817,-2.677797440375441,-3.4861574461466285,-5.476230768646003,-1.6765091381118102,3.8836951500017522,0.13097706782046892,-7.743444385878091,-9.374848353424461,-6.4035490433192415,-4.220498364518969,-3.2260085970969214,0.7058628857654918,7.416558497014858,6.586104637131067,0.08279041872598336,7.00805706358563,19.978219492038136,10.386443229526147,-12.567019577872449,-21.817299014083975,-24.67685047002549,-31.560492210906332,-34.206515436799215,-36.397237195554844,-41.277543308580064,-40.18413390102643,-37.871715521239096,-24.37795757622606,41.503852487144805,158.4994301812958,241.37031721357872,185.23109655911722,-3.8396602753174776,-152.85098312477982,-127.96488844411104,-35.80128024126768,-20.93660134472597,-40.483098792219415,-26.69123125579312,-14.801604870749962,-18.375682114163833,-11.178676574840283,-2.992633663838845,-3.9620279375587497,-1.9255244351959253,3.1188720904914167,5.0844970071672195,2.793669664869654,-3.1075763659971365,-5.942151255684501,-3.979836491899606,-3.0400758326994195,-2.460692640265624,-0.8919663322675895,-1.279654500422633,-2.008523772817087,0.44591381550986764,5.045366704105406,5.18400416681054,-4.515644497053487,-14.81419592632789,-12.734508889820672,-3.239051425359102,3.2436521414182673,7.457566239287525,11.583836148667451,14.672519154137103,18.379156204261278,22.834230313519715,21.924286924823225,12.130685018202087,1.3773795181644841,-3.839014031717375,-9.844477770438417,-18.55513305167101,-22.316752575334828,-21.45749985390127,-18.852861891280828,-14.128436067051505,-14.948198804456581,-21.577942410462214,-19.655668632621868,-11.092651776149516,-8.786671674771334,-7.338011348570715,-1.2269267794377274,0.813595736552104,-1.643170461233229,-1.2775331317476706,0.5953574262090342,0.30991792135707374,-1.374442765835087,-2.360169427227799,-1.7235868868701445,-2.150558162562918,-4.175725370860466,-2.6137258954588116,1.1408892363601808,-0.04167065677358561,-2.9811274213500614,-1.7205752092770625,-1.9555664371009733,-7.325924129955078,-8.998396531621555,-4.037017146070213,-2.6709442020569236,-6.848127281174397,-6.278240194542392,-1.1927921117473739,-1.1461691986082698,-4.750844638618299,-5.828355240223388,-5.5309464577377705,-5.3413148601018055,-4.971360116650156,-4.912859459176737,-4.489622888396187,-5.074424609176686,-7.265074370871006,-6.699415295058483,-3.008610700338565,1.4465447809527423,7.603269995737515,13.170149152446857,18.35503173778684,25.913824540749925,25.345840404885287,11.309400410197973,-3.7812411823621943,-19.325202594142667,-36.863974915336804,-40.97485471330583,-34.90123362056937,-36.6616086243812,-45.3426557790863,-57.51889684009011,-54.39560636845494,10.695715385944752,134.09713309205205,228.9878027854764,197.87847530991257,28.49344902090204,-137.07220975640323,-138.3151270540776,-41.010883095910344,-15.864222819638773,-46.112020722354096,-35.64040836577423,-11.641900477650786,-12.419256372780204,-10.785093987247283,-6.201778778025654,-11.901181062953118,-11.568096364829486,-3.593303982070286,-0.2302141854850408,2.2388442623438003,3.880051492424423,-0.19994837814544475,-2.426289599029259,1.742840821410975,5.043143162330195,3.3142494381244303,-1.612983698744169,-7.998328814950824,-14.196073733296583,-17.359886875371437,-14.92371525413796,-9.54848115759581,-7.4830027830215435,-7.589703047353423,-3.705875004825357,3.25631850187055,10.12145099241347,17.24803699417064,21.379132979207178,20.712001681743125,21.44680180977262,23.897303564409455,20.789734083745657,12.290186831902538,1.3043299189210913,-12.443201781986879,-22.241018283621322,-22.434475582204744,-20.839821311228718,-22.579686780253876,-22.42014047870942,-19.589413895402604,-16.05463575241236,-9.259006844269999,-1.3456051438420218,1.4876333745784258,0.619111302218581,1.8817546433448822,6.369586247606095,11.00523680109758,12.47732557102534,7.27908906694594,-6.281830278154107,-20.243798188585508,-21.801930040104548,-12.347968479515952,-4.971011266490926,-4.180229299602436,-5.300477417779028,-4.740275021310055,-2.4890317318416244,-0.7963079849343142,1.2145762663501998,3.792865849133775,-1.2993662884432133,-13.456120271589793,-15.687591728161989,-4.964791147656291,2.3516492897651435,-0.1472391260335808,-5.739447794362068,-9.203744737035695,-8.624671794943355,-5.260293408422145,-1.9203846212853177,-0.6145731936331611,-3.758904498121023,-8.062882381904231,-6.118426987150685,-1.450249682592207,-0.4907688149541958,2.8480554611729954,9.358126561323042,8.51367178460757,6.002878218508856,13.19658493390656,14.396566249317964,-4.1678418618219775,-23.45640560851408,-29.161137822161166,-31.188474599813958,-35.60060561197257,-40.22182129027209,-41.783820457164275,-38.87530705976417,-39.213621999642285,-28.365130974949828,40.912064801559495,166.07492353793225,250.07777667515285,187.25400991380303,-6.269997401054468,-160.04814869841405,-140.1360547740968,-42.02922960460524,-17.015273854234422,-34.77933153213637,-20.90075157418053,-7.926372844436326,-15.288698936177928,-11.6778530801542,-3.8996989327423517,-4.767928729998136,0.7839181568321791,7.358075834824345,2.486034704802856,-2.395208441557698,-1.1582012784425224,-0.6451805503495915,-1.3240654119830406,-1.3778016850555552,-2.0295543463296077,-4.619207486401416,-9.167116832631924,-11.589590851601852,-9.1099814567364,-4.152022063460874,2.2559956637912375,5.132284560307271,-5.840993833106445,-22.84463036732361,-22.234599924038438,-3.411640421461118,10.10080733167105,10.552767721834396,10.915989970539236,15.70926540657292,19.03548889661013,21.301756877508147,22.308551086805895,15.05467732767351,1.8710514394854973,-8.677059732698876,-18.573769722030207,-27.0280558742191,-25.21623879613646,-19.362715688727597,-20.863408696500684,-22.535470777908017,-17.306200379358195,-10.980580561959943,-5.948958016440958,-2.828167680639762,-5.00697396409298,-7.570561877435191,-3.931047506650355,1.6712046078640022,2.911533814377056,-0.006901621897421606,-2.8544260878114187,-1.3897792961018647,3.0142379275435314,3.8394440518933974,-0.2761006822725429,-3.7063163628742206,-4.605477374790658,-6.00854652663151,-6.41880521791587,-3.289647503825634,-0.7145829496350737,-1.767752054234232,-4.125637082677452,-5.643720490183363,-3.941356178032228,0.17016176481251577,0.09944385392140109,-2.781839267447479,-0.5716005178167984,2.066372373837093,-3.382305164271733,-11.425577245090341,-13.985915555052054,-11.994458300667489,-8.219822849661496,-4.739731777039287,-5.3737608216019765,-7.999997863564006,-2.415525215173454,10.291863926680858,15.863758953645487,16.764309758243343,22.460925457244233,17.470787685395052,-3.7423279689315687,-17.80351255474238,-25.993284500445675,-43.26923879321161,-52.83696487258286,-47.4746245929657,-44.62650390979347,-44.3223974673418,-37.228326797440424,-2.0770258524214,95.08908485282632,218.5928456996007,254.15231641452917,133.3486311166382,-73.32964106188231,-191.4452922630637,-135.9861510081007,-38.449678873405276,-28.082960416688138,-43.34066346797711,-20.472814252187536,-5.485416867437348,-10.222880921593191,-6.541085979340837,-5.252550432944048,-8.703722773251545,-2.508256767716585,2.3686470317475408,-0.15884137007178545,0.1563717533513227,2.006874965322922,1.0948509134759368,-0.39946722939663104,-0.3948282880183429,0.7086139023866318,-3.7861606572218562,-13.000256950686202,-12.79827935157979,-7.225056712067738,-12.921044194490667,-19.440276900609504,-11.401336361823628,-1.8831234268216122,-0.13901145442736174,4.900415523932944,13.534484744539128,17.181134927076165,20.13052989691922,26.828564123610008,31.3224994246102,29.559264977018703,21.859762725404597,9.767578394082042,-1.3710874889483593,-8.637184183760267,-16.05816841545152,-23.99632341601845,-27.308293687219013,-27.341191272602156,-27.372128075459806,-22.130194388800202,-11.93588958854763,-7.258206005656117,-6.432807120924926,-1.468790482048136,2.0655994764359615,2.3264135150680287,5.157193917799823,2.6108200692478167,-8.727008465940227,-13.192901716484057,-8.007040441537164,-4.684786347111377,-2.4745869212577887,0.8092269785189874,-0.6687323231248374,-4.483445254845115,-3.8467373025797844,-0.9138243972714468,0.6736168211765055,1.6538575743622772,1.4286281825356957,-0.3689538333319762,-0.6807566164366854,0.09130045817014487,-0.03299300111960335,2.9623310984826383,5.236002062796844,-5.971011867966686,-21.180147733281963,-18.649098634405405,-7.116434104024522,-7.068686346639403,-12.705828286700505,-12.694065628282775,-9.575272617097072,-4.10962658371649,4.310130863678691,11.75728786216321,18.58542515776196,22.08426312946627,13.08084481455187,-2.8007336721110523,-12.761911717160057,-21.304752488241633,-32.80210382958857,-40.93974710083102,-46.73823137047246,-47.723443339487844,-39.7851924891748,-37.71464809294505,-29.00332814734545,41.38912165881468,172.45390789617176,266.01978475580967,212.40870844841345,12.707707556853425,-162.7716795800323,-155.16660137535473,-53.169232925715,-25.59665538813104,-43.056473442558584,-23.354733678210927,-8.650466707504368,-20.981738682094093,-15.036066955614716,1.7466399038954972,3.094795119252267,3.484621924926536,6.0343934681133335,2.6693379691814423,2.7799866017354966,6.602562347140927,5.2276974929324105,-1.214087822314914,-11.686634738790515,-19.23024569056254,-14.508948356018472,-6.796818170837469,-6.803873566947807,-7.196678128831192,-3.912182792493577,-3.7331381928529064,-5.796465301931898,-1.998912692738135,7.049816305270703,11.229674648434509,7.896299317486944,7.206046080038026,14.214102250009176,23.025628395720155,29.137353685151957,29.96879034617623,23.59655034096368,14.541924555990668,8.136417174182611,3.8257585388101143,-3.701344195189243,-20.921953740976047,-41.2861623903664,-46.25064082796253,-35.014387901042994,-24.490260932902082,-19.577048064220218,-16.183000310832142,-14.852408570178522,-12.270871847944713,-5.150696674887321,0.3979646023544472,1.0549318190843149,0.7897628094046745,0.7099936872537427,0.8981812433778069,3.542538081082975,6.358277452459799,5.074905937233161,2.3051730056478603,1.9373734294348797,-0.060280596090562355,-6.345224014129519,-9.647319567237744,-6.451061759893281,-3.783442631662334,-4.755573786826437,-5.512034566708966,-4.667276304059542,-2.9006503614479344,-1.4083766741641917,-1.9432382121767748,-3.162450358401771,-3.6301342438633553,-3.6391393629870823,-1.7195607850199366,-0.01176317634059032,-2.3540848944482535,-4.177983360989216,-2.722548981372325,-2.3450423693900238,-0.7316346230482731,2.3886923147405374,-3.272655845162448,-14.212288884885094,-13.10743104330697,-0.714534397406779,7.2227110956805385,8.291361876018861,12.300301181337703,18.473029824412812,14.604569995673442,-0.12519198651631225,-14.726157345173345,-26.143735676533005,-34.98853394560371,-39.59165939171927,-43.68507092449152,-46.04841787031005,-43.59520583989358,-45.2222810144543,-36.87623257157203,28.990971952194933,159.19991162967045,267.1971771662185,226.80030857795836,27.725531900881304,-144.1046068242957,-132.5735919442116,-40.1056064924433,-22.3149133500309,-44.664411441463386,-36.2972219874209,-26.40495146092039,-28.614582588847277,-18.602228471104066,-7.504258942075396,-6.992347688922749,-4.056690487156413,0.6914572518198661,1.747636305961957,4.800886758439335,6.672811841658829,1.5322248350742633,-2.699926508131357,-3.023256037981005,-7.961755980391662,-14.43664045786262,-12.799525298807126,-8.805989243964946,-9.517881429121509,-9.116011678562234,-4.9095473667306715,-0.4767058136564495,3.4464454343907027,6.352174839186391,9.511649164796559,14.070158439687173,14.888323995949179,13.563476721235912,18.833076269592432,25.96734763478019,26.708579482636274,25.12523773907165,20.534069767861162,7.728102481647911,-4.254106721070594,-9.372078759120615,-19.385791071031477,-34.88533232190753,-38.26861318335367,-29.34796940648753,-24.42424201185266,-22.201419819096127,-14.125656252964177,-7.320240032022099,-4.972388080382306,-1.5327198255506325,-3.238653395196243,-11.354124931458259,-10.478969821468835,-0.5658951606678491,3.0709806454820416,0.3227795641264972,-1.4081227551000444,-2.0489218318513585,-1.065533506227359,0.8064240115215702,-0.3075797165117864,-3.171043120390581,-4.517657668315363,-3.5391285192607587,-0.723696108964524,0.38107265795116874,-1.4323563152988328,-2.0751273654922473,-0.917397629482755,0.30899104840385805,2.4526035563684117,5.159887593310472,7.127740347648832,4.466636473124723,-6.960449214964034,-16.743862266501832,-12.691791875869288,-5.747132262531448,-7.182047959055017,-7.689807437979523,-4.203006318634451,-5.997629747451276,-10.332887846729768,-8.897041714359172,-6.121050590882302,-8.306185090836049,-9.141045812919138,-1.1654380102468695,9.018209313708049,14.039837791533877,17.844658561356916,16.61974437206638,1.8321993474213878,-13.32151098701939,-16.79740115725008,-21.86575734122926,-33.35612522421961,-40.025143339081765,-42.112970373675935,-42.22692267907836,-39.884882797362714,-36.99680814583987,-8.70379013949308,83.60260298851173,212.02156884577735,260.7161700444398,136.46040826007143,-76.98273745530439,-170.90100005957933,-99.97669989811962,-32.11854392904728,-41.01867322372815,-38.042171524091145,-9.648219013415979,-13.113221690429658,-25.5954831330597,-13.993969025020762,-4.4268495425833265,-4.201832609778716,1.9313661297865483,4.686792043096334,-0.7206615339548517,-3.162500478143878,-2.919375754815932,-2.677825787509275,-0.527513900873223,-2.166705279304602,-8.111897213284815,-8.853607538371973,-5.900835076400204,-6.1431197469756995,-5.35747491057301,-1.9695731889990906,-1.9982650461539442,-2.947250807591248,0.7651879744025779,5.37985818244932,7.179967326952003,8.869016864563676,12.68534682286166,18.029516154693127,23.01069128243333,25.487259186717736,24.934411050719213,21.36754695664976,13.304244796244339,0.5575693202988425,-12.143043615281552,-19.911828458397125,-24.89372689407238,-29.151757701152178,-27.4878156775623,-19.98998890698745,-13.957012727977492,-8.57363983011961,-4.26948851849081,-10.478767520453074,-19.707643921535286,-13.980889876040274,-2.088098012677026,-0.9204411941196735,-3.7181632514759784,-4.291001778506441,-7.701266325831902,-7.503854237173297,1.4630092703417459,6.965279373020925,4.305149913606752,2.634783871457673,3.200780256200889,3.1889337878157265,4.4748238778175455,2.997277367228442,-5.00840538169399,-10.606783457074794,-7.859854610561512,-3.5052636302012594,-2.6320703286384344,-5.273467612307606,-10.46337160646366,-13.415020547718086,-11.540382052614502,-7.302606173883683,-1.1552741343223873,2.2057139977513716,-4.530043648443865,-12.896315519903686,-11.116460752952632,-5.466051564226152,-2.721631464789718,-0.594637184946734,-1.9921091476409654,-6.471403113420042,-5.14012351720927,1.0597694540834355,6.034933852976706,12.033691866962727,18.676976391039886,18.7242884807565,9.387116609059849,-4.208313350300601,-15.546235625630302,-24.1958539772422,-31.62836156762795,-36.971953677296995,-41.76948034784362,-41.80598170974732,-34.229395333935926,-34.96706508283526,-32.1488084154854,31.849305350626153,159.81900694771943,253.3167603750859,202.57063462084434,7.871869117504641,-164.06179525881234,-152.91941253499553,-45.84348853559438,-17.11455388796366,-38.1112561970749,-20.312660152338054,-3.7703430147357295,-14.180100775779243,-9.84408116375329,3.9694396961472664,4.839985171834653,3.295255735900052,-1.0039617478809362,-10.858719449691815,-12.753615636929933,-7.419624005354137,-5.812854676256716,-6.945684820684674,-5.397605697081768,-1.7484534283268536,-1.725917649585977,-4.035991470159957,0.18731105765658373,4.6671879425645155,-3.395198136769025,-12.956099426786137,-9.836584947280661,-4.931834521058701,-7.420281613130189,-7.766327565813588,-2.6357107566374554,2.0532151008813884,7.913107905854745,16.630309363621556,23.683809715410675,27.70722543711589,27.726928554399667,21.019464657334083,10.625425668250124,-0.6149897027127507,-13.12144291278113,-22.0103773875878,-25.51413180970933,-29.1867412152939,-29.725895490931855,-22.30223926908371,-15.515288116955263,-12.894553008540182,-8.235646872046534,-5.388469156885842,-6.702645853630921,-2.85842594670374,3.210437834262187,2.0154386413065364,1.018617646265918,4.433303725837066,3.0431306651825816,-0.5360395623091492,0.6200117675289372,-0.3400073169615272,-5.502443808176904,-7.7556659337531,-7.522777359910311,-6.89746455076012,-4.629248845620197,-3.940982410558316,-5.980600845394019,-6.036088024605053,-3.6535882677203144,-2.234912136585126,-2.3738671844147587,-2.9887384448230376,-3.3960592650744967,-3.2025882223005846,-2.5108515165626395,-2.0825872160548493,-1.2643807441583093,1.7596197790928092,3.8391509585484402,2.1973848451317908,2.2598820812808427,1.5013598794325,-7.789475006544414,-11.18309656012018,1.5033778554640267,10.13753324304978,12.136645955264187,21.458586082851056,16.781771114215637,-11.93853064070397,-28.479171497012487,-27.914095993945452,-39.366819073660885,-55.081151049295585,-55.80790116816601,-48.031960921264,-41.193495124532504,-39.73327753083418,-22.368096730491487,58.6973345942662,189.89866106644027,262.38621908657683,176.60134226379955,-28.349507206953046,-169.8183976834671,-135.1892418436534,-42.722268499472996,-26.676364472315747,-37.40945522129834,-17.355598657849193,-9.133787377005216,-16.760981865972347,-6.920867202147319,3.8189931766917393,2.2596961208872646,3.04156839398696,2.1057606715988637,-4.338370143692982,-4.404699087919767,0.24070718933799107,0.7223712990479259,-0.79377403768419,-0.8741567615018182,-1.2973818522563612,-3.3308711710864354,-4.055255628331087,-2.1924162964566967,-3.9814586279016053,-11.037352582413536,-14.120448523514675,-10.940090529991076,-7.583233885785063,-2.546718466795812,5.514624840587127,9.940088213521943,10.843446386711708,14.06999887471532,18.41291519435792,21.595955914537143,22.83319602076601,19.019527303529735,12.738872133130265,8.246530114960716,1.4155602986344045,-8.642720465029381,-16.243011163191102,-20.2907441367281,-20.23922452942434,-15.08480990761251,-8.249160987007485,-1.0139153384590873,2.4702471486769184,-5.023221989466073,-13.332485078138356,-11.184328204833625,-11.59349486627964,-19.430714194481084,-18.982323909266068,-12.679433200603999,-12.796515983365287,-10.81574571207303,-1.3557780735158929,2.3495312943740085,-2.8223173878540244,-4.8018179797031255,-0.8271195678204029,0.9141480980302683,-0.6130850649721573,-0.2016749108068554,-0.3203523948464415,-4.434313587498885,-6.583409475611606,-3.6342299780949894,-0.49243636865073626,0.21024760171878754,-2.159270556098111,-5.784597270392796,-5.092191778378929,-2.183554234720754,-2.3800277651133666,-2.46665221007712,-2.690695010382594,-6.26004674391339,-7.152117793539852,-4.3127721762209354,-2.007685047065388,4.257211041541861,9.892371233100777,5.793685621412731,6.599823655816078,18.098508113675933,15.041563051522463,-6.166316842351779,-21.537282280929784,-28.218097458994603,-35.13078057186085,-39.23632579070294,-40.0449467925482,-40.45425716939954,-42.77325293173862,-47.31741333050242,-27.244697664240977,57.951364575528814,191.71517344544063,269.9685815464657,181.03281710377314,-33.27703704396188,-164.71162840233785,-114.449812989917,-32.23888761962883,-35.36654844512135,-48.98512903866781,-24.73789525596537,-13.059236257223645,-14.69357384073941,-2.476555117597549,3.347250992465293,-0.6813827321781156,5.939982664777524,10.757486177387397,3.0149977768852434,-1.158951342439332,-1.6157999522259612,-8.186350605505371,-11.50212086582489,-5.4402772167644855,0.26590202998152,-0.8432639576363616,-9.004008507963766,-19.784655003752853,-22.20863011688654,-13.445078499033048,-3.9510891125944765,-0.46166045515846577,0.0486500794138065,1.8309037886659758,5.335655516090367,8.6195441344633,12.265973408778743,17.587304169129926,20.66530004113295,19.123849516375532,17.928411489142412,18.16225668908583,13.516159820909026,3.316472917094713,-6.872593704968648,-16.20638943840318,-24.780832841179702,-27.551404832214473,-24.018150196894787,-20.273440317672424,-18.524864971635232,-17.96289300299617,-17.116502719951313,-11.502013749693695,-3.2304296697052166,-1.1284443132817454,-3.9316432567304638,-4.334433802718858,-2.2146154089466457,0.7339523517206104,2.753549067320919,0.6625158858160098,-2.6278353352717563,-2.928584630903048,-1.8523713987629273,-0.3535960128793363,-0.08914007854700756,-3.8630123304420643,-6.4878403247008345,-3.777067214558503,-1.7698370199365572,-2.5608687413355264,-2.0386858108284365,-1.5023519522475608,-2.6362186108365933,-2.4904022326897115,-0.11738010496071816,2.55019504752927,3.3948863474608952,2.5811359737737876,3.6027871228737216,4.395815805190789,-2.801616558638333,-14.97258177570503,-21.034269714313165,-19.492805910848013,-14.165920682190052,-5.683986624473585,3.5776529375112056,11.907003643977648,18.394318053815063,15.597979136791885,1.405612260603176,-12.93257157650052,-21.329286046754707,-27.245670672404763,-32.26231528929484,-36.946963056880925,-39.07021629362308,-36.63368238701915,-36.52135448530659,-31.36717559135759,13.842370421147805,116.94666042282493,226.83458531503445,227.57455659350123,61.11519343718034,-131.1795990210026,-156.84699747764358,-62.724413241441425,-25.780387262531903,-46.76187941216541,-34.31120139983833,-11.128276900893983,-17.120789913003016,-18.87226152776401,-5.812826881656456,-1.9404877087891244,-3.0112532828901495,0.1875160325318488,0.5700509140909809,-0.9276799999268572,-0.14795174993234106,0.29482306117539014,0.8810009289555509,1.249563178628681,-1.5608095541692473,-3.4823831929163047,-2.9947471716955683,-6.917832498202504,-12.665416082694364,-11.741211867760848,-8.238693173828523,-7.175585109782904,-3.8655934650600416,1.7590000576058613,5.460769762596881,9.700005935328777,17.09480285517924,24.273515170057614,27.25826868630013,26.622704274252143,26.097343945989216,24.89884500738503,19.228239351095475,10.36594551470395,-0.7076281011436887,-13.765767505091834,-22.581464691488783,-27.307359995232336,-34.57461179361884,-37.83518816454108,-30.839921262519713,-23.74512439793677,-20.29217454064186,-13.466399293376817,-6.069379920116436,-3.684426879361814,-2.6751501959259905,0.21772526622149968,2.5977350914900548,2.1698654984883907,0.7634204479628419,1.4952908368293354,4.353793491294872,7.613591827076459,6.413687885212832,-4.514134572096845,-15.956184621242786,-13.863503585375529,-5.540677611672475,-4.9513583347999415,-7.8253408549048356,-7.0087548506568975,-5.812546079908319,-5.496358956563083,-3.4883552321556985,-2.209671028993995,-4.61269955483831,-7.6655064203827905,-8.315393800992837,-7.290744935244073,-5.156670112202317,-4.418942966190301,-7.816263142528516,-10.406997993636216,-8.709344598963865,-5.858615783641057,0.5833305684832828,10.012554673860475,13.795974591573245,15.855581681831069,18.920819063052004,8.215029745449405,-13.332976492827441,-25.17873288506958,-29.447973552905673,-37.13211118182185,-43.73859115877315,-43.099328773694566,-37.433072135175706,-37.61514171707879,-38.78682648170357,5.065476823079429,121.16988946417364,242.13383982956688,243.28285180172145,75.94646474736248,-125.48327226377043,-168.1636541986067,-73.62178917844474,-19.916586705634128,-34.09233963777689,-27.462106233661288,-10.824945178979092,-21.04651799459129,-24.451291957706232,-10.969150112218983,-5.982962202489524,-6.288130819478081,-4.319388531118236,-4.458864631861903,-2.984722849483031,-0.27400019991469726,-1.697347744450628,-3.582067207031577,-3.7093672362831818,-4.281263357417626,-3.4903872760544674,-2.791886160032483,-6.568672095450775,-9.957324177014819,-7.695764457787027,-5.293388243194167,-4.1745350120368805,0.91835782134025,4.477591045914881,2.551712183356528,6.285158376497527,16.23608169029356,20.75413666851403,22.93479647801756,27.06986968693661,25.406053597938094,20.891914134932815,21.9382718366452,22.86435224616186,16.530184274075342,0.6570896854538528,-23.52231782307861,-41.96303111799048,-44.02550433746228,-38.1505363204747,-30.95694490915085,-22.917044551728733,-19.9791176597239,-20.26162120249378,-15.23139616832819,-7.773196473183283,-2.762510504761593,0.2121591683866768,-1.2016007484622584,-4.71469576067077,-3.8180135382981604,-0.50374277910662,1.7003046199184961,2.3013002975053958,-1.3636655920504968,-5.162018764695111,-1.3948486359260555,4.5203871501127875,4.173520359907066,0.12306740214621925,-3.3726119261127785,-5.418601413465332,-4.8951093565532515,-2.1906244000011776,-0.20517735837198003,-1.5868519021415484,-4.1240718862499355,-4.066853311192547,-6.350159522005606,-13.879025165316321,-15.9066039492694,-11.47568405689437,-13.250884637703209,-14.269540314412057,-1.2316260083486332,11.072558462059614,10.94658218134104,13.141584905341336,17.342392817765685,6.362607432993702,-11.653387505114624,-20.504346371060944,-26.37031115663183,-35.02885366405516,-41.2322575635688,-42.55962720931113,-39.633615627977115,-38.57769231965741,-35.14990448527814,7.161818893894036,110.96277278265003,225.48718681258262,243.18308505117648,97.10226455165359,-109.81053644301001,-174.00630252359295,-83.58470759680506,-22.0894390878018,-38.78741111693255,-34.3246590385337,-7.618576002912995,-10.046436974357041,-14.360748021663028,-1.354707315155398,5.617138759178174,5.771078029458463,2.029881153067575,-9.631691758887063,-14.254103115387725,-7.593494936300154,-4.748176186522738,-6.957981214463446,-8.36514308881982,-8.94011531162671,-6.775333159768559,-3.2403340944020362,-2.3792615840066538,-3.0416241310399554,-4.444204854102647,-5.608264649758121,-2.966338279304499,2.0215638969875918,6.75081897806831,12.80748385250455,18.25581691627114,19.2605477408527,16.956135734223807,14.37187238486105,15.11638727509031,20.303684153952776,23.088130424620502,18.806421318471156,12.61786707419566,6.039178635365141,-6.500208475680074,-21.746625481729765,-28.219471419603313,-25.192569365310874,-22.895649094206533,-23.268645096099863,-19.590883685522016,-13.576669549028345,-11.914603988567798,-12.14705901904007,-9.605069541886309,-6.342643254186086,-4.412177570882234,-2.671757255489478,-0.46860776700840034,1.0217939547629697,0.12736150115604872,-1.0480704494689927,0.33163576797015537,0.5444021710184224,-1.8741104034640896,-0.7707635816179152,2.7710916412153557,0.32982393478432925,-7.388213219969435,-11.930442687220228,-9.699419117911889,-5.870387044793087,-5.8847923256186565,-5.53150787219653,-2.0500529352392896,-2.9033573718999364,-7.2860544862559316,-6.6778420070092945,-4.366291244856846,-4.256436141400009,-2.9373296359957024,-2.213994398765754,-0.10490572614364257,9.078524360867434,17.43904527382995,19.96624564828376,20.289673540815336,8.929658981545874,-13.665677724518437,-24.391409455310608,-24.162342611698676,-32.16932902339172,-41.34413748670438,-42.11464849891139,-41.92920625800422,-40.63051419501488,-39.60217476399455,-37.41173403542546,4.163145388615334,113.77564012855551,233.41852438151875,243.17191001183932,87.92652078710782,-108.94892477408958,-158.42520801140495,-73.43007994907954,-23.78592840806531,-38.5772563705153,-30.64850002876659,-10.939889023085279,-21.093231534306163,-25.615423152481913,-9.705322895615618,-4.002567324165065,-6.239224984786782,-3.3503870234321047,-3.633037936258324,-4.6773591335765,-0.40649290541804106,0.6179834935813853,-1.588376211337784,-0.3461638667933924,-1.635889291216543,-6.689047190347932,-5.786310095148906,-2.0093419513730266,-4.46684674111455,-7.9244821020825205,-6.3898645809245815,-2.5561563043394533,3.313670989232217,8.84087880785424,7.838785205137773,5.124372187989549,8.811779315587973,15.053510490417155,19.799711165124336,25.21784511194005,28.660427221426275,25.164811149418497,15.445444827972018,3.520055607175618,-6.14702366310658,-12.869139742339735,-20.314912371603917,-26.470344800633185,-25.603065545347473,-20.01065345960322,-13.13150299738287,-4.35776308112432,0.34530085948338574,-2.8077937068517453,-3.9187222484856754,0.9524236490306421,4.464103811360589,5.720552724902639,2.134122596082607,-11.802517174751278,-22.295425590330666,-16.112254776214368,-7.047954405780586,-5.222686962340754,-2.3018429420298183,0.933797255512351,-2.0364517203008354,-5.08942978259914,-0.8114916203491758,6.0506015851932355,2.720721337835947,-12.11362569524662,-18.63145245600426,-8.819214315538591,-2.5243471598771734,-5.009265069542536,-2.080520652102839,-2.1018916829400673,-15.943895604503279,-22.69132072354744,-11.640089430177127,-4.935111803091496,-10.739824720573573,-13.859751741904738,-9.26237020420043,-1.2506907930913629,7.732382870377957,13.635876588063871,16.615722483322095,16.87258468301487,7.169161040518149,-7.627273817892401,-13.797685856028913,-18.28482848394546,-30.624568417877498,-38.910418613606474,-37.37216530361327,-36.195197058447434,-39.99969002094576,-44.130062543929704,-25.08011125282736,55.66863691309102,184.93546919453175,254.55325072680824,156.7366802311179,-50.04691377560143,-163.29170046589184,-108.11539810821857,-32.309051121402334,-32.84593688403501,-36.69752061920618,-12.686869674243859,-11.61536369181124,-21.43960637971494,-10.54006136514261,-2.1589368991907527,-3.5854228083868653,1.0120051773389709,1.9929556075604902,-3.3131431095728177,-0.7696983751432853,4.471084895998784,2.7962080848959405,-1.1009523575218996,-4.059735572362389,-5.980013679284136,-5.225955806072794,-2.830920164943599,0.27629908981079787,2.322887472818044,-0.7922270587399536,-5.398119294357793,-1.7253286991561492,8.717038752062113,12.840015939796391,6.839380583291833,2.1847197257437942,5.835327611346137,13.474299815249537,22.566742106277285,29.5402848596902,27.627837838289818,21.170936443126603,15.082615396528166,1.961667720478296,-14.463008079714864,-21.455172012058313,-25.83906263336619,-34.16965805551262,-33.4248286719279,-21.848499082292143,-13.428563129602514,-9.94031269902244,-5.357602569825902,-0.18387158557026595,2.688554614858517,1.9011118589924259,1.0270060232629703,3.8287789704637794,3.178465048745153,-4.770673520303218,-8.452816066089504,-4.963882959177081,-5.693725725475231,-9.499100143226643,-7.832946291940615,-5.636285117055458,-7.103024806080386,-6.168231320323223,-3.260631714923205,-3.7083030020275736,-5.8580906979120595,-7.032431618031879,-6.463054946290754,-4.094967686713773,-3.85871709524943,-5.175636973683467,-2.311940219734396,0.21876488545239425,-3.1178886548734654,-5.6033007359582605,-5.371410992080975,-7.553963190453202,-8.82645871315778,-5.988398069267555,-1.0610279023711726,5.575233150266795,9.618633728064015,10.931783736948375,17.082857372292718,17.816415805784608,0.7565318528198475,-15.95073518487968,-20.268477796410757,-26.99468700818612,-38.20118818565754,-44.30710596776764,-44.2248105204128,-38.7069863674718,-36.719526569078376,-31.466184919824006,25.04256522284156,146.2584472561186,252.4606437768725,233.1534324895183,55.667708734876925,-145.3167951595581,-176.80396647649093,-68.03190765443458,-16.7337345146337,-48.18431667539758,-48.19512328542299,-19.62217922996154,-16.404148019967323,-16.7270445860169,-6.443339226331814,-3.588930739958144,-2.3405125657726638,2.694776271257755,2.811324362125738,2.1317430802280697,4.856037252010356,2.963808694613836,-3.3404533654513164,-3.19105409960115,0.9551238245190223,-4.132765181044109,-12.061589158022276,-9.164598112965464,-5.907046245663435,-10.060491523416113,-9.032384416183456,-3.7443017054954284,-3.219113573790856,-0.543228475661421,5.84690743352251,9.045492635015176,12.720350587665228,18.086617141417776,19.898147276566615,21.220633302305146,24.815033416400006,26.183795846563125,22.656550566663846,14.532391259772456,3.9029592163362086,-7.21822232227713,-18.87612664510216,-26.58346881363289,-25.736011482925996,-21.38536083801973,-17.943153548102632,-13.917954467791613,-9.824649141753238,-4.832797568492552,2.1701364096733173,6.018895201878907,4.739222744388417,1.7006938572983463,-3.162839523276979,-7.522430760403274,-7.08254208957952,-6.068625940963364,-7.713236910912535,-7.23178865680293,-4.799256517281472,-4.4639560665071585,-3.7002921795816377,-1.3524817205688286,-2.3832861360616118,-5.686481387640882,-4.146166165614341,1.0877532314861647,3.099986771058237,1.8677421249349457,-0.0005501479095997297,-3.2920997669147756,-5.745921462159429,-3.774248543818622,0.5791285346557471,1.8227962277991523,-5.901104322191635,-19.711843836328462,-24.005097622637315,-14.743145254111218,-6.393544649793941,-2.8438594839829143,2.402801998269279,8.120276482688949,14.346674771689738,17.898449080511522,6.253996682012948,-14.329001116495398,-25.441148813518872,-30.883693063456498,-37.875791790430696,-40.06547758867681,-38.49697332417544,-37.91044522302701,-40.152455374323694,-44.32101457561391,-18.752134392219453,76.77335881362191,208.2632206384704,259.770379848771,142.75019266252838,-67.4316544652292,-168.66177069878995,-100.4495486979459,-24.287051922808274,-33.169213382792485,-43.13313191269632,-19.138017736757558,-11.52519046130281,-14.510771133185552,-4.957554441205196,-2.6084288477530535,-7.971961616255626,-3.1161149678174898,4.5883802475571285,6.499268905342028,5.735780978562707,0.8077734040968361,-5.892794393637917,-7.196454187751846,-5.588171195856805,-6.008099769538125,-6.419413864488159,-6.276752089443692,-8.174913118382424,-9.551914379239287,-6.340046861386948,-0.9173191036552402,2.6639975698933704,3.875382928676494,3.7431761716638468,6.189824072089486,15.262783164298181,25.57175299154854,29.01760415199635,28.91636846703023,29.475809577012928,24.16481579177077,12.473684323333497,4.220023379480571,-2.6231015822312105,-15.7543510768867,-26.33471108644689,-25.39816599826327,-19.94195126999637,-15.194899507774675,-10.68013960157326,-8.388133831430437,-5.536373357003445,0.21774996581448747,3.7461458442274234,4.96771088702675,2.882515323728864,-10.136849344213639,-24.106669540297183,-21.53593790774093,-11.171606791429472,-7.6822479665431995,-7.940946823310606,-8.963689895672108,-10.044422365897743,-6.457281536019151,-1.4648631281418556,-0.5228088724463547,-1.8044372813833949,-4.920740266824712,-7.368689334386769,-3.7314374114483364,0.5847785512548995,-0.9635765851624729,-3.5782353682690076,-4.3628624983860655,-4.414928669217058,-1.253351890547096,2.385526342609789,0.3590897036063394,-3.9756534694451497,-6.294043803843221,-9.044800675413274,-9.447346953440617,-3.721719573143874,-1.8324986289731946,-9.080972964449622,-10.08173767654841,0.5606221894314216,7.378155195446232,10.922841975197226,21.013631298371692,20.485862766407802,-1.6425750046254297,-19.685356317264322,-21.503231155648002,-25.15569806887567,-33.9742551030712,-39.206177157688394,-42.25761765520592,-42.845280455057946,-41.28933683327278,-33.46958463204493,13.9415709788248,125.60897495571085,244.4270685567929,244.3678535791112,71.14703870595716,-129.78916130079293,-163.67434024429798,-71.2835204164723,-31.860375165199912,-50.8226177227661,-34.117957683865654,-6.77079026267144,-11.673180353033601,-11.958081129034532,-1.4013570001357198,-5.963545742135354,-8.399056650844622,1.5988196709459563,3.6310395831768307,-0.023131881990725134,1.6568406651306358,2.310619335148258,3.0509642245402877,5.53325706411826,-2.8288895363031923,-18.68825199321834,-22.339557872641418,-14.326333391754563,-9.146207944308408,-8.489699607111216,-7.151971236135902,-4.25882223800882,-0.4281193628597669,3.950479132692181,8.71842856507511,13.094331958594971,15.88137658321242,19.057176908104054,23.606584470736596,25.270776372421572,23.11897162097328,21.086640061328954,18.226638224134184,10.280983110594828,-1.2203272947769346,-10.03357064394853,-15.135816209993155,-21.514166580961437,-26.529472354943778,-22.544071346668254,-15.129615946608418,-12.470393795609395,-10.045870291202405,-7.745907271110745,-10.662243882589376,-11.407142840090138,-5.893301126323925,-3.517182819419725,-5.025432327600823,-3.896387056981199,-2.137036358166622,-1.738172130141911,-0.6265990082004009,0.025743806904413802,-0.23380586046846652,0.4908512238512275,1.3612512926498272,1.519308538272886,3.107473438645825,5.3652089764376285,1.2202103426664035,-10.398270363973428,-16.35850412505176,-9.932553476103061,-2.8859166807768,-2.392713231096659,-3.190484728081759,-4.017899092559812,-5.945850510147757,-7.7802395350448,-11.38596049456142,-14.495901556746471,-11.271892295104786,-6.349664384744243,-6.058754400104115,-5.671275277677777,-2.518020842222363,-1.8126111512517964,-1.8625185645359692,5.017337809829693,15.559529742752554,21.43311589371927,25.51211845666648,25.760790195197444,6.8916908770267495,-23.509060064513832,-36.17661185934299,-31.471248769568025,-33.37804877814069,-43.9648235053093,-49.00176512071041,-45.75856560505234,-43.28208168277569,-38.569156798190036,1.6294703313282284,103.96274049611941,223.82860570798408,247.64617255304404,105.45480431191629,-95.50727869784279,-159.4497217117824,-80.8891351753322,-29.44401945063091,-44.40266778366492,-36.144362611471486,-10.949614920847466,-14.648157520583045,-16.307936048495602,-3.484254775710246,-4.290110947931829,-7.84733981354009,0.07140226141979111,2.3653983724645578,-2.0348172282583787,-1.6971046685566078,-1.313003184673379,-3.073928144863446,-1.7775085616062025,-0.962178092160431,-4.8808684278377905,-8.876485017105194,-7.700724650972105,-2.3157550120025947,2.6736844703652336,5.821505290299838,8.420616028637596,7.278020220670695,2.2177774307956666,3.454459604302346,12.0041310352664,14.95193466006259,11.990969691336165,11.970852586151164,12.051418188018223,12.422268330705108,19.01520477489967,20.85917282003554,8.521076013871243,-3.7672092506512613,-6.909736963994048,-8.933624887406786,-12.581574169292235,-17.3057019520812,-24.349557497684728,-26.492440000039764,-20.063535883565734,-13.897339982535346,-11.18797158026988,-8.37233182069969,-6.330615189930132,-4.440808879793327,-0.40019236569074135,4.940626839130983,10.218207207529185,8.15464341586374,-5.8596638054856705,-14.976956987112077,-6.2868426790567895,4.573584508828029,4.916306536809566,-0.8667740744125823,-11.565962170785092,-20.37730513707271,-14.411617009668344,-3.4734970294145793,-5.8662090650012235,-14.7551140663172,-15.745787686704247,-11.165673128440277,-6.932239132971219,-3.06772722396129,-2.0236665694276716,-5.303369208781703,-7.300931669200045,-5.96955478245993,-4.848374480654103,-2.3601450422885026,-0.021269078906690275,-4.729360795058485,-9.119231340302015,-4.2876497903451165,-1.279064399477564,-4.587776260694068,-2.893509128956519,1.6191423259346767,1.8452014633675073,6.06797778468135,19.471105867773858,31.049996326997427,26.246483637715908,5.9224584513871354,-12.133119136071567,-22.17672562898348,-33.85084168845594,-43.77019363176728,-46.149496421423,-46.98252226479448,-48.18349981773926,-49.78248193754054,-37.18147876330824,30.614151862459536,153.65097832478037,245.4764657812701,201.032125545801,15.169931074481227,-154.93956569636185,-151.1070935672479,-49.22515124496199,-19.963796432702168,-43.530094535954625,-26.716133715678193,-1.5476644061464278,-7.158399605693171,-10.767875363167349,-4.9421510596544005,-5.243850938350228,-3.7173398681098924,0.6166526015455989,-0.14801759349485266,-0.6075386526945961,2.7203349740782734,3.5810514515218017,-0.3883913290647123,-2.5940746043268823,1.3414048620611925,4.458363695930798,2.7207142127634825,3.456541252826958,8.770485980891776,11.303563054199657,4.053391483552494,-12.196067226367136,-22.44293469502605,-15.617009726490538,-3.3773502358515963,4.3922311079352445,11.666446727432474,15.549315293336463,14.855809480566897,20.305269173981877,29.902823467630895,28.95181872101544,17.148064690996435,5.680867928705215,-2.7818787774650584,-12.998201655634501,-23.21331612631093,-26.858450665367155,-26.073401142107656,-25.821487335785122,-22.285721621419086,-14.853428295914293,-9.83575207910566,-5.263384940915021,1.7330585370561433,3.8718363851763833,1.0542153179750873,1.3181310421154677,0.8641244003892226,-3.479449475389357,-2.7946201610325465,-0.8004836554096375,-6.9835871152122815,-9.311805928167272,-2.7385469793420327,-3.524187330611462,-7.969232650501601,-2.9154196876973923,-0.6497231171205389,-5.7951274107595605,-4.628931823326106,-2.9490731687944267,-7.765479131801973,-5.547089678612702,2.544656194361503,2.887338188214515,0.2729148702912658,0.9549827825550992,1.3691391425997865,2.84439298802008,4.864548189925223,3.913073644949367,3.3467505771956247,2.13425579672843,-4.433987733066877,-10.338251902199573,-9.767042586933897,-6.423581482404938,-4.341645390209725,-3.8342110296458722,0.12999110928567648,10.957292145341405,19.853077468359235,20.638434877157607,18.273274211822848,12.48338950277404,1.2825490857661581,-11.275417690277557,-24.811090187812553,-35.131100861570154,-35.480916862885486,-35.15473492391376,-39.06221417571616,-37.981676226813526,-38.1254284779004,-35.10406053906938,13.564949455856699,120.89337692324743,222.69312463892817,218.8183585311699,65.98616456189077,-119.6490042079472,-157.80995570635824,-67.09333011916561,-18.615348289613888,-38.46638685142108,-34.958098208390496,-11.456939518678261,-10.772661278468675,-12.018950642489342,-2.7846154242456125,-0.7008061229112919,-0.40924214915608026,5.423313011440667,4.285079609254467,-4.725321448796281,-9.439088047786846,-8.569803409278162,-5.627020725077813,-0.47886641897229154,0.38353052288191414,-7.231040151509244,-12.61119456360198,-11.913681818504326,-13.58576782271004,-12.859726971435135,-3.6202956942705327,1.6089569947468698,-1.0431465666439466,2.633091885747655,13.599565444504703,17.885575334241725,13.925665296160439,14.507696415837067,22.285018622395878,24.59870841319554,19.68516717331026,17.287780780560574,12.121633568400298,-0.4474695975260068,-6.195591027125541,-5.533671630697448,-14.579610229956472,-26.671771711846613,-27.348411765526603,-20.975787714623785,-14.292158544390004,-11.244523309468647,-15.461064793531305,-18.625585103025593,-14.393524946059182,-10.27909197770817,