ECG,-3.2902049804393156,5.392929586600498,4.82022957573069,7.158351146230318,20.678029788257124,33.453751505417266,39.98291159214063,50.33578899884213,59.753797257260764,48.36748644104986,23.663750257433634,16.079005262749078,25.06706167715283,23.952641150073298,10.95514573426822,0.1683394886265397,-13.107339390383904,-33.18863045348001,-46.312214626262175,-47.320133594650514,-47.53633317285525,-51.18706949672589,-51.576453689521095,-43.04708083400232,-26.077319323717404,-10.782086206827373,-7.164725815543203,-8.823390092365756,-5.842015745712363,-2.004080747952049,-0.34814554213098425,3.474835460921282,5.773771520330651,0.7567680686714002,-3.778827124618523,0.5040086872759773,5.448317529031915,0.277576909800743,-8.0916470554106,-8.666457436797936,-8.877982910074486,-16.042262637859928,-17.14328163096659,-7.6739688884721975,-6.539179518720445,-19.095765218883116,-25.45798846422585,-17.550682064251358,-13.10199070723499,-20.12629751768597,-16.160094937503843,7.920478815656707,22.894277466307514,21.453752319065025,31.753628127061603,43.618271611073176,21.372687008690207,-19.22986891779038,-39.11257476258587,-41.22956414587931,-50.249048581790525,-64.71771930900542,-70.49171979836294,-78.41626482616557,-93.9475450263403,-98.0585531120654,-102.12869416269027,-104.15620361132618,-32.27425316450231,139.63553890951005,356.8728760975007,506.5824074432009,375.0097495895882,-25.38359308687901,-247.36257199690652,-113.52852193726918,-19.67063241321982,-104.39353633169908,-102.83515931860597,-37.21428535948157,-71.7257532976904,-98.70933908258154,-51.83352144527011,-31.05882547971014,-31.400499643690885,-10.659585232051466,-7.200474633995913,-18.350804967246777,-11.917187202724701,-5.528335999167872,-9.227508315067242,-7.746800977361069,-3.2161164530399624,-0.0921676216283811,7.751419337717931,18.183694580502397,25.434122525921744,31.040720123788645,35.23377459540288,36.044465696322355,38.41468316209014,44.52374974290145,43.983959574319044,33.43377810105527,22.10138529312678,7.631997234487408,-13.82676108462941,-27.49977982479193,-31.174161924222325,-41.22390116028165,-51.66271329011148,-50.21173764932508,-47.2034079774822,-42.23949014381209,-26.414572306641755,-14.89113070251252,-12.444432601819548,-1.8830222523103348,8.984756416183918,4.596171812888679,-2.9151177513903868,-4.060629446137938,-1.7734533058194195,5.2699793180074685,9.107689150707866,2.841585432251067,0.1161186316356968,4.545787725505097,1.7260323051507012,-6.730113340622616,-11.05421724704992,-16.83913624734304,-26.260386704058725,-27.78082488395772,-19.96653519688755,-15.233187979386404,-17.42638728785959,-18.290365856617242,-11.266562386764123,1.3221371927278973,9.781135395578254,13.581241855856124,25.2842349589423,38.30707219363006,31.897879665154516,13.436705803186186,-2.0442730539728053,-18.710555766015965,-32.63786713535701,-41.49750447041142,-60.31532524267303,-87.51691069971913,-107.22171619547515,-112.65971962397069,-109.91136848499943,-116.06539662778903,-107.89899737044712,-21.062752449850706,163.82469075893613,401.6104567693609,524.3692678688104,300.5098499192069,-118.85261562184589,-249.4472103886794,-82.97865548199744,-41.84409786910018,-131.69265211153356,-101.85703059443881,-39.33476766546174,-63.72916310996443,-68.8506492659625,-33.96253221794955,-24.459718457100973,-17.54428111315023,-7.17808027642273,-15.003536723287993,-10.45741772120553,6.735651288347594,-1.7768618329539443,-20.888288038829966,-17.990437117190453,-2.7129043867815397,6.375853527784495,9.942541813689285,18.81995377330351,34.9268165667255,41.83153656179472,35.93261601330468,41.064696023765485,59.62229026592835,61.76605434354897,42.386027954780076,25.840310275052687,17.894127396466963,5.756898986268585,-14.587332814979732,-37.111706738511714,-51.10753880473317,-52.61991518917608,-52.285542363305176,-51.66518074597357,-41.660638012244945,-32.66415293542811,-33.00914651145873,-24.85427683580363,-8.029809378468421,-3.3048471788170026,-3.4608676473387128,4.700398895844039,7.117717034552623,-0.6826047571516742,-3.5317019901205846,-0.34789406028713543,0.6618973558488523,2.386955209277449,8.982208044909836,9.494768395085813,-7.387510662772417,-21.652391020979202,-11.185438646180666,-4.121065982916974,-22.6142313362647,-28.598654148895772,-11.31285350262419,-14.019331720744695,-27.39192072958519,-8.217495212365606,18.37057128018465,16.308221127108123,15.735970411686312,38.94849846106473,47.29246963160475,8.612938397004605,-45.978934803066,-63.477465172369506,-51.56348786146576,-57.69241704281485,-72.28297411229303,-70.35457186947346,-82.25153303838388,-102.48888547400284,-97.59118021547877,-102.490617043384,-97.13167756921999,13.720250682887539,219.22006009445633,450.06002425190445,553.9875078173711,264.18737721296026,-238.19714526998374,-336.26305401821173,-61.72447097812893,-0.8977262454540949,-128.06588673918625,-92.11005444420269,-23.37303780600886,-63.65015040225181,-60.845441522665894,-19.63787516645705,-31.00607301721507,-31.01761174681394,-6.916414910696314,-11.271913954576258,-13.932147380714461,0.03424255209627791,-1.1841385445317059,-7.362403916831948,-5.997796111912787,-10.765404160339,-9.969892232866606,12.535672513654387,35.61931960921248,41.17019762186888,46.678514585179556,61.00600635585503,65.73449346022413,63.67634631516704,73.1566811478585,77.0851342256982,54.937822580497624,25.14256423085448,1.5500601708314266,-25.368111106546593,-50.88814193596717,-64.60139913266352,-73.73752929274785,-79.894786798899,-72.93902945827134,-55.69016051756462,-37.83797898789953,-20.956923289979905,-10.155504900420759,-10.573751505952067,-11.472069023151597,-5.507165598941928,-1.9438116268762862,0.37141290360326806,11.180952263268939,19.340961999948988,14.290964076954015,11.366725718456285,15.253617598730749,5.990947795603718,-17.110090575797685,-31.168028180935394,-29.308953068186593,-24.580375154217492,-25.903795915117037,-26.653567873912117,-17.175191316282213,-8.797335082610292,-13.20952968978889,-7.9626530688534665,14.593068922079123,18.204982072903796,5.245393584459764,17.968444171405523,37.56263040567545,18.430666427149845,-18.989985969631736,-37.72139926766116,-46.69397284180972,-60.84321003401628,-69.59233653660564,-71.7815361818449,-90.68508216624237,-113.3007758992598,-102.50008693396926,-98.57641151406946,-124.98408999889564,-71.85281881560596,114.04298825048912,356.6695473593274,558.046302083467,493.22278742118806,60.186259872382564,-287.4641654964818,-188.88756889693678,-29.60934083486263,-113.20183528291201,-154.82327135524733,-59.707228137965004,-46.000320588854905,-76.54904288087698,-38.57923875992985,-14.948716304084357,-25.685232440370438,-11.631919887286118,-5.042184710122285,-25.170645288883676,-29.452702255532678,-16.826853109216795,-10.560521438800457,-6.930371812399069,-1.5050670872834448,1.298030626977222,5.479413584603789,17.979085954555472,35.29366625881137,48.22346639130794,51.85354013652428,46.66574428037108,41.9318617190967,48.38643322273207,57.1437261881401,49.73473420281293,26.39177194667837,2.123136860860673,-13.341614839662986,-24.282100176281737,-37.04271918374897,-42.99177458856975,-42.452732931714706,-56.82210281051165,-75.52773832994046,-62.90003828619511,-33.404308074421344,-22.758218651726352,-20.005374362491448,-8.712970761399312,-1.1865377251278844,0.6220232218427846,4.846057106840917,4.6475801415518845,-3.1391978008414014,-6.8656398317603795,-2.0263040109697332,1.8066003246533224,-0.1804763064512933,-1.5795178775997023,-2.46805315343428,-7.8106511684902244,-8.973502159327921,-3.9904989458551796,-9.948594038868606,-20.992604781550625,-16.062455808221564,-12.203976192764898,-25.50389001022089,-27.896871016278176,-14.433648682977442,-12.337421204394097,-6.929421925480094,17.1405326501313,24.076146078963518,13.234489145903229,25.530171416271575,39.790231142865906,15.366238449946241,-19.875910895380997,-32.29986305547702,-32.16376329787555,-35.950171113349406,-52.96351377766937,-77.04755588984966,-93.98343346438972,-107.43794817392217,-110.82868682627645,-104.63115649637024,-120.96612274535133,-111.72119599575385,24.402860053954228,260.9799400362487,481.3019484600424,526.856184819264,245.3851265412734,-155.88729002571822,-241.42052221629004,-81.71521971124616,-67.28348286009324,-143.92491366114703,-99.4860344405696,-49.55372940243646,-70.96840876516436,-56.67137838597091,-23.185891778701155,-27.739408447244987,-22.929000874141245,-3.2706845923904417,-4.6716290042143225,-4.984079015871323,12.234707936826247,19.14194375471925,1.9478454276289057,-19.875491448818444,-22.407468422450094,-6.015575841419067,9.52699054267322,15.268556089146298,17.881364944616827,24.541378853472118,35.70538198527915,43.61502954496571,42.403918801859454,37.40632061542027,33.58204878965832,27.10228986547821,14.68239702670845,-1.1106661717415935,-16.845631202188056,-33.02354922146623,-49.96929789005824,-58.48385392357285,-50.62771378999781,-38.884398556712526,-35.822288722349676,-30.81813940279961,-19.55681637680422,-15.355541526220922,-12.54879074770318,1.1572248976989457,10.451044185892249,7.012240987647913,7.439327761722669,11.236952852975678,7.195610139438105,4.127007661348431,6.10147913308927,2.4048351028455173,-6.893671017302918,-15.609560275591805,-20.208447733235502,-15.647290070363933,-9.11797044277813,-12.662702794913528,-17.842464145774102,-15.25139494393036,-13.380995506342845,-14.576581078330896,-12.56801754757148,-10.683103696821387,-11.70756382519048,-11.11447269082576,-8.059226045114201,-5.330604474684856,-7.220955754610799,-12.410130634754754,-5.99133626893156,12.339816326366604,19.002787993797803,16.550449578161093,26.26022544645239,29.82957497300096,7.348109626204547,-14.785866924556212,-21.527228832398784,-30.23989612666615,-43.33062098157406,-53.842029255815746,-63.7335524267875,-76.41285326480931,-92.7813112121558,-98.72778841875069,-95.0143568670383,-106.14900655898796,-89.53650299665084,30.886620809387267,243.01239057721176,469.0375792622313,528.884080510181,232.60815695795478,-182.7033950457728,-254.8762153991474,-85.1526844149378,-72.80713333086902,-142.68919888759822,-95.76807403798418,-57.72682231069048,-79.05320966981324,-50.8366635071438,-15.610450313662291,-28.64911689171528,-27.582635048329255,-8.260472995941303,-7.998736261364478,-9.170882542137452,-3.8621629767244468,-3.1160257824552122,-0.13508955514528775,4.632218736051155,6.618969165544569,10.764180187331267,16.650770811467,23.753100316850226,30.518209377189407,28.548591762003525,24.80878198970275,31.519188445675155,36.74782189071408,30.880248275337323,25.374131119893057,22.950662247413113,15.639654314770599,2.276430430089481,-16.275945694753972,-33.8755678080569,-41.685216717826705,-45.030048703914204,-48.003862777565736,-42.47593961907509,-32.70755345396113,-28.770864999378663,-23.83929047338121,-13.104199697151078,-4.069824344862916,0.5825956345931473,1.5884410468451602,0.2545587647064309,2.777196317013937,6.857857667096792,2.8699015088289244,-3.6432923680883924,-1.3245133566673903,2.3527606536909325,-4.29818502898706,-13.084019708290112,-12.260297337509433,-8.161293304288023,-8.29305704478434,-7.877662834896439,-6.487694495506199,-7.140385317260661,-5.4134796584894325,-3.127314374232405,-4.420010505085749,-1.8612729846346294,2.3116801049911864,-0.818065329611418,-1.3605963294136103,-1.370823460439091,-21.694261308527814,-44.08313278671437,-33.5930311291082,-8.329591991200196,0.881590120642576,6.949073423774164,22.861202578195666,30.834750628445157,20.570292374116043,1.3078688169279076,-20.3686948469522,-37.87550157475204,-44.21376303091053,-46.91267423387825,-53.11317994374869,-62.03088149588437,-79.69053763059117,-95.35605406464748,-93.45594792610746,-97.56681201712273,-97.21047706768297,-17.27188123777102,164.7034993586487,391.21676378403924,507.29772148186856,299.97338527530263,-105.56956550792817,-248.72158549247018,-92.98370509853436,-42.51067591551549,-127.24781796672121,-105.44511060372974,-46.64161132768485,-64.46303671590147,-59.709150736136266,-21.13046479604401,-21.447179637187276,-27.273090603557176,-12.544620329178215,-7.3747551750857845,-10.127299623799647,-11.307103299108306,-10.904353335320419,-2.616062646424721,4.24065605686309,4.304232370045186,8.89493300927837,12.3293974565997,9.141557601459477,15.14719220469702,30.276323702839335,35.691599862999006,32.79490482540899,37.397326791788316,46.238558520499744,44.15024175147684,33.797364235513626,24.40417602022746,7.700276044298869,-16.898041028013296,-30.36802059718461,-33.75806096848122,-42.11731165842157,-47.04736551034112,-43.08780953039045,-44.31219523899266,-44.5044078272931,-27.201878786022856,-7.768482729571794,-5.922980065626714,-7.440999629978418,3.710157245102952,12.020810288448565,7.2738829195810855,10.077617575975623,18.684982869877313,2.7321186915324063,-21.047645884032534,-15.921579485608838,-6.775134789171325,-16.739682495587004,-15.23623205540978,-2.4319651922541254,-6.523258534107416,-10.3733801118468,-3.687639427232728,-13.944983335511942,-33.16478957779725,-32.80628006462521,-22.049860717429446,-14.961803154550207,-13.852503009542371,-23.67827771259539,-24.364487119553374,2.0764411140982872,20.486589358326977,11.11177260272369,12.762451382082055,31.819002958731723,26.850995389614454,-3.800470111962074,-25.552806664282084,-30.71742838726803,-39.65115074774607,-59.2174641721132,-69.36499070394655,-69.84958898299236,-82.71644106179303,-92.6257826626916,-92.56194966837677,-106.44130018479639,-82.3308656822965,43.956887864037895,245.07720476712424,463.6615084321254,507.10827453435115,167.60726786916996,-240.12359996406383,-232.5470019341626,-32.81258621122271,-59.309631314360985,-132.74547390955678,-64.81021883995496,-40.56074973467134,-77.24675542876547,-48.98100907551687,-20.585286635764838,-31.584032108052664,-20.71996165255579,-8.815001515089735,-14.268245217518528,-4.796387886176179,1.6689201071978506,-9.782618707444843,-13.210273999483407,-8.782976864204008,-3.808320854965701,8.674069858589377,17.698475053711242,20.798038794082284,35.969460749582574,56.41095661733735,64.00588242188412,65.55873347623191,68.55828340387058,66.11648598649401,53.82919406525793,29.45131621642155,-0.8311585820671052,-18.020021655969312,-24.824823966923994,-45.71444707309651,-74.19474352530699,-81.21520601181679,-68.03744125683993,-53.45046460857426,-42.07228577652227,-36.835534861740044,-37.03216200336236,-26.33272885153905,-3.6554953647680577,5.796242129402337,-2.8678009962288797,-5.346202225923719,3.1757369112860196,5.368773056191937,3.006562465417719,7.5219121219557525,10.087226973078533,3.2155168969062995,-2.259363842619676,-2.4896915207025803,-4.194476088698867,-6.3738736738674895,-7.328537996746725,-11.355651511843988,-17.791573475340456,-22.51288452077967,-25.344207214900443,-24.669259744326098,-16.24092255817462,-3.941581993931493,0.362424835573659,-2.010169339296521,8.221948328667066,32.512691896836515,40.112928630135904,13.850074294357086,-21.4773411632085,-36.74502901805418,-39.07213050231131,-51.061031820215476,-65.33086982894638,-69.3927460597715,-82.29679457572563,-97.79575435903966,-90.57192571613965,-91.66565049435692,-90.74373698623896,4.407651526518862,195.32795044639118,408.1431992314629,524.9712638398497,311.61195887670135,-156.16763442889595,-329.4728668093784,-103.74692975464755,-2.508155400776552,-113.62148193158146,-100.93795079026707,-28.589123800275864,-63.02456325282378,-66.25566303389584,-11.811182142621636,-13.274935607653251,-23.74381365151397,-2.664506448501432,-4.34379092399781,-12.927109386187709,-2.630923784626395,-1.4476066667170633,-4.766598894239248,-3.522432964525221,-16.64834152761366,-26.573708116444827,-8.307098367626221,14.565921475597975,25.55437654403287,39.846865577843815,53.57391282826243,54.440760683007476,55.90871329289557,63.712249820179615,60.09858908687261,43.37131067814832,28.0074948163862,10.864627706260436,-17.686295341708778,-46.119384846299155,-58.19452071651679,-59.798598051861795,-63.25149588825478,-63.31649667498194,-53.68091181463605,-42.63644225270425,-33.46576424366779,-21.39443910130327,-12.745749821130048,-11.879177171777744,-6.38329610632934,6.042571255961345,9.677557637124636,3.9021329551236565,3.091481671205587,6.772736875769745,6.479439388746029,3.7655404740221705,0.8053804749693452,-2.895362796860617,-5.548156610088633,-8.91901141642474,-14.346905333309117,-20.414684181003793,-29.46067800581775,-30.62385651865587,-6.787504993207641,18.01893031947354,10.304356164975616,-1.4813889840388192,18.286581051974114,39.76316348929942,28.151155997656893,-4.859722539100147,-35.29312061716719,-48.08878506900059,-51.3577873430477,-66.71899151259046,-80.22004942445076,-77.78687654369618,-82.70235399831742,-90.73102902072704,-95.44516938189459,-116.51847858574068,-89.80627805173714,64.0236640215527,296.82861141414725,503.3333382328515,500.8101525189424,151.4091583768547,-222.8732757568531,-204.5856367179743,-26.988734178878197,-67.89241770405408,-152.18325413781963,-99.7257664842877,-70.84791308054699,-89.75551833125704,-56.26578205212883,-29.11796613070387,-40.142029900533174,-29.902631267839563,-15.379615664695056,-19.74367909683276,-11.701401552190896,-0.6754084875314863,-8.369698046176804,-10.581105949317948,1.9560565721449406,7.386020785773864,6.201314291625227,13.803212243611986,25.629745180308994,32.56959820327792,39.4335227438491,48.15573844913264,50.31814851222583,44.24171672612876,38.80079319134408,35.80323629494589,25.268798389455156,4.854955259603469,-15.682773752237512,-33.1289358362275,-47.20998536275736,-49.30414907551308,-41.745343908880336,-39.39367057445722,-40.820731516110804,-35.79858621120225,-28.48713826923014,-23.189490391833207,-15.822872169832294,-8.813803763588723,-5.177611502172773,0.7238199348866079,7.251740239314689,4.478880634723808,-3.8848767540618976,-5.662412520744052,-2.3424653399997375,-0.9347540869504076,-0.4008300661294477,-0.7201914626505523,-3.402291419383861,-5.999434612126711,-9.007137047060054,-11.69973145777843,-10.581423296181821,-10.88565392098782,-11.4445867608596,-1.9634887141090083,4.607441064676578,-1.4154539026781716,9.128352951290893,38.34046531347569,36.89659536090257,-3.6178921579613963,-34.57107290167984,-35.42510186631972,-34.141680676176044,-48.492423907071384,-58.33053895694342,-59.409017015872664,-82.88614021833702,-116.27677534450507,-122.92612400681386,-123.40071830145419,-104.545091973108,8.629594219570919,214.36322757710371,435.8248169514996,517.1935979152569,266.58277848581844,-140.8052338067323,-246.13901351717698,-84.2133887108501,-59.454984262879876,-139.0738185777205,-97.48025416100326,-45.141483902971345,-70.56342020891829,-61.42572985472778,-26.98823275948122,-29.475959215049922,-23.59208821712438,-5.069121269240007,-10.329081937661645,-14.766347153152013,-5.781679422683199,-4.163327500246426,-3.4479338406118236,2.7881005963724075,3.6117862405160404,4.946239846479688,15.257953587743494,25.313846486333507,31.739834296136006,39.707141237823585,44.32336850993034,42.04034740855958,39.561613673776115,37.672577139246954,32.41696732818609,24.04397802818584,10.191708273401426,-8.960998904817451,-25.3877355211594,-35.76891440541651,-40.609008398234664,-40.45401201414879,-41.070724431243136,-40.77735201533705,-32.72784893479107,-26.473489887924885,-26.827980488801778,-19.812287890171188,-9.603055834104552,-10.477195964499007,-10.194082321405688,-0.6346767071890405,3.8820845630730716,4.171182030863482,8.114890838160116,5.897637794094843,-3.1767094814834422,-7.3047312395780235,-8.542046860008329,-11.853830912453251,-14.83072606206348,-16.978893797206474,-15.073309950247644,-7.7151152704100365,-0.432999327198468,6.497390939782683,8.455885258921297,1.453283818119993,11.685119737096048,50.02178668843689,65.66186405971933,24.920100370114568,-31.424051357982773,-56.23729751104301,-53.604197508496696,-55.19245084429056,-68.38794230808699,-75.58101189933322,-84.9735223404866,-104.64492908656842,-107.60813802666004,-106.45830616805813,-117.03940922974775,-60.6600047934313,108.18716864404692,329.29317349019465,501.23267865901954,424.46390489037043,44.44308584749864,-240.12578072424765,-159.6979083389849,-43.370192567387356,-105.49269593371076,-120.62484634119582,-52.83207818456506,-57.66724139604621,-72.56133448858739,-36.564012573152866,-28.710477183913298,-35.73546713847835,-15.39662919452196,-8.288215793564683,-14.861145205338882,-7.181467242051646,-4.551645333514907,-9.836604937723896,-2.2717354335926174,8.39529318339195,8.63126830665003,11.030751872486551,24.8984652328899,35.17214116237108,30.26169686046093,25.951679254303244,32.19051790856015,34.2076305413018,30.312262341733227,31.19418290578362,27.762987833928186,11.46594226750354,-7.696059733615458,-20.70042453023532,-24.733153707026894,-26.84121369445156,-38.92980351984924,-48.39791653147432,-39.74713740013007,-31.3038551498618,-32.67325963255422,-26.724302521235455,-18.639610344338756,-19.57988045425838,-12.571141203549114,3.4819746983809665,6.917016598231767,1.731897241558153,1.9276660515234614,1.4122387492312996,-1.9446173467382089,-0.06632997645683325,4.46479593866338,3.5385455118020506,-2.5437331827309464,-7.459245108330389,-7.522258438029034,-2.8024158304565425,4.453046916220567,1.0477921261308651,-21.13970041752284,-32.68267068917483,-12.377761792717571,2.7590090005914725,-3.1378685906703385,11.294470276095254,37.738409594257746,24.26668941885909,-11.453627398453492,-25.46929369797415,-30.439787976386796,-44.104189345377364,-57.26160341814253,-66.7875760264917,-76.98693116929206,-89.02858545651043,-96.11715741388853,-98.33893810179772,-109.12655084494435,-94.95953172775359,8.02279411744405,199.2314431144806,419.3018736569584,510.2626086474373,274.29143276675984,-120.94647471114105,-232.3446864422011,-82.32478286638971,-54.219840102421905,-133.85158482383275,-107.36044810955501,-59.08635231913287,-72.39425088914089,-57.440415391785436,-26.846214586976043,-33.607926434874116,-30.301336269298396,-10.188739267985085,-10.022059488467718,-12.351240888399268,-6.905382539016994,-9.624017441039612,-9.691124541553634,1.4733240038034694,9.355913463353929,8.954347289000708,7.563762214930646,10.96494758469687,20.468998824548162,30.175594614930027,35.05517033015394,37.8830968913643,39.20448501281601,35.53816985466695,29.998687661139293,27.290479422678906,20.686935807895324,1.285564090364839,-23.01697803137367,-35.987823351796486,-38.23194266457023,-42.228083515410745,-46.06396980298027,-40.48050650647456,-32.31939692137105,-29.209695078547114,-21.5700998327464,-5.106690312962071,8.430184271304507,10.833282104647047,1.6177300368026266,-13.100553252557804,-16.56582047136234,-4.688686576086631,0.7256555832161489,-9.09926543028266,-14.44529843785325,-11.146817065864994,-16.7316380266712,-25.041715102634562,-17.922178714205288,-9.280676617163284,-14.295121128700735,-16.59866177510804,-11.083990784246778,-9.498744293059971,-1.3808318541687221,13.189833799634565,9.541576721725582,4.609810351336456,29.131722057627464,48.063182653085676,24.471598452473373,-12.319247615883398,-32.17053837242308,-43.24388931766998,-56.1455766707857,-66.75154143234583,-69.71134660660961,-77.88371063595416,-93.71861268115788,-92.40903751237639,-88.30970263170236,-94.01217027049375,-38.49146445151105,112.28852814762809,313.0098705311537,479.60119979921086,386.9441203819687,-23.670548203052974,-289.5240472373009,-139.9575949414249,0.42172892724267186,-93.87424373644959,-117.7417172565915,-36.41061071115136,-51.74652501660594,-76.96144156300397,-29.150889675173936,-19.891887455528938,-39.190819519048134,-15.463437980835097,0.14102331322359873,-17.111202943853918,-21.845419905341096,-11.179854345991743,-4.173311953056437,-2.578882396501003,-5.796553050368406,-4.355478288029651,6.038671999320165,13.100321338850339,21.26513953253256,42.598307800890744,59.620459572861066,58.11064898915929,56.510180232266904,63.22914378436937,64.9464729588549,59.34566896977029,43.04656257102441,3.297719870740732,-44.673202153273174,-67.71606656679248,-66.50114219263368,-65.60680508807391,-68.53394471788572,-62.438877105760554,-48.63808943228969,-38.3147994538418,-30.697994450551562,-19.374660101911584,-8.957358528125116,-5.301057812655081,-2.2608864565325533,5.251693091742366,8.737378191707396,3.110232431909882,1.0616788749799717,8.130536231669975,7.159473460035368,-6.000813188465413,-11.252417509818075,-7.189272546153607,-12.39730109812292,-23.36427488982272,-21.783230231855285,-11.970268814727799,-13.563583698076549,-22.193876397994025,-11.120890712623385,14.024112318381725,17.466426770483885,9.585075295264524,26.896471173776735,42.90398520672439,16.3132135075894,-23.341528833883636,-35.55743508866882,-35.01987612755523,-46.530766179521436,-61.67216843509076,-69.18996020639258,-83.03834370171185,-96.22407392684387,-82.3598148795216,-80.50160100799937,-110.09641198688871,-65.14024754563125,101.87053540189432,314.8201315512313,491.90591542865747,431.6591805974648,26.86661219181582,-296.9414717318675,-185.35498638115808,-9.92020211292603,-74.95377608850544,-114.77771932954754,-40.575323992883206,-45.41732650974015,-73.72715156051513,-30.969278445451614,-13.981141390598513,-31.263753717221487,-20.034067714651535,-13.57049603567604,-23.818199071139745,-16.391595822341454,-4.117204235588298,-3.6799982434943104,-3.0487546425209704,1.2790121402600407,6.285185550592964,14.317423360463037,27.271470944731416,38.75083746885987,36.963770965676886,27.883783822904284,29.637105004595767,39.90554731148245,45.92155110632628,46.93292378304295,42.43901997743578,26.83549915104337,0.7907281613383521,-26.161763919896934,-42.68294569696204,-49.37798160765346,-56.64267073389433,-62.558068818700754,-58.14842903635751,-48.32766211156519,-39.35068278730732,-27.930396322315136,-16.815576296094598,-11.24298541609095,-6.058712818258787,0.7963733829452124,2.6472108128368816,-0.0411008942641935,-1.5639204496145425,-2.960036105880775,-4.734096363318189,-2.315021977196478,2.1953650080526916,1.5323859911360636,-3.4184753263234064,-7.8428072257806,-12.281289004593289,-17.53682898034431,-20.579930874147493,-18.32759977079719,-13.053099062077049,-10.876178002121982,-7.119228878362222,5.804221718905058,12.394182183244949,5.0875245222142125,12.959412258721276,37.577906372043444,35.75278468703752,3.6246206044832867,-21.951117140361852,-31.80795765922744,-40.0498712877196,-54.05008708614304,-67.80055028631213,-74.23819616674453,-85.54460238781938,-98.7455209572035,-98.16635808200009,-111.6108161781727,-120.09644106278827,-23.255710175411203,183.82229234473186,412.58927748596227,537.7531443808051,351.0318545892319,-77.42993383216465,-263.1202331181114,-100.8259032989194,-27.127230590831168,-119.02802442943789,-101.99985417209004,-31.04842561486204,-50.007257147066184,-63.67908109141068,-43.198830537695706,-46.928230684114794,-41.343103969660525,-25.187418066536587,-33.97261907924077,-34.20789293817646,-14.458853005485231,-8.17936174124944,-9.661949777764036,-4.33208403031983,-0.42272516797496884,3.6878035981259067,14.311876162887625,25.887295439010323,31.21389880134687,31.173837844547744,31.30377742986869,32.0026280998916,34.1829849659202,42.022251812257075,45.21288142367942,30.926977276971837,9.021221355572413,-8.810972162513202,-24.106625342978298,-34.42858517275281,-39.390449537894476,-45.906726971820206,-49.375100352903814,-43.67029328032304,-37.67242628570547,-34.36728550987316,-26.1147302352872,-16.897552057530092,-13.071776299590077,-6.666521181949218,4.749948569197262,8.961660096270387,4.172824050640381,2.033710160906473,4.655467869254197,5.73399930703456,3.9333051517237845,-0.2097279817579789,-5.038825139571758,-6.825427172862019,-7.482669950043114,-10.272849060889456,-12.812565987553235,-13.89066818574803,-13.469804255972576,-12.085308952061958,-14.473020252003533,-17.439243875286977,-14.076481515900465,-12.427048639844479,-12.360618143863505,0.971064614274411,14.780613664536787,12.672899254844893,20.378293910767173,44.028385019021094,41.3106221900275,7.41661555722013,-19.70384176398649,-32.11505458067977,-40.04344619496014,-45.419136397854416,-55.58308011587594,-70.13720528813256,-82.33414032655509,-90.41449345502829,-88.72634035662563,-91.50537730866343,-101.23669706710113,-51.8753260771325,98.24175217489085,313.8472029263405,501.5708783069916,441.158580193701,55.817696294881905,-252.39999125191744,-181.13743923288138,-51.69070593740535,-111.9076992615837,-137.3774796305671,-63.775243583412475,-59.40415503904511,-79.38084198846498,-41.90841773693502,-22.885861971278107,-30.274741468102565,-15.800614433480835,-6.72148252364982,-12.483045866833606,-7.921188847285151,-2.5264783943908,-3.642753666713725,-2.0438789934952606,-0.4896072269293299,0.5427070900253641,6.0397067976204735,15.421184861891218,26.632634549597316,34.37615936143451,36.674324763292056,39.7576875283129,42.46451939127999,40.61655952914554,38.30640039161432,32.72359392216022,17.30694776947782,-0.3369794208111392,-13.154415895705542,-25.341962432405005,-37.762212052220306,-47.39233815513183,-51.651649100052595,-46.41857376112691,-35.96811255276902,-29.825287673331353,-25.50406266474496,-18.93310683859667,-15.609662898708534,-13.135050104831517,-2.580552436713578,8.737705124245862,7.438171746184545,0.36702757664397545,2.285870375816838,8.586184849529445,8.377835590561084,6.834112428927826,6.549678321461036,-1.6714827898594429,-12.130172490708254,-11.913404785883612,-7.826605624912041,-8.438380188427399,-10.798361360531114,-14.33801683119659,-16.02044712352606,-12.95819172093957,-12.89136070662196,-15.191607439042155,-13.13304148556431,-13.244651165662766,-12.21515957910697,4.103517399858282,24.907399171057914,32.57726042792919,30.50476413515653,22.146401102487346,8.022404078642957,-5.496660322866163,-21.14702867544096,-38.35865653500893,-44.15563696138436,-47.8338258964973,-64.0961558157593,-73.46143723750116,-71.4703684230671,-80.76158584590019,-89.84476166693963,-93.36529173522952,-107.68938370730115,-76.78609806837719,61.775678987094,273.504408583028,473.31158222947414,477.03952850777966,146.80014360742138,-210.79057806302086,-205.52335473829146,-48.64313478049296,-79.71798022123457,-141.06462386304096,-81.88400697686708,-54.96873241259657,-74.13089860248617,-43.03530817561601,-19.790692993959574,-32.09414265430525,-21.477698426416506,-6.454045704871742,-10.785517473599855,-6.849316362094466,-2.8498681013946694,-11.638827428642097,-11.26831910993313,-1.4554019619774312,4.656124063038924,13.825356076606448,23.08118256324105,23.056832148744057,27.083224773282318,40.13425222699918,43.5157204231714,39.36650300640397,43.19430138222142,40.961742639693725,22.92668164204127,10.13930128443308,4.512759484350604,-9.180926615810318,-20.786207518068743,-27.033045650166898,-43.61155054157635,-57.27497507524873,-51.13850494106044,-42.87575549900835,-38.87665341684684,-27.996358576740608,-19.204737955289914,-14.847205401403265,-3.090056148587923,5.7798788704128174,4.2720541530804095,6.746733419124879,13.395383253789767,16.674047528770405,16.736410380134142,3.98488388285627,-17.451424324926016,-22.284444217070057,-14.600262418459327,-14.105655593904661,-11.818769382259987,-4.249635708316479,-8.79959709016174,-20.29030146679233,-19.96964080642129,-12.37776904817448,-9.959442462036234,-12.020545047421388,-14.244175443111695,-15.836085959253023,-16.325196751694506,-15.489607936541407,-15.384935610370508,-15.888762210138957,-9.203280283952264,7.630721336880378,21.384924766135356,25.045089167958928,29.402603740486867,32.65404229900672,20.08199853065994,-2.2428418266023087,-19.797941483558827,-32.67378353007392,-42.431574267862686,-51.47872871753105,-63.082606992491336,-72.79440515150938,-83.42832197024569,-94.20003195450616,-96.33599497259695,-106.23678094825677,-109.73657426926061,-30.845856657535904,153.56206147010442,385.17289683242,522.6426305432944,350.5019417314296,-54.02539289365325,-239.85552088366995,-108.85097402965496,-47.50720245048463,-128.51452600725588,-114.50584561829848,-55.52201191814689,-73.16038802043059,-71.70644864192866,-33.535060013929666,-32.95361866308891,-31.91570839233365,-8.962219803241394,-8.387502890852696,-12.975046650166767,-1.7533953350508433,-2.3821086978432398,-11.432949160754848,-7.208892491246263,1.4181166896006876,6.556102197448322,13.634709226841915,23.549196836331813,34.15979901687768,40.5316502432005,43.220401624623705,51.115327785668114,53.679537990707935,33.61022165714871,11.987434102549667,13.224031580414522,13.965166843258181,-6.7387547101069565,-26.06523404451778,-30.435443374503947,-36.23689101448051,-44.50916182505248,-44.18845434300303,-43.67411924875888,-47.15430180138165,-40.091153882724704,-25.068836711890764,-18.565386777299977,-14.88026035155103,-4.19389877533029,2.813724840984907,1.4172359633817706,2.0487889626877305,4.996613185434855,2.524642196902482,-3.2073672060284544,-4.999229349714918,-2.3175644811052454,-1.295510100957367,-4.58326951047909,-7.0121128986377315,-8.217963642523053,-13.021174104266269,-15.478143492643174,-9.847752132855295,-5.8821331717569745,-8.632888059419118,-11.48724123759084,-13.830778662962228,-14.349119195410557,-8.449667751056376,-3.20519968102378,-0.2113074886480515,10.468941187937764,18.250172019654915,10.409024151444942,6.491104834789387,16.4504703924075,17.727130139278486,0.17237816366585434,-24.487079176266512,-41.26133241886247,-42.49041433340655,-46.83600525089437,-66.13202859865248,-76.46167737271901,-78.38367295071166,-88.58012732672714,-90.39483545369099,-94.0129911086795,-104.26284671258877,-43.749285901977984,124.57777360613139,351.1933600478137,523.0133126359386,398.8009098563667,-32.03177417311891,-279.1977918658999,-123.99618464904258,-4.911821382334509,-99.96963363563614,-109.79922656301096,-32.053671920113295,-56.89321078069254,-89.10861776156788,-45.712033311988435,-24.090432811171663,-35.430874101366555,-32.470335960092356,-25.671741224633514,-17.63873599375684,-9.663180193067522,-12.165829879619013,-9.876814380206415,-2.148436994374956,-3.146486697575458,-1.7104518401607005,7.078128927171095,14.664241333175113,24.77282884072443,34.20531174766515,37.183548917512155,42.81194750330227,47.52167845931486,42.295030890477214,40.4561211884001,43.81313476347999,32.33433238136492,8.514878474140488,-10.423257464209652,-24.66976325914265,-36.84948703325743,-44.89764540077885,-51.34154576748563,-51.68865774216692,-40.70635793386292,-28.39517384046938,-21.334677546938487,-15.854635074085415,-14.969510410551507,-17.70955875776604,-12.67324534202908,-1.9968257924228947,1.5380217267671519,-1.2612911729615561,-2.80748469354792,-2.541431382241356,-0.6557864457514473,2.149123775768503,0.006892763809172919,-7.8970423294450445,-12.754344483206445,-9.901278782540935,-4.7351192754977145,-3.4590203376258426,-6.947787209439914,-12.015553561164587,-14.613143418585471,-11.89055747076138,-7.04702662227545,-11.551109317907404,-22.267420919693762,-14.014302347568886,8.273224416430798,9.124053053288671,2.9379772593198235,25.031114968581104,41.172846800039764,15.17711684406086,-16.51419649372113,-26.066247890316316,-33.77942793939207,-49.775228794868475,-62.8333997644672,-68.64915118520435,-77.44209505599437,-86.71631819778052,-80.54065902329931,-85.48739002781048,-111.23129968193399,-66.36350838966123,104.60491077073911,341.15702936302364,515.5894804490271,404.117392419163,-12.162730701384007,-277.980707417811,-149.7921014263893,-25.034904003159255,-108.63595765058197,-127.53649338658198,-53.161909161686474,-61.43019768475317,-76.18391699699617,-29.798186312595426,-16.492107651147244,-28.797339187396773,-13.875666416600929,-5.36603028483125,-10.41422156564635,-4.38181652118573,2.2561161248035937,3.648092965774076,5.049108619189404,2.0187103814863963,-1.5326818527350157,0.7322456285378434,8.197676251981683,21.33644700721869,32.5412824130277,33.21549595889149,33.41023999811667,41.412643360270266,46.152319371219875,41.2489333726962,32.698247609453745,19.666324955255096,0.9612530853549117,-13.550344570975259,-22.65072687877406,-35.99576928903744,-47.3328385485663,-44.94213038218751,-39.252343033612455,-40.77058545678406,-39.16872037251289,-30.202428338505367,-22.677761369684834,-15.623185879607256,-6.755583718139427,-3.057513177247234,-2.3558476766987635,1.7786182796386143,2.565365595508677,-0.9103908388407724,2.942558446918598,9.08271519671924,3.1965353621142736,-5.830869001826002,-4.281838453032439,-0.8804650398931919,-3.759465989408156,-6.132503638321115,-5.788049736653036,-4.987012884616462,-4.017538394212984,-6.4192570755754,-7.357683736157426,-3.2815990942539663,-13.78078070719005,-35.080889279971174,-27.225233120034495,-0.38281473325667115,3.109131197446132,5.462896727206502,29.19147610516714,28.539603499415556,-8.07033960997229,-31.219674712192848,-32.25605505773531,-41.346004561479845,-59.13822137115116,-65.34352133224908,-63.78206601352063,-76.94067309047115,-93.7430092673551,-94.47462084866467,-103.95255278405665,-99.82207835726445,2.044635115909287,196.20351082922735,406.17084826693997,508.42767737181543,305.9321762753989,-101.89410700335432,-255.8975792226941,-99.6933354195871,-43.69526215703259,-128.83345081789406,-109.2367740535726,-52.36316114080296,-69.33961851324294,-60.41615478320422,-24.322356412531708,-31.046779921881054,-31.80921375931158,-8.066296150814292,-5.827864936038228,-12.019661560552446,-6.45908385869906,-4.183127194607607,-2.837295773741107,2.7961202769103113,4.611169739009373,6.668521912153189,13.719749111803825,19.482499593815653,26.217447832272825,39.40253623926418,47.38497000768663,40.676874234561225,33.872887688691755,36.542575317717024,34.92612776739077,24.6026702390946,14.528141465962138,0.3237564615129003,-19.80190893978036,-32.69241294208924,-39.088138440242545,-47.55853574667119,-47.85346910262887,-36.461131215192346,-32.00076134049911,-35.6227067484708,-28.39048730901412,-14.031103915312304,-8.970912633533313,-7.301523127101216,-1.2326205050444727,1.1374218664161493,1.8139602865336943,10.017893871769637,19.71249718547321,23.565793602325147,18.004902829833775,-3.64024009714365,-26.619984682789962,-24.992105910905863,-10.313520944729582,-8.597954757426447,-12.993702967726101,-12.167372349776791,-13.897196063654622,-17.299030854523874,-15.33341448544628,-16.83394782789624,-27.860346545880976,-32.95418797134502,-17.820252556517616,4.402044847155754,10.450893130336848,7.517211053801168,19.51358903288481,34.62843195547998,24.648498488099133,-1.5409597884030752,-21.86649071845077,-35.74869190271464,-47.1258482505,-57.248801032465124,-65.04381661488317,-69.35847313399267,-80.91674931829007,-95.96584501576314,-100.83312419814668,-109.7105481133575,-97.985521365603,7.769414470333089,207.50379573883578,425.73988336963083,512.1024129943778,279.4587183436308,-121.01386293774019,-243.81070055521235,-89.79250557570293,-53.22762561804939,-133.48533663004443,-103.18274282625069,-49.200395721267725,-68.21300516449645,-57.945454301333314,-21.825966437596712,-26.480343867483278,-29.397206488186463,-13.21149887288669,-9.822715460958907,-7.730428404372031,-2.200295324030316,-6.60327628890809,-7.702757234407398,-0.04768039536243318,4.521137429736131,7.852407774437735,13.841161516048263,19.73484011824266,26.288624596927782,34.30190544136613,41.3810110095894,41.60900504448263,33.5020889326691,30.622077329005467,38.25354739867131,37.22736322983285,19.54514122280888,1.4008240406427603,-11.344149415839027,-27.19344476924019,-43.11904475314486,-46.529216866019986,-37.68866928916391,-31.721344924834167,-34.28185060087751,-33.927669155816105,-25.76191164857361,-14.270822666744252,-0.9724681475956274,2.5241827706315867,-13.832627994471572,-27.41973202306749,-19.430556349967055,-10.542056629399898,-12.00829334966884,-7.340553782868476,0.121623192025055,-3.840597262199612,-8.15692402686153,-3.600620842287139,-1.6633632694886735,-6.109533627223232,-9.431805815469826,-9.80046586891265,-8.615755921355785,-7.922658869318086,-9.47213171426134,-11.677427721833531,-16.372876819877494,-21.11055931144482,-11.911019542857622,5.734120356376955,9.43637554026281,10.666639518177393,28.50842167161605,34.684478850791564,8.825207044782658,-17.37546239566155,-25.64399156656033,-34.1111867791491,-50.38304253781327,-65.09614329107254,-70.74061613836427,-73.67989215283563,-84.3091363548655,-91.15930500154323,-93.7951478109709,-105.45782241243344,-76.81561105566931,49.409286393387646,250.29359059003298,452.45672597290394,474.7178463939038,166.97240573656427,-190.17522358155801,-204.0226945256333,-51.5940597795654,-70.68164953462058,-130.51285784927362,-76.47207662035271,-48.20028216017835,-70.53629646563745,-46.1896063410084,-19.720356790697238,-28.021974623028676,-20.36183033552375,-4.45957974481701,-6.098936500128673,-3.329091635687906,5.3210865415002475,1.988213565876836,-3.834528491240606,2.907402549030966,13.331877067440743,9.432815694315003,-2.920107672784098,-1.504140209697033,12.70390020556791,23.864281970306045,30.6938479057261,34.10026330456742,32.02933688552065,32.16915653001814,34.90162239625968,26.342569897142162,6.916316441872383,-8.177751740435866,-17.859865097442132,-30.782423065513484,-42.782955176499655,-45.93753920430592,-43.15042559794318,-37.95671729002865,-31.579281968586795,-28.96335508831912,-27.205702747026262,-17.350651905078895,-5.241454258392309,-1.2187730607315572,-0.9324343554608134,0.20548794349693367,-1.0156586085718757,-2.455917413480611,0.06437013079806064,3.2176259021649543,2.0813810630234464,-2.9510224884261724,-6.558502874459165,-5.861130303741774,-6.035385782064385,-10.086210482781258,-13.319823123646797,-14.195378514059307,-13.465989869989032,-11.05220197448942,-12.78959294350806,-16.19303034290885,-9.039340497245803,-2.363418579232132,-9.097734877076013,-6.928066552529682,7.95186916335185,8.621115043954424,12.500554211710433,40.005317648864654,44.47147655839139,7.487668107639994,-20.477676407510426,-27.770750342457028,-41.201736031704336,-55.158260233278966,-59.47061619437595,-63.29341489935672,-73.72972900595246,-88.18027444657722,-96.1612881263928,-103.88079391991342,-110.98380884641684,-60.39796002347923,86.01710309198279,297.772397629114,489.8718883838884,453.62002721550897,94.95067617641655,-223.9431674299799,-187.73961883722623,-66.77443755933707,-111.7617664649438,-132.79315507720833,-63.428052665810995,-58.94089352259584,-77.80828055246248,-39.0109524969832,-18.740541117233207,-28.720412797152164,-17.971754210364253,-10.378075600437853,-15.706803925720276,-10.58390141141103,-6.903428634662962,-7.4253012188193495,-0.5563444495949614,1.0173253382677618,-1.2571358722456063,7.951280114819112,16.217827379896757,16.894758581671166,25.57153038718411,35.17324734263392,32.310486334814954,33.70856313871303,45.248091235912476,45.17151194098763,32.69688026419225,23.39661604699418,11.978550753606886,-6.371334075401338,-21.25518721059461,-34.765563592600955,-52.119776334460944,-57.355759728215155,-43.2744391795121,-31.56237670078255,-32.45291119493523,-28.765417749546263,-16.158694133429258,-9.58867971979543,-7.640213479430113,0.017124702136639414,4.828664617686975,0.5290734915525768,-0.23960994842484062,4.759331122341363,2.5130549208075283,-5.332763616561799,-5.600207791497779,-0.2792064934898306,-1.5315768761838644,-7.070689570700182,-5.96847235013032,-5.719465997426617,-18.334941787988782,-26.68341763922775,-16.108528566843596,-11.624619278716889,-23.86986461145676,-21.56782259812079,-4.64113101404174,-4.588908269798267,-5.474307096509614,16.366947512609553,28.37768223981304,21.012526874181866,33.832193517529724,50.921715880228724,20.695001554600548,-34.25108776391163,-57.253605278032374,-49.5739744477045,-49.008707087622966,-66.4188482632328,-79.3762871890998,-82.89860764264382,-93.08934670375797,-98.06375694386739,-94.86558875189147,-101.41017741900323,-70.07640475380323,55.04744774421458,254.86189198222561,461.32887645591444,468.72971641000504,120.54923421140847,-240.00426113502164,-204.69007324102657,-29.526932271311278,-68.88752370841513,-131.62454882038332,-64.23639370403122,-39.647587011730366,-69.31567577032186,-44.90880421865079,-20.223639455523827,-28.297394088876896,-18.77732316287179,-8.647789678419327,-17.8248975418874,-16.078996101173537,-5.3640324766040415,-4.062812220404066,-3.547561590279786,-0.10411208388803717,2.1510222836713604,9.42396956905058,19.54597951297597,23.087216035983026,26.024839634068954,32.15800500169398,32.22820379264316,33.85337444706178,48.083349953035956,55.8058798592701,44.05829662321781,28.571409545781684,14.31074205455068,-2.2855852560584857,-14.06371919836819,-28.768003470423864,-55.06357144218245,-69.09124691071545,-57.423596361368055,-43.407544574532636,-38.3619989200526,-32.64721520116605,-26.254978044840307,-19.285498276987347,-8.015457637365763,-0.43194152347107106,1.281837444260617,6.015464853824717,7.748524284651536,-0.19872230448277328,-3.3774037359227798,4.0685575026442145,8.149274557864757,5.2361323237268795,2.300777124524908,-0.8610561486936916,-3.8756105645010432,-1.4923469896223516,1.6422540671286079,-9.571845843655822,-32.958307870114865,-40.81641276682906,-27.86301655220804,-25.235146742920815,-30.9552388157303,-10.397121322126466,17.552330866105983,14.504884861819122,9.39690128825307,30.25653276279602,37.64736615104421,7.173697368524593,-28.81508934587496,-43.25240066804186,-44.13250728678906,-51.41880815025678,-65.08929631212054,-73.46116850422213,-84.14525923556434,-92.57126193087055,-86.61034371571587,-93.76960066912471,-91.97907735022426,3.7080435157682814,188.5573333006064,395.94669100563044,502.37076686985336,284.8555826795101,-147.28832058605042,-284.3262072764418,-87.12865234835331,-27.298331513846883,-126.04446606241734,-94.78933488320075,-29.433350832711255,-59.907967742967315,-56.1282994267156,-12.486288761054151,-17.64006816058769,-23.92789169160251,-11.273945386868242,-20.31180643344387,-25.931527313034707,-13.856384517919778,-10.376694858384209,-9.919883214749708,-5.526582133615303,-4.590672107507286,2.3637237895967163,15.941983351421138,24.019716959735717,30.863251124788924,40.51849338276063,45.784078685362545,47.938302545800354,52.56289784004524,56.18985524163204,53.22542592277055,42.24009859940073,22.920939578158993,-2.834524265268948,-26.40545703568796,-40.72751765914701,-51.34302385863505,-61.418841670355,-60.30496615636382,-47.89712784621686,-39.37676300210458,-35.11278652182105,-24.67423997480478,-11.622336215144532,-3.0689812085801016,3.801071977887581,12.60894954202024,20.624194203206528,17.349806553396174,-2.507066441789636,-20.97195701906132,-20.785777197875625,-14.17872414312111,-13.620518420400481,-10.921360528384756,-6.338343661417738,-9.73354388313021,-14.699304616399504,-11.862525131632038,-8.570184282956589,-13.406195734940724,-19.71416252096383,-15.521145009061652,-6.807375225256031,-10.447024880212084,-15.58999791420895,-0.7032703689622011,14.561783577980927,10.647302210825718,17.1311535060777,40.88465828029384,36.96706183842945,0.2978651241725565,-26.26649658077434,-34.791706230968686,-48.45347630034005,-65.20847102671968,-67.59038628910413,-68.57187404477828,-90.47159327468165,-108.1142143314878,-103.45701516849269,-112.44087710566102,-106.75663760774819,3.3694748746435863,212.69777384107698,438.53421398478827,524.7682165327756,277.12316115264275,-134.7051074335074,-246.49740812091585,-81.16301901353879,-50.44676238362345,-135.1095650161566,-100.02938496670308,-45.9471478521643,-71.03240690247048,-65.15679554264867,-29.230849716935047,-28.467738022934,-23.773420628658332,-7.728722392686649,-12.695863750005156,-15.024330516649641,-5.076018960795031,-4.6560460390308265,-5.814197455153,-0.2947269601394371,2.2904766307057978,5.5524707060417,14.555509534870584,23.68997582583209,32.03699225545598,40.921953020774325,47.957912692315894,51.81606532350165,53.47233192282508,55.177419469989076,50.76708467598426,26.740952175090815,-7.259213343941196,-23.90676998145064,-27.48330782208871,-40.933393763559096,-55.24409448289528,-54.6119675115275,-50.888931752612535,-48.43268408716145,-37.416694293631146,-28.914344875985293,-31.13930138931593,-25.37205307936732,-9.259940507561918,-1.9590491044526601,-0.40827235131416373,6.819312427552447,10.935880695609082,6.773227229032377,3.4277723464506824,3.232514047175421,2.266958445889859,2.087644721681288,3.363325799549507,-0.9801919160275503,-12.80084284901037,-20.246994643768033,-18.855987694061472,-19.253479386455908,-22.10920943468006,-19.541806296098084,-15.404110832617427,-15.34684299872466,-16.69343058425308,-13.01784608577073,0.7897844517284707,16.101934821826454,24.378092539649224,37.38153921239289,50.696282425783664,35.79496554654581,-2.191340226147929,-30.918250588029114,-43.355069560936435,-51.62990322095134,-62.2067085977735,-72.4291380279557,-80.99802484452715,-92.17667571572568,-97.26069246434349,-97.7217726773398,-112.05528167666515,-94.26828263760848,25.50429869896537,227.75635644349012,441.8155801658671,508.74361392936834,240.90159684591055,-155.4310268308131,-234.53401068391207,-75.74406380145888,-64.9627414097638,-136.73057254355382,-90.24669379821796,-46.389627165237,-68.74351264527408,-52.505290178393565,-22.089948546475206,-24.9955788710151,-16.045111846889842,-3.0522784963619998,-8.79951724792084,-2.9817934100639896,9.443505295108146,7.982890591188351,6.468392225906843,0.20700300887900625,-18.17393614751154,-20.328511169268594,0.7917731308364084,16.00801247359337,18.889186229975444,25.893066365553622,33.92781352806926,32.340588601215686,34.83273311028836,49.95717777592791,51.7964982520205,30.649056425341975,13.676193144604886,2.0247043928230184,-23.86969823192991,-46.68124878018447,-49.65072838169454,-52.087190010314465,-57.29322659218767,-48.96382505067294,-34.753386299046575,-27.923686916629876,-24.817306679289523,-20.353941443845684,-11.380261967774974,-0.5801519202880954,3.2455324380714767,5.9908578327452044,14.350390592269857,13.192366394744006,-0.18783932731972186,-4.601032879976529,1.5431904943877264,1.7459079601709426,-5.574795163704476,-12.945748009093364,-14.588952704148463,-9.753945896407355,-10.299260369574071,-19.19922723638942,-19.711713226814673,-12.146327672604109,-13.002093066673774,-16.969225328506774,-14.231510337457664,-11.521074935269016,-5.47425706417944,9.320902594499502,18.48558835992197,22.807891061653933,38.24945292587053,46.03337012342191,21.76812203351183,-12.992765781122394,-32.32384723084581,-43.96771408905757,-57.91547540387473,-65.8583803553766,-63.125350070047375,-68.75185114767038,-89.58760875628639,-95.53310391200387,-91.58690740552393,-104.14422758234738,-71.68184077044612,67.48496196620843,275.19091936104616,474.6790962743997,480.9252239646814,144.37112519640712,-221.27272684532426,-216.4553562017194,-60.07170781757816,-88.95457581816099,-139.5743965750134,-76.48915034373007,-58.14718284881274,-81.1615931688829,-42.85309644090273,-12.405842240999103,-27.67977528977633,-26.64408150863032,-14.03218785507115,-14.717250838038497,-11.090141137081257,-3.503083719330636,-4.787614592611941,-9.637294893569504,-7.672632720376461,2.7558393172190643,11.165282091544642,14.937650737538924,24.57738967739125,35.01999321346149,36.05750160542435,35.75077191833365,38.27486937335469,38.057461898831825,36.96379913003951,34.13128866568268,23.62413080124486,8.817289310298195,-6.0083674025738265,-22.82655256434019,-38.36045348282736,-45.21193344154445,-44.113719239312886,-42.7132265104064,-42.59057389786098,-37.091320383988176,-26.61153765781654,-20.427506433655875,-18.2418728669263,-10.904935012744863,1.1618525544629819,8.146461028244673,5.984156074407679,2.444530808255033,4.833494380489105,7.510534833781385,5.19071625022451,3.4380846218117807,2.380519255901218,-2.63722848595212,-7.09664691364709,-9.323879445436305,-13.079519922579227,-14.890640886680922,-15.067840943679503,-18.17019844807548,-18.468789782938778,-14.429560340332916,-12.675942419863244,-11.22502686979497,-9.855033418908572,-9.009426238709311,3.459639002341927,23.048487511894137,30.079352593932352,33.76420117030373,42.290050531301404,31.29713118335843,1.3495996581070315,-19.458640977564514,-34.27698680838486,-53.49822184210869,-66.94262450943131,-73.53573470183457,-75.18848044690304,-75.204965451036,-87.15461153316369,-98.53229414969789,-98.71904277897448,-104.87465557556565,-77.05479403166206,46.23492744853779,245.14993774008659,445.7709173288357,472.98216606869164,173.63565499385163,-183.88948176733578,-204.74607186090645,-55.95400458388038,-73.78290314157208,-130.29514175982334,-75.19893321993126,-48.177681347823324,-68.71721964902233,-45.26161361029628,-27.492216571011657,-37.390840525280474,-21.067601561507466,-3.676465346894643,-8.61873606889738,-4.77819570550718,-0.6014488604297767,-8.445206723136245,-5.773794978123316,1.5569399161314257,-3.500286978305805,-3.3494967102249578,12.954970484538709,27.47520063624365,30.919485029738425,33.8718072885608,40.93947560486112,43.22668065258457,40.08203057156621,40.9264148557107,39.601136233614675,23.96211178326946,5.3110103559237665,-4.714248788861095,-17.990489446108292,-37.16250951033252,-47.97644369775387,-50.68696179767777,-49.9828616614112,-41.94281080943549,-33.97766838331518,-31.23027795612083,-22.4769505034842,-10.620915432491696,-6.855881413858436,-3.590756217528149,2.5193379110496856,4.83271629369645,9.348058457805415,16.207028897443593,13.126678387143997,4.731124168487405,1.977791221839741,0.090879090097161,-2.3561699745486884,1.8470682634601232,4.830294439128384,-8.537383678302596,-28.75534787597239,-32.9482548283836,-24.05178042356054,-21.352469369442474,-25.68413910584347,-27.545721796750442,-25.70230151306675,-22.227523440933957,-18.241140901968727,-9.169457554538063,8.659266830385501,19.588888688437432,14.629638468183794,16.76721394542376,32.63991274166442,32.368888191812935,5.589661379920976,-24.497666855317078,-39.91212110901605,-44.37193383321623,-50.309096929934285,-56.314455666579875,-59.24646345491358,-71.21376844972893,-83.20222574470615,-85.18106970739709,-101.01875065141097,-96.63640837492736,-2.143970788493803,161.4958940357117,356.6368498050155,479.7639297448002,281.4353535691239,-143.3366015350495,-273.63853246493284,-71.46672019691206,-14.139708429256551,-119.8904879953185,-95.80272319670811,-33.22362266953429,-63.17446129542316,-59.21421101423647,-14.291098182786804,-20.546114413608244,-29.935065634822713,-11.367688560997324,-11.499666204829293,-17.776174816394345,-7.566334135879464,-5.485857966494164,-12.884188080257866,-10.283868988408468,-3.1498867059709648,0.4867529924989277,7.106541850085141,18.171640753717327,29.652935232771185,40.667167311898666,46.604153049320075,44.04427003996315,42.06185033400953,48.667284687881384,55.8842019219334,50.021174483594635,29.498904462535343,6.567231018559546,-10.69119644024464,-26.292258945149342,-40.69787498816066,-48.62627618843743,-51.69842042433859,-53.70148158681729,-50.066013868219265,-32.14129645296763,-7.180058558274485,-3.9037440407108264,-26.541640226238002,-34.99739629050688,-15.17138305957517,-1.6839185372020609,-5.44279042529655,-7.084144744764604,-6.468051517569176,-7.5078535706027765,-3.4087104985186976,0.5867003439437237,0.06610238065970364,1.0703801415205163,-0.28446300014861237,-4.960709030205901,-4.346410464017779,-6.592178032408047,-18.085006505524024,-22.688739846600658,-19.185389893314763,-20.109274177806746,-18.440567049557195,-13.665935273228191,-13.372480310966612,-0.00022453256429777468,21.180926516380755,12.613153788932642,-2.553185846062636,21.48117371839805,42.64515399246139,12.18402129314496,-29.61792996138765,-41.189392511532006,-41.90788131212834,-52.48911402700228,-62.01854781688276,-65.22714241980196,-79.48873269215044,-94.80263568417533,-86.10871720320876,-86.0786437852622,-96.02086061512776,-27.096455270102197,137.61451650410615,340.6591123437156,492.91733513926215,361.99848190167313,-65.60793974379715,-294.18659752458143,-120.42464643508707,-1.9979653744934733,-101.63659713864652,-110.0849937061304,-34.84057458620802,-53.852715966757145,-66.54549100884333,-20.43697578259404,-17.061747467605215,-33.058657706731736,-18.571701997052035,-13.160360231235543,-18.311184287562202,-11.024020920288832,-4.334672804806666,-1.35962442541474,2.646744358271106,3.808583978005629,8.119681352054519,20.141810701849028,34.16865197405911,41.4263576193355,34.24635469162436,23.138920542698983,27.069668820540098,39.71495609792443,43.627140089058386,39.14162950626171,31.968323287386212,21.275824354011927,7.413815441909227,-9.224710653998477,-30.02819363599093,-49.68000120894862,-58.164947279396884,-55.175963783656016,-49.52719837366961,-44.27243432077786,-36.71809703881009,-27.947505531097846,-20.240870632654882,-13.719129270657163,-8.415766207540557,-3.6188525069173245,-0.8735431412555847,-2.957355305915641,-4.286292428069476,1.0949422906955224,5.5392737380671555,1.643534100176769,-4.080062653072659,-4.524296461400743,-2.022864633115029,-1.6057640002861575,-4.945671454475232,-9.717748747037508,-12.937386874068519,-14.694310287597425,-15.81334657716708,-14.751253818399753,-11.741886378552017,-13.197683102378953,-19.464203941473393,-12.746085761249413,12.044323351314809,24.12747893107656,14.210982885137591,18.920535120175106,38.700948711088344,30.150086877288075,-3.2085773887713174,-25.387975932650917,-37.88847758865243,-54.5256356423206,-67.89669102698684,-70.0399124433599,-71.471176647727,-86.95212747838787,-100.4691145494083,-98.95485582161669,-108.96952997161218,-100.26646332265898,11.131773328398424,217.75023172723283,437.25278021574985,517.1724997509766,269.2197293433585,-133.58182955460472,-232.27650630681018,-61.77616348469321,-32.73899572652618,-118.62664987085577,-97.25387357464548,-68.12033681900759,-94.85788939888494,-68.29347164904237,-26.681407411552087,-32.80924123243206,-27.02790897671317,-10.290946522109707,-17.852091520499695,-18.372901311836113,-8.25266751436332,-8.5142583021015,-6.717256245617628,-4.227958251152854,-6.915988349428781,1.8762064219590107,16.165507439456388,20.35375409831946,25.228449079193595,34.37281773043227,38.74027468336437,42.47678630086476,45.220371534207864,39.56978868715521,32.1531735752917,26.11930199570359,13.329655819393135,-2.427794153566209,-15.617989329361308,-32.34342844946882,-47.789991771961496,-49.92827758034424,-45.01613564494238,-42.94609040336836,-39.34226796896631,-31.04358207049375,-21.974381068902463,-13.171150795325872,-4.660641459237569,1.7410443558687945,5.046572966544268,3.950914180800593,-0.120979835750612,-0.907057398462717,2.8029461163685117,4.641431819580928,1.2603105313500933,-5.01232315941621,-9.356633105476167,-8.05962910567277,-6.508479972888921,-11.313785735312603,-15.092363226924714,-12.39341121124756,-12.068034462696572,-14.684965615233994,-13.224284201077573,-12.885647123582027,-15.095112080176325,-12.599150645362219,-8.692027780866184,-1.9871097467402983,13.574482567694641,21.85599105755493,20.160731751797037,34.43259234223299,49.1145045394982,26.214916952053443,-7.676746438591561,-13.932193737817224,-20.20650513576865,-54.342893440741875,-86.24751067203202,-90.03725244315858,-89.45036772206103,-99.36013914796945,-98.30437307662396,-98.47735056304485,-114.33508741532243,-72.76534599983032,73.76977591387441,271.25614458752113,449.3439705082591,440.04058314912595,106.4575521717909,-236.43541858076537,-202.08535492768962,-29.461738669072922,-64.65954018137015,-128.7473341598954,-65.80474398249706,-40.02239058016502,-66.28467221338867,-41.503173862564665,-19.174328530013316,-27.815861848340333,-16.79508585247675,-6.869281852643885,-13.396675610061827,-7.563386067515401,-3.2789755583226015,-10.922873984778285,-7.442474479119803,1.7274151308726928,3.8024858276037348,8.843439624352559,17.28991384380841,24.13757680209418,32.49930244552506,38.44580825123911,39.899216571915645,41.98268359156935,41.46086775767276,36.85840098316989,34.910018121067694,31.59876051914257,17.22139253742517,-5.124710511975035,-25.46269301305893,-38.44879529819259,-45.61628695667186,-50.12257273537084,-49.140806490017944,-42.14881175266298,-37.76081586191346,-36.09659829468685,-25.686303450449948,-8.281488016811892,0.6740617637423192,-1.5479837114401889,-3.4525917661707126,-1.5926776791359547,-1.385635697230148,-0.5002972860605599,4.64003142357321,6.772748795369267,3.8772282101904008,3.5229924610041614,2.9937349049605775,-2.440566336237243,-6.293600988051914,-7.979863526359868,-10.990213543632603,-9.601361893378682,-2.9111725624540927,2.8484072084722882,0.38677028501230026,-19.639618183030056,-42.31141092285789,-38.72547320008955,-22.682822369378123,-18.2417739644874,-9.96401212832616,3.0883826917285244,4.9093647091415225,16.587576873587192,39.82694810385986,31.27540518676059,-6.625939864339369,-31.58884256733468,-39.055884799614475,-46.40856258205774,-56.32556297558249,-61.906805164045416,-64.8560265064619,-78.92839368041231,-93.26623126276033,-92.31062346298077,-99.71581723159636,-91.34890861226924,11.605483167376292,205.63074121644348,415.41564452464985,494.3749887976777,256.16742091916046,-136.39451714034215,-237.04051206704736,-76.54267076313161,-54.716011521780665,-138.18462955642048,-96.90080236401559,-41.94987950912234,-65.79026680766174,-54.83004302044186,-20.380441404235214,-26.53085409052781,-22.947462777295623,-5.992872202749689,-13.264898325047533,-13.648642896693968,0.059857328023028344,-3.9402889583648175,-9.379934854457089,1.8183367654769482,9.380937844296678,8.88033663444712,12.097773043033358,17.385910278888137,25.327103923871906,38.059337666527995,44.2576326643925,40.32264051236466,38.964773630595474,41.6962781789932,37.588562897729574,26.21453262077127,12.439989654016204,-5.883016139512732,-25.20438443631402,-34.38116146714383,-36.840754917737975,-45.225318367061774,-51.06339644771663,-38.34220428716752,-18.785915812998848,-11.106716832412513,-11.012317059345328,-12.889226477395884,-19.229677565099554,-22.853105120091875,-18.97399509996651,-14.325468301983342,-11.070840683834184,-9.028663627038796,-7.46240328822323,-0.12424359833810072,6.500076254401705,0.47213361362896933,-6.207563407847482,-2.9217494914072617,-4.642538989205526,-15.382650639645812,-17.53944897983088,-8.057074008202498,-1.6538132468176343,-3.6326673964559824,-6.424804884670564,-7.638189659786615,-11.936566336743397,-17.511577549778444,-19.845888078250788,-17.345379654631017,-6.199674443369526,5.037862967468509,2.6898536548278003,6.4260567779935736,31.899237272865232,40.62176787384672,10.612214736877148,-19.812826454060072,-29.167008555518862,-36.53343809621808,-50.26038046439527,-61.66637321811637,-68.97923758294255,-79.6668712206156,-86.43293526022447,-79.10856789271219,-86.33289505551706,-100.82081369597596,-37.80992824111456,114.97952801460404,298.496444533374,453.29529707425604,382.66613310091594,6.591569940683961,-261.24372458884153,-138.04482574408104,2.4346357073872857,-82.00261761724336,-123.54492070408038,-54.796833360887305,-54.53417624040059,-72.94495455682161,-33.89215136229577,-20.989831740808434,-32.87246030150267,-14.33243995092161,-1.210817873410953,-9.398090516059916,-7.055770801306068,-2.575533678819008,-11.612199647939653,-15.967704081451348,-4.605880927730615,7.412705906305545,9.640748081342904,13.695821158271883,28.971697271669687,44.95856819827692,51.859198279214205,54.377540509083836,57.20450484686117,53.72889938146781,37.76350487970205,19.922677927663784,12.266632181875304,5.827330640325062,-9.395727610135213,-27.50329572854259,-45.37271698460729,-60.17423643348427,-60.46191460020517,-51.16709437356684,-48.51035548858364,-45.7222055076774,-32.76463116498639,-21.260044558533718,-14.543575130621448,-3.73572357764111,3.18453012913729,-0.7483224069101659,-3.6532680101203177,-1.0512454900733097,2.398100371480952,6.971392489989508,6.1318542582982225,-4.196733727871933,-10.930106269745902,-8.586888650298821,-4.804379101693298,-1.8577799517909241,-4.878825818884502,-15.678056583471598,-18.832997084697517,-11.867989908305397,-8.38713128815882,-5.206144522985781,-2.9533138889869477,-12.21849886934399,-11.541976188182023,12.179533978067745,20.223472060954926,6.2809574273809226,14.000347152732058,32.297498924595494,15.6457871131952,-20.672367513213295,-38.01067056629621,-39.842784885860056,-50.24686975697509,-70.46260130739871,-76.56369523547934,-69.99142147560039,-76.22645342990717,-86.26433255036073,-95.15871781676884,-107.23198626844238,-59.082384136398744,86.47282869378544,284.5247168007921,475.43875003732967,452.2622858767289,61.09443585045552,-295.7912422591146,-200.85605165269945,2.3406134137166745,-59.550763319542035,-131.33778302856038,-58.70845286668108,-39.4503421016865,-63.85482115645648,-27.573337610538605,-7.796368618555494,-20.090827761027512,-5.340589007111061,1.3182711521017598,-11.089478642885608,0.034522337047718565,9.679115143024543,-14.966128850778228,-41.06174779281408,-38.45243146948581,-15.958907038525878,7.219986018073651,17.442914063447233,17.34942131749304,23.556588648909365,40.25445982993504,54.4776894215555,60.76838731685117,64.85154954775125,64.45250293555873,51.63687952405951,31.982675348009316,17.412713280474104,2.699585037017658,-23.64210861597788,-51.060171520826884,-60.45537712246524,-54.76023596802731,-49.25814326566485,-46.3078626828359,-39.373041693433876,-30.242449371003723,-23.54694922933517,-12.649027031257466,3.935711909027745,9.887316032400392,3.3828075106412214,2.012868124599958,1.7233425949782024,-8.967139664840921,-13.841601787642851,-6.447584632270569,-6.342800302636645,-10.71774838886135,-4.7658442898961155,-2.2212650403969363,-11.488126874698654,-14.618587540398956,-9.597351680412004,-11.153910198845168,-15.675447785272082,-12.764397412528917,-9.610820959857278,-15.35161630098547,-16.719499214302292,1.802763346191437,18.90669181861274,10.040626881936152,3.7305095323817046,26.10093131780242,39.30824726533138,12.675208917833219,-22.813469083539633,-35.733882192048725,-37.80751761512247,-49.96324673013733,-65.08530943123334,-72.13160936397651,-85.09163763790119,-96.51300462726245,-87.98666043393294,-93.94171055317216,-100.91198463248264,-13.319946050607335,173.9214208963529,393.960583951106,533.7949259655863,347.1435505338863,-119.0003584078385,-323.2474749161997,-124.42473361525201,-20.409506315573886,-125.3172878787511,-119.80003065067586,-44.35896159243026,-65.17987363008638,-69.41986139720267,-23.11057978108656,-22.262391964250472,-28.045640999341686,-4.3897226896992585,-3.2765678398665834,-15.6050863246954,-8.963311691044476,-1.9718248366898763,-3.5116595380468727,-2.242052890210764,2.1219608117243705,6.430945856973201,11.767731301721035,20.662735848210517,30.153119452575353,36.93792072884692,47.55154802665308,57.20894531221872,50.67583532692175,39.49324659733541,40.06810230519631,36.400545378718846,17.678698599261303,-1.70715765569373,-19.108441774359953,-39.7777593137363,-53.43249846347722,-54.644340630892884,-52.24329029821108,-49.840695096172965,-46.06797081950769,-40.59270418448253,-30.23759236288201,-17.53608420824983,-10.485024877758889,-5.6126716091454725,1.8621933928475638,3.8389491184639226,1.0791684940236976,4.470461365264644,8.163029658014302,4.472205498424291,2.53382847444999,3.163687922795141,-2.5951192496598825,-10.28654727089602,-12.954504157203473,-12.835762212990783,-12.703402143392447,-14.59253361822989,-16.623351256205005,-13.479922213707079,-7.924831177307784,-6.659188872942455,-9.935815305178231,-9.023761889736717,6.189540742574199,23.17082331919957,23.788905418691563,26.58593279953361,40.642998863885325,28.817983458186095,-11.208890156068033,-35.78656572890133,-42.54564640202379,-54.45039530799761,-66.04114635494275,-69.06782067530146,-70.26623725227802,-80.44716208852348,-95.65647575225233,-97.72657574725025,-102.68300712021332,-114.79581335768569,-54.510357431225984,120.89652634370938,351.23928046142333,522.8309403842403,428.04875193514806,29.482550933697482,-255.06758377003405,-159.81887845043292,-32.990506697085344,-102.92881430766522,-135.17728768910538,-70.75995006978768,-63.71042155031624,-71.47326595919797,-36.76945751670549,-27.8850347982657,-34.668652280629445,-18.253912302977398,-8.494643761659365,-6.835584966147147,0.30806973121552694,-4.109431372414944,-11.958851864710942,-5.38811450118677,3.4949293704332733,5.890219614000051,8.4726768657945,16.652620564203527,28.91741287727833,36.51343811888992,40.23381783670546,47.592238210266814,48.908788560652525,40.27810680388557,37.65594150886001,35.934933896156785,18.424568166975526,-2.1556683885373547,-14.573348171641635,-29.807044679061875,-44.82461142800068,-49.10472745010229,-48.29188896624041,-44.65591578646658,-37.27686287086813,-34.039822535051215,-31.499307180492636,-19.935088716410398,-6.732829893101371,-0.39306887209214736,2.5910618740174893,6.636975224832069,14.029157615516834,20.290533475831758,18.42142613349443,13.626279373933311,6.524654786137813,-11.986658042651806,-27.434063315161016,-21.00831182710671,-11.591000379742237,-17.10290309061436,-22.52500375653394,-20.516978652190524,-18.411818011002808,-13.388183500192742,-9.282427531496076,-14.978113981491685,-19.741427519452348,-19.012580407092262,-21.217056381539035,-10.157279855812778,19.801086243782933,30.204533733441863,19.43409393049214,31.029803211319514,46.46756176667005,18.842485189005348,-22.81350466216825,-37.396451578960246,-42.73486760924202,-55.19088902487491,-63.996646787267835,-67.01501750680137,-73.68161708686796,-85.80402813029747,-92.59420449373819,-99.90510214390184,-112.49960823229378,-71.85132007298957,62.86672600848709,247.61246583459177,433.9850837921404,474.9738912817321,180.1399150676458,-208.8769906566672,-236.00221067705314,-42.85552193240245,-44.0109301282099,-131.59647440707658,-85.03064343524954,-41.972661922690264,-67.24649143626418,-49.98975610558149,-20.469020018570703,-29.224431448679013,-23.577981620398237,-6.763594066867544,-10.631403193088854,-11.253639665873505,-4.034789143200442,-5.8584163430217835,-7.226893542414897,-2.507545337376478,1.6484626343103386,5.617902577253106,10.008034641881103,16.721611005933404,29.590537432125423,43.060279289051316,49.03073946553402,49.294860585987564,49.64271327301035,48.926929783166294,43.016126270449725,34.172864130737935,22.96695289968809,4.731991895015262,-15.510088298833374,-30.369076230112263,-41.64318031331011,-44.01626566361671,-36.84748808858099,-42.22311744671141,-60.77199903767753,-60.50202527761676,-39.09035596148458,-23.357409065122233,-16.43154528353643,-8.039205403579484,-0.1293282601497161,5.331222064416703,8.233562910366846,5.321402172702006,-0.9527249203845152,-5.174889088583257,-7.450158586602299,-8.381561982055127,-6.099522293708706,-3.072680147702762,-5.842056255809503,-13.477801635383326,-17.220919372914164,-14.874768013133098,-11.725937870138427,-11.400888748981025,-15.915761599390361,-22.02088761519861,-21.065243617748436,-12.677415440532602,-1.7793283841153844,10.274720863852107,18.205400294104603,22.633051526181628,33.788876245057835,40.70283750697598,22.752576089319373,-8.714403480759877,-31.25034027453738,-43.142638346497044,-51.61011111602146,-60.39342559302246,-66.85914225409292,-73.32041506678372,-86.04130250426203,-90.04943881236912,-86.9374166734057,-99.7403579649428,-76.70479049664448,45.587454673724636,229.2923746803286,413.4597853192473,460.31800379500226,185.62668536024177,-195.68268938710295,-237.22869306400224,-50.76679432402085,-39.69764569813288,-119.98821660694159,-79.50587559173992,-41.09044833518384,-65.40533377336085,-45.271865508784806,-10.009946835213938,-18.271311861427954,-23.808957037308417,-15.233971537190875,-16.15094539707687,-14.172680422630918,-6.389461896990365,-3.972265502454854,-2.882632352338679,0.9204989822089242,6.734091874198489,14.697163188531185,23.437740516770898,33.80401977229522,45.86193474684606,50.428785488457756,37.751368777254726,18.836797806734992,16.37215830449974,25.634235155355885,23.848146059527593,13.614448900428814,7.5577842855420325,-0.8089880225966013,-17.09019151436183,-34.87556061159906,-47.24859364299464,-50.98122200079617,-50.68120128082303,-48.643257932591226,-38.22474740725935,-25.528068642465833,-21.41430217653721,-17.246033449772124,-7.816014741772577,-1.1627233519547993,3.119642540573585,4.36478408620183,0.2738887310832574,3.010173006734121,11.690472373273881,7.511173912368739,-2.709476641624642,-1.7707332636316728,-1.5405355263957183,-11.13493200121546,-14.504476298216787,-8.94616603371268,-9.837629819098517,-15.661117424351684,-16.495139612050956,-17.294752344828034,-19.86774898738983,-17.141694653794026,-13.166619818311878,-8.200266262999932,6.8667457779357,18.60435780189352,17.010853041281624,27.420749667644905,48.03160951666999,38.38811735112917,1.5136809450553823,-25.211609197661783,-34.59958649895686,-39.9440062457756,-52.57825306736234,-72.09799391899762,-83.72668512768402,-86.56173275620279,-88.41607192016512,-91.07011288068125,-99.521014265968,-80.97248442909248,16.758389469511847,186.3638081645994,384.1000050378291,471.091798645867,242.05267785469334,-144.6059616192752,-236.8039998216855,-65.02534415723045,-32.02973850052593,-112.5720554116765,-76.90237488268738,-24.292333597320756,-53.87579842774554,-64.50451683607393,-46.10695164419152,-45.19791800084188,-31.946713990207243,-13.801518579707157,-18.713196608348532,-20.40313975318542,-12.926978590288732,-13.57961017333559,-9.269847069515922,3.8907761040082347,6.293701939663848,-1.8059201031769843,-1.4856164579019775,14.834502833302263,32.83617185094601,34.33324995918424,27.538120428563474,33.72849884826056,47.38365102517019,51.42092896362572,49.566356204189674,44.122169930448685,23.999474086080888,-2.9659844983628156,-17.74510357353867,-27.01543518061871,-44.11573009665712,-57.83554267270057,-56.11135539196226,-47.74300598605867,-41.432594262243114,-34.694075802472796,-26.998599690631927,-19.335918550558894,-9.178085528703676,0.9845320477896635,5.96997791107048,7.229897196274109,6.007076604483648,3.344124627643593,6.6943302317895945,13.104330371715346,7.042571175777734,-8.338002944101405,-15.519205987696278,-15.562638082207405,-16.688447299733753,-13.73555566661522,-7.676291826563121,-10.330808636973723,-17.94856624337787,-17.323299937193166,-14.742327817295077,-18.394952895128814,-9.93819858628578,16.558791768584133,27.657440130171572,15.537898500548337,17.257520316328407,33.8069104529834,25.66548903048573,-8.988385488414192,-35.87772407670566,-42.91480204934874,-48.58684205415025,-63.85981270361226,-76.13017883712885,-81.43090872404511,-84.8151889047032,-81.33357239392805,-86.93729434404892,-95.2307050546928,-30.238638112733945,129.77821199346545,327.07342944993593,474.3082997838089,363.4487345668042,-44.96527494579924,-293.99872648979823,-126.66685144565031,20.222644005596603,-92.07132984610168,-139.4680487376641,-52.83341993329361,-50.245913786912254,-78.54745077268139,-38.93207165794694,-21.11246935263321,-33.278559298144934,-16.15088788947714,-3.363661350511137,-12.390335245237644,-12.36432856603629,-8.752648200437484,-12.810957576810253,-12.618487454335625,-5.646606520756,-0.06270443170371476,3.2415567272245487,11.963867974083087,27.284824972414402,40.48273460178855,51.228382648976854,61.12042233418278,62.83282862612364,61.049792633229345,62.516408711723216,52.17479683842023,26.728377363707835,5.834366113964745,-12.20750611049807,-39.53582627302513,-59.66989050838688,-58.45228228811955,-52.88638655428454,-55.15088204952431,-53.58564843548386,-41.24067089148358,-27.182189828332717,-17.738292011178274,-9.774153224901234,-1.3885765954503526,4.467716982606262,4.925000042017107,0.563940548362174,-3.5742911947519023,-2.90757372481351,0.5583463220669156,1.8350025599107909,-1.5495796503365469,-7.648027374560574,-10.781110780811822,-10.634478554699193,-12.453834714137926,-14.583062474303677,-16.30011322287084,-21.684664388900813,-17.602344604018242,5.708944532094718,20.252867159733384,11.379392962122289,12.693508335165326,36.0444295184612,47.005612795026394,25.85745693444039,-14.565188449746493,-50.19656294957434,-66.41771182282127,-72.42968134585058,-74.50866749235948,-73.36941776555403,-84.84390025068186,-97.83564069750364,-98.05595846822771,-113.76174057021285,-103.06631664070171,20.505835141164056,220.32764516573906,417.86362681583273,491.5826495705832,232.865909176794,-191.60777965693046,-269.31645541496636,-51.83878082651277,-25.22817947635241,-134.85813558151895,-90.13843375385346,-28.496430778372044,-65.73999130968097,-57.679336061440814,-14.770269543495424,-25.775346516563772,-30.993355922692047,-10.479619560904979,-14.04005022884068,-19.180058873752824,-5.4453773215397625,-3.7078564012863353,-12.451766606988517,-9.654454507386433,-2.577709485100998,3.023068047718785,16.334713114080653,30.60142246128256,35.69387201671982,42.502417445426296,54.18515455219582,57.26146949039335,54.13423994869992,50.25621216126675,36.14346570538644,17.891978727127007,9.307393568961617,-1.3184397418944869,-23.83654671047598,-45.22635332823636,-56.71981597628402,-58.72043213375817,-52.125118171820816,-44.44081987390059,-40.01349214995744,-34.276180439937555,-28.990615036751954,-25.750512187385997,-14.698398342705534,2.3507801243174633,7.2526474027100285,1.8523124794035475,3.4903295976269533,6.09260585448563,1.8933730104323754,7.062104063557702,16.855795245951988,9.595919306411313,2.948868748673581,8.75651477782585,-6.927766690872801,-39.010645494014824,-41.37333574177709,-25.82597175688213,-23.38197667074254,-14.06371955764053,2.7735627375580734,-2.1561885871738724,-3.453855600176455,27.922942864258857,46.10371236102591,17.521629162930655,-19.6112605873308,-34.39250525637516,-39.02710112413228,-48.34436492699461,-59.46383859606608,-65.46880570041947,-75.12039432561423,-88.50834181722547,-90.01887965539098,-98.72691689907383,-108.5229802439519,-35.363377704407924,139.8428771407468,348.3840696787789,491.65161136805074,364.7867729846241,-44.57781038651784,-284.91070643226254,-139.65243789396771,-17.42297233160095,-103.22099968754821,-119.36067560370782,-44.8258196927477,-51.64041238990431,-68.43460315735143,-30.73019233691711,-19.18361912642423,-29.950778137318096,-22.452291306309174,-17.642401594391515,-15.758337182644118,-6.353553887905097,-3.048243596564296,-6.110652646124583,-6.928407854755262,-3.5869320263092517,2.9859995274638402,8.974564840711066,18.02157553112989,30.968868026659877,37.01138506865617,38.65254270283327,43.72723429889457,45.607005730717404,43.342385609322235,40.24465937791898,30.728252453179383,16.605356406770266,1.4843759773311556,-17.56517969656986,-32.50487511017494,-39.300533722867286,-47.43943268646967,-49.52116298124807,-37.27834099128441,-26.39748066603665,-20.269441474722292,-12.145596157851028,-17.41851963137099,-34.1018612328717,-31.15663251340863,-11.798876792526016,-5.104115995690034,-7.744814675192565,-3.889511525251468,0.1414975044629614,-1.5486296350600846,-1.7599278787145352,0.29057502141256286,-2.026291701205306,-8.048804703103894,-12.77230338686152,-14.808167505971237,-14.032525674046482,-13.233525183745504,-12.861219036237813,-4.1980019433992695,7.048817740421034,5.895286879505045,12.148322495601596,38.57992686993622,40.34605491670259,2.4640383758441864,-24.12198683798255,-26.343203171664975,-35.69950257304716,-52.894479248632045,-62.33640296334278,-66.37001211028539,-76.16105745695776,-86.78490495592493,-81.11521749926115,-84.88154066278345,-110.28504537378302,-65.27548886656479,97.69893506372897,304.0644258115632,471.09184905381136,427.3513221921603,66.40682718257035,-251.9721490005414,-182.37383596567304,-26.317204488738774,-82.59620834898178,-132.49786631300367,-70.47403119573102,-59.42120982740266,-71.65676600697098,-33.8474883739279,-22.906819017278302,-35.67338794401401,-18.022209473576215,-7.633664671978943,-14.64520371297867,-7.319144699183358,-2.5581060947360683,-10.412073899903252,-8.780064115731578,0.7523912392339751,5.129583586306975,8.667025460981307,16.88594624051928,24.976254040922118,28.7581595938153,32.99593921127998,39.34182026624302,41.84179263131316,42.48777838631466,43.328882101750445,35.730176833710146,22.356992917466172,12.82284831118124,-0.5374392187992285,-20.36952967642013,-33.335765555560876,-40.44029325400747,-47.42948263140971,-43.924810191852785,-30.96842498103649,-25.66924383307737,-30.21791462703164,-35.16354221591895,-34.44644535625591,-25.26047012445654,-15.310452965078099,-12.570000157085431,-7.467450004650548,3.5303077395408273,6.260112306509505,1.5415813700821683,2.056068999690126,2.696119053856739,-3.4275907450664977,-8.944399083830472,-9.672010779276087,-6.825011606318938,-3.760186438744336,-9.660943365423385,-22.75635882421417,-27.964249567175063,-19.092439277806434,-0.6448630966514841,14.418249068264132,15.763739356076613,21.64730991393479,41.97903627906111,41.866470136665015,9.531043419217664,-19.96097389176181,-34.290730162962085,-44.2838450690773,-53.20812436520312,-65.27763390950064,-74.32072100791859,-77.93989232035992,-90.30947003575284,-102.01333334409372,-105.64053337410698,-105.56152197647597,-50.42518695718961,105.78391958063627,332.0024968654179,522.2524494700401,444.98848696077437,33.416208467059874,-277.77292977238346,-173.78703277649294,-17.72039561123976,-91.61653909644957,-139.5672922766948,-60.855167163271304,-41.71465692508114,-65.11826078471945,-42.17161828822118,-30.398683541371707,-35.927024022443504,-17.219653470629407,-3.372100995941789,-5.341855555231383,-5.266641014671439,-13.502016494687497,-21.910738686994996,-9.983838700019032,5.607837280191351,6.98418212563693,6.468313357091592,17.300366273874506,33.878189465108406,46.863777487740066,57.02515113478778,57.619403745345714,34.82811040765408,8.904453628523182,12.812691853384973,27.9977760387725,20.4748099257361,1.582075548886679,-11.043631284818039,-26.31575763263473,-46.95583039400618,-57.75467121535545,-47.63908160574305,-33.29170127195323,-44.3422668995583,-62.73237946947068,-44.54869184730138,-11.189676800621779,-6.327881912963917,-7.679528192835978,8.592047965431805,14.327984117443933,-0.1408988760529084,-9.386803812249497,-6.248490405666807,-1.302085151988802,0.3769653036787304,-3.7128652203876698,-15.795763631384197,-28.150169728778483,-20.5297431526813,4.483345638394454,0.9590307865969265,-41.931719690933754,-52.11958581864957,3.090596363782666,41.08606050110918,13.279773151709186,-5.954689269213786,21.509639613452546,28.376287091324503,3.549476600005347,7.63804199969625,18.349702676995317,-20.835894119585365,-70.59181531880648,-76.09410357999414,-58.86603654682144,-62.00068140684645,-87.89351645120878,-102.42538237189717,-96.7316105355511,-93.66850643354272,-67.6132704500993,37.03642823162832,243.14989429812564,477.8560479815795,466.6157223097888,69.68138801088719,-272.9911304834037,-179.60434521019425,-9.167859955238608,-81.9565327710938,-130.39261040012002,-40.172593837884904,-18.706024305258445,-54.96777686078306,-49.27203801231834,-36.31607217230674,-6.068084019965873,31.591474065484142,4.554537383869771,-35.44226921518847,-28.737952841804127,-36.325032201681715,-55.29532537931267,-23.893442106689474,16.162297640795238,12.4904657636197,1.4832673596988624,14.140247602499933,28.95086197230232,23.554244122218,12.9799122213186,29.664953750597114,58.632943916619965,60.493633026605565,51.81053381143431,52.67123821312522,41.14912569886006,26.402819719829083,16.1867613875609,-26.401475136051367,-71.74965372100158,-60.61693870748021,-45.46867283326395,-72.01382316324448,-78.50013010531814,-49.92083197942566,-36.88386373570324,-25.92225725703495,4.488934264283344,14.004197192069409,-3.7262034615800346,-3.2006214247608487,19.14253592889271,28.98343642347751,13.922563408792413,-13.659501774065703,-28.405593798372713,-16.532544376277464,-3.0683064789113494,-10.460137905664649,-23.61097623993302,-25.55202493972253,-7.643251197481691,24.93512666518445,27.303007503033786,-9.890572527134522,-14.366815051059405,28.931191623791953,43.813031869014274,16.968115400504075,-6.720486161336623,-27.46654639791205,-46.78898233725387,-51.17772725399098,-57.3814223893509,-66.82322539114243,-71.46925372922185,-89.07799871484842,-101.22800722646525,-97.03743341121752,-111.39344344792066,-87.74383898218308,59.625740952410936,292.206753172195,508.86022868011537,495.79790255781245,96.97684606603033,-295.36911076420563,-224.04511970497498,-5.790129994025557,-52.85119810123782,-126.43729817640752,-52.599159884949714,-32.124510143955305,-60.904283218297074,-35.203948557829015,-36.49670537580077,-59.641469611413015,-32.741865607734205,-16.282307440312536,-29.872570359018166,-20.11536040157231,-12.237291410974642,-23.904431061434174,-15.551755238842809,2.992888050202847,2.7141123316339293,1.2510025953697315,12.549941495720184,26.768313916419327,40.59144073562834,52.38386778734345,55.43307942308398,49.83126546796663,43.6412553321436,42.51785244070843,40.05964416832188,26.73600031545654,6.431490846696974,-16.13983721996458,-43.246379289847965,-60.11574500365772,-52.7376933987784,-47.553371801420646,-63.135037916107876,-64.33262980747398,-35.9055787381572,-17.353516286114008,-18.15478094566328,-7.526535126177404,8.497070313282855,2.5884392132106733,-14.944613935637719,-20.22073246838802,-15.978016287169183,-15.074453584744049,-11.458586040961858,3.1233932432891276,9.79314955896044,-2.468208671049151,-12.949632564596982,-20.418324502995645,-27.934910485030134,-5.8607297188803145,25.705951564195914,15.491803138483071,7.3416551713263996,39.644178382637705,43.63811888643901,7.044287945490112,-8.489082931607605,-21.843562451126637,-56.93951291467587,-68.73691176235235,-58.763943025601904,-65.52464422343476,-85.7081268054143,-99.4694284404808,-95.10322975456734,-103.55984118003701,-142.22813028274382,-102.41276145379265,87.44837202118784,352.8272524544318,602.1840187757289,594.4355466712132,128.64630459087067,-330.9321649709361,-250.92997664899534,-19.76901635391071,-102.03644808307337,-189.1278159987934,-91.37430367768516,-68.59057511894547,-103.57510097082692,-53.38809825484602,-29.862965162648102,-50.862698136367406,-18.691813442101704,6.995091415654505,-4.790453053287113,19.37125561608702,37.61722310831772,-10.463488843105994,-42.395364638690765,-11.95249257178194,9.510921037745,9.378273299777547,30.35611904517358,46.85446799441307,41.299969643763355,53.206101792169235,73.8933096921651,69.53903315718205,59.588175124756035,56.21492986953407,43.057298354799364,24.318286838873497,5.422470393560005,-15.623696733430402,-32.40675974818742,-53.56797193660458,-81.21996304198582,-82.90349265011236,-52.11416052013681,-27.781596958541392,-25.199239379171445,-23.72862246313852,-14.671931170662031,-7.769018797665808,-5.597078057078754,-1.9983886481419972,1.835322184934732,4.234082972552436,15.39876275906054,33.026037884351524,32.69673657426874,10.389297684181072,-8.835958071738183,-14.73072760055968,-17.15712696213361,-19.01094809848548,-17.437830573881055,-10.38102345358422,1.9847138109523446,6.452596583117668,-1.9838447503722847,4.346333529534955,33.32437000409816,40.793510070858446,10.155768739332206,-17.313861891585372,-30.527352382234653,-57.17825927293605,-76.61106287618746,-61.82315800168676,-74.15534099892879,-138.51072264015488,-152.4502940299539,-116.86352279142375,-148.62717391675278,-152.97167099637647,39.58702094125758,351.7510003765191,642.9864454974588,713.0217679893669,288.7608565246853,-303.9018541515813,-367.5586620063499,-83.28995365412001,-78.01085884418674,-189.51311517733825,-98.67049876193398,-39.119984728659375,-89.77678324206865,-61.61753388022176,-15.44455298601595,-29.186982071922223,-22.798642103223997,-14.5702415283967,-35.888253757367714,-33.602640174485586,-14.213789376136322,-3.831425470686165,7.801451998881813,7.691166444879699,3.522781974098659,21.094736693616127,37.164821692561034,41.184384407789764,55.405997265524434,66.86116909442956,65.85233137358212,72.34578316460883,74.76636095329161,56.97106186789961,38.53104224333503,22.64684930150895,0.10702629515077788,-18.315215162773086,-37.518611758284344,-61.77707849914254,-71.07884328833563,-73.13740771192838,-71.22712850935193,-38.97484946375852,-21.917019348471165,-63.008926956640344,-64.61637936902247,12.297063102699767,37.58500807869658,-12.31731648801134,-21.003441275471108,9.494466798257935,6.040497987411094,-8.622798762327598,-1.9320911940026235,2.1784536651225217,-7.570342841589589,-19.598558439268785,-22.08627331543769,-12.160112558722737,-10.208223393763692,-21.52402785741958,-16.196402519052917,3.5217712764997877,3.3138513409398787,-0.6054833449623827,30.6249386294773,65.14188625260228,39.133096692653965,-29.182979175703096,-55.65770396234223,-35.13647338618554,-54.932678870950696,-105.96826649768387,-91.30597670755506,-62.45323299192263,-105.54077916302367,-119.90687589878173,-83.54268733081577,-114.76680753212977,-102.7247179192718,111.33051642764596,419.6114001835357,656.1644601759608,563.26824867443,-14.463373905834544,-480.54714987221604,-276.04754556081974,24.82254842367076,-96.15553331570769,-177.48869658514354,-29.52759324800818,-22.283408667892047,-95.61187605101875,-38.106480606900284,-0.07257136954902421,-33.88967432509166,-24.32604696467882,-3.261215417613231,-15.307232073092223,-22.74897623313844,-13.196122590201607,3.8806172739926765,2.7595366370647545,-22.149714415122915,-13.450148592051336,35.451409925653394,55.05092926346518,40.64850325425138,50.53573919589799,91.31049547574827,112.98815448180432,90.63907810287147,61.81526226438706,56.475821167819596,44.218847496017595,10.19406410138096,-16.503877103323653,-38.09467930886396,-68.26168770320987,-80.29841046519563,-67.85693875346769,-63.15459262151016,-70.02884520699594,-69.81042542882155,-58.93767142100681,-37.6539286292759,-14.528205398187062,-8.37962995869767,-12.089773275800411,-4.1918537068956105,4.65574185412202,-2.6234902598236793,-7.226784424016042,5.165013244918331,9.38887126502962,-5.284851903412536,-7.515838801744202,10.953329678245973,17.68296425220656,9.609862360181218,10.936719751955255,10.398684420556844,-0.1680812200641384,15.127426645776426,47.0475328960663,26.38564014488908,-40.492241673769676,-68.16824741751283,-47.65754326953184,-53.40107664336024,-88.35473340247677,-87.99753247091756,-76.5770817717277,-105.83649482394173,-117.61894174635839,-102.91714965317713,-129.32933981316276,-96.76513363650997,108.79912441681309,393.2094155672861,624.2878676053205,562.2870685226408,23.97251718336527,-460.21619435418916,-296.5641357553584,36.55345726376403,-40.693574136430854,-169.95230508460062,-75.51931666125174,-30.181966525638742,-55.54053838894875,-20.70079209025028,-18.542706628065996,-40.16498699839498,-8.280085549956764,-2.4918761790997994,-32.5639262506677,-25.585952645611357,-13.545315839406154,-20.336213995717642,-11.964328460540582,-1.098188635835853,0.3587758739997646,12.091157681136465,28.131982370164415,44.234225295851175,69.44721812350761,84.58065441225193,78.67280796383959,74.5530563701303,76.49385191275462,70.25452150771896,57.588480756072784,37.15367266301252,0.8181887508795889,-42.76818598569194,-77.8940506957934,-90.95644150980725,-77.3756877446418,-61.37965152116978,-63.570087145693094,-63.24276576209475,-45.649145256128605,-29.918373524843332,-20.994776547815007,-8.691909899070563,-1.427775611981275,-0.33818729453906116,5.717887551027687,3.8752782559572196,-7.603361501315806,0.3384465405041297,15.748644313591845,8.055692640183315,3.228580559140674,10.600886273385498,-5.282694415920304,-24.696293960673437,-18.65928374630267,-20.261944378533038,-28.180257253671815,-11.788060981716372,5.6165386929363805,17.62998371644202,33.8359694939598,8.962413057944957,-45.31330243328993,-56.827501091119004,-56.64253995596995,-87.73134440527221,-101.57172872789234,-102.72649479525519,-115.82733370974925,-105.38585690801824,-115.34839739710716,-152.06231874144714,-45.5233473491495,247.62479770516174,574.5862102494674,735.8962364465037,440.57362432071403,-206.178366455816,-467.8776101305844,-165.85592103233733,-3.1741036343544806,-150.29868027187172,-156.0447631828158,-54.09827794216105,-68.84479231493363,-65.24903139955097,-12.875218209759172,-26.71427002200601,-35.454486087247524,-5.532049866068462,-15.774952301074046,-30.540124969743616,-9.15964405824205,-7.9574861816155895,-25.762416981395535,-13.590317072850214,10.969336122883188,17.651447734155784,22.928816476628626,38.66160401761073,54.041957409387635,70.12088796886388,86.60649849807712,85.76903945951275,72.35066306554555,72.25879455019243,75.88007171805891,54.6367442090219,18.86575931246797,-10.303616313330181,-41.389038826154426,-71.65219124384626,-77.7508565320349,-72.27433569850716,-81.03756252640328,-82.84787953018309,-60.320371397704726,-43.80960970243401,-42.59194323820473,-27.441805534419323,3.006848036986092,22.4758473016389,17.941690457422403,-4.07748313976624,-17.645161220245228,-6.58924165593503,1.2662894691316993,-16.034637893425433,-29.38314655936537,-15.490061384935021,4.259970621280505,8.988560442883443,3.7332410092849564,-4.102338600768782,-11.64392167382043,-9.696794778586492,5.158526052831883,20.134442721247975,25.442626613387574,15.580980491507617,-16.482722918259764,-50.62815861824484,-61.38691564818606,-65.49644804026713,-76.32558976938202,-89.38994342157957,-114.73424988521674,-127.32819441864841,-117.34382689536274,-141.82269920451407,-134.42015688860585,46.099847787442116,348.84526942033153,633.5868242003891,685.2542766799739,236.8126813471443,-366.1165212896713,-393.12569067112224,-46.884529044610474,-32.926399326342974,-179.02714154674126,-92.49217046010233,-22.969572793905115,-88.28792413511705,-70.16429868023894,-20.086889077598784,-37.94237292800718,-29.334665363733375,-3.673659755473137,-12.76348986555117,-6.423861464743853,8.043752724738706,-4.816429910956739,-11.987418256753907,-4.87092685005662,-2.8336915470497925,4.254764273820925,22.617994095097934,47.2542548619999,68.50491260038592,67.79048843939184,59.10853489522768,71.09975110302419,82.30864384695967,68.17775333524406,50.1297856769806,36.02545741982895,9.928062019233684,-19.434936750284926,-38.98008993037989,-51.7740873707042,-58.25961974241433,-65.71421133879915,-79.3071277360525,-81.00869896140549,-66.45326810105317,-51.893725876471336,-34.50672501740221,-13.850562912193247,-7.842384017521347,-10.409071063251467,-2.7538122907265468,8.013978588155105,11.830632809052927,11.407398287862769,4.528837871852254,-6.33737372591856,-5.573255113540274,5.689288877762774,1.7907558184157253,-19.380494344986285,-24.35855824739497,-9.680060225345823,-7.742338666027528,-12.820897876301924,0.7895230623498684,17.00935824498012,22.107840898978793,24.942765232920934,7.034019478846801,-32.8917458784518,-50.71092053632879,-53.38609809787611,-75.8039223110694,-90.66957851775027,-97.38560732973929,-124.47596503299516,-121.78638344768444,-104.88632650398091,-154.09946144878606,-131.4540732182957,114.05583809346058,445.08868498055807,692.4371859292831,659.2628796729093,145.51809150212742,-402.9601671017641,-339.2191456456334,-24.974238095920448,-76.78862147395385,-200.24869630548818,-92.38581001289083,-41.55579647529778,-92.17996061124042,-55.68710554192619,-26.639194257702535,-51.57137480636135,-21.54732523376907,7.6001084584154945,-18.431137361506224,-15.910672542278432,11.324575330933671,3.075900910611626,-10.469111792819229,-3.011139913395087,3.6410013586093894,14.030855180240904,38.14885979179196,56.58238380203027,60.668341283412545,62.4793663434574,65.18354959979978,64.92170576618975,63.12507997549173,58.208651467699625,43.73064229269818,20.75145557200164,-2.9501597503264207,-26.54309940698445,-50.76405164408183,-64.266847796431,-62.135656441641004,-59.07505732301922,-57.7693898810362,-44.83257190569398,-29.314855699677707,-28.358566874435482,-26.384097640160384,-4.181570852428177,18.55981954906841,11.919145919703869,-16.03811836316278,-28.668104891633426,-13.862171563834906,-0.8705285311629041,-9.20606684200542,-17.30479057841143,-10.190118973459263,-8.509960512968625,-18.99961621220418,-19.809152712303458,-14.77177857801827,-22.425797096710188,-22.095140712369496,-1.0078087739513961,6.973705075467159,4.047653008495121,29.575159565956515,57.68263689582694,40.53599305034445,-1.1313511947488628,-33.25849456630022,-50.110034618422944,-57.38571975004465,-76.24687471837134,-96.56173149316753,-91.91377624482027,-98.26843193694181,-122.96273939705475,-127.20456288482595,-146.76045336007067,-147.20753094457663,13.46870260365182,313.3190116711702,616.6785290640287,727.8607033137051,352.32235257185664,-276.1578134476099,-405.55282831289827,-81.38932407203012,-26.831541758839876,-191.7980899364195,-134.91001698397884,-42.3266018678153,-95.50906292512768,-78.71573771376787,-5.157658457642398,-24.496778719176806,-41.78917512878094,-5.685169055047284,-6.422607926426057,-26.734528368974075,-11.609929979052866,2.7262587825164886,-4.725829679403379,-2.9672239519264725,11.758284887808376,20.659128060801375,28.222340930910143,46.92028230456584,68.55638577856558,73.21164113360643,61.06202305071116,60.65260932737079,77.89311723389079,73.58263915931593,36.09507633637331,3.813297226422494,-10.337821440225218,-28.5132962794508,-52.81079457265283,-67.0723405029667,-68.60555622631485,-68.14539914837299,-69.2754303752498,-64.59901452250674,-55.29462813705985,-44.897646413370886,-24.715159240836677,-1.8034499906806616,2.7743870621303515,-1.0590759514832015,8.202630643772642,17.10208425151732,4.50536156635966,-13.214695177391304,-6.361835001171809,9.839627844234439,-4.555104187010823,-31.316264365770706,-22.255741387214165,0.002557399450658693,-10.348888073067801,-26.73006003186555,-17.13011548986433,-11.568817649430002,-23.93420600944927,-19.375051199297197,6.398966436663223,19.49836064616412,15.948967149819623,18.072194599968096,26.13130770320679,18.29934850590472,-14.150148938613409,-44.234244104161384,-49.69474370068543,-56.378193264065146,-75.58926892646105,-82.17905734795542,-88.95332686707015,-104.23148846674223,-107.95505365589318,-128.64867042307975,-132.6888810381086,-3.4871972320536173,246.00061418694605,533.8882498951438,692.0935014812937,363.7927244066279,-289.3217836509767,-451.08087062281334,-79.8012703037974,25.598855664921025,-159.1928077413904,-122.33316906091687,-15.102742284999152,-66.32150856803166,-64.58683761726117,-6.995089684698186,-31.845446356782006,-31.771312526121033,9.844197024310251,-8.03120586810895,-19.391290357170206,5.915989485127836,-15.261148914321224,-44.46119760574568,-21.686644913532874,-3.8123716092976663,-5.034912678081049,16.087533290467725,36.44137115063354,40.89262255891906,60.81739421319086,78.03820229036063,65.70844844944853,61.13604165010193,76.45924612760045,68.85246302358,37.96540795651741,18.074151684786028,2.933013295972507,-27.563092306004258,-62.04062033026682,-82.14642027905954,-86.41659621146258,-80.5428135131611,-68.23023551016843,-52.64163450292173,-38.177655044314704,-26.268602191776015,-14.58243637249538,-5.10879543183076,-1.0648875391329504,2.8299518505896266,8.237529749740158,6.009194409150192,-0.6333926456154444,1.1033989751651632,1.4585139863679935,-10.6422149239578,-13.385900131607016,3.346566194665538,9.115599545118897,-6.486503822798806,-16.519851982612767,-15.23622052346552,-19.80820579263448,-26.25127896339908,-18.552335739424414,-1.2714680777585734,7.1157619802308645,5.033795080026305,9.932906422408566,24.135240256015706,29.34479133603932,15.031533817536578,-15.178446956702988,-43.19516824601253,-51.35110707774553,-55.077445178396026,-68.66440751667923,-81.97501690495798,-103.2316962762921,-121.3182823875012,-112.0740957798763,-123.19387397276785,-139.64069675966658,-29.224646452069194,225.87998786296941,537.2747860226795,716.8397646441131,409.5802215394109,-242.03980462167988,-439.3114133927723,-92.94304533462054,23.936348185176236,-157.91270488877242,-125.43822867863543,-1.5839737589241594,-58.77193695374547,-92.76365625253331,-32.10291144034407,-34.75932830885016,-55.59248641449672,-28.13795256301696,-17.59814588165503,-24.126813290618323,-17.04608369652632,-15.915696479211682,-13.600792472421592,0.9983220426196837,7.321687318925782,10.97446420616839,27.662765824105186,41.41640465134263,48.998070513879014,64.45237889491412,70.2837466292867,57.37117462575889,61.49455869480356,81.36018501963929,67.38029777284862,28.388488015371173,9.123291443972917,-9.940551989123744,-51.83764085559533,-74.16903066224327,-61.09097192479695,-57.05182857000004,-70.63912331622747,-69.87337343072883,-51.73729968681615,-31.250342224427765,-15.383906569197979,-10.82193078382592,-12.060168341529977,-7.960843798966312,-2.441572223967718,3.3056851176641224,9.72384374325226,6.621572617859588,0.05484298448305225,0.4475145427130691,-3.304296970600996,-6.169450908686564,4.237702327801429,4.719970825609769,-12.447441567541343,-19.141522047007385,-17.148045146348586,-23.27917513676035,-25.813143575531964,-19.57994370295992,-12.929547025689713,-3.628725486575828,5.75886152671184,11.00064164010139,18.25881039156411,26.413547015274524,25.27180536951443,3.87354600081823,-30.017853890196463,-42.88612679801993,-41.015493158407665,-58.57144471109957,-72.05672558820513,-79.25173504713614,-114.25534608886184,-120.42971376996815,-95.09051171315357,-134.23146100285814,-128.92884199553544,84.07208499684172,405.4430732736491,663.8990212704119,616.9265763842495,84.34629169442213,-415.72162012056793,-291.7818416205514,-4.7098396850469175,-95.63716196887702,-190.01384375311682,-67.31128167679057,-47.96029223406008,-102.13595970165798,-41.87426538281275,-9.203137867979642,-47.587420479405644,-26.868069145885848,9.035560259104678,-9.523722922897655,-21.696450050979074,-3.2763416737559066,4.404903889782837,-4.868998919110179,-2.2700847080741986,19.54685459997932,33.60631822207573,31.398337641000182,37.51542144233348,52.91813205816972,56.25887021880301,52.20674151542864,56.53437716281929,63.01971404977343,57.9619032526479,41.63532627488953,22.276605866561,2.3902005082669353,-19.35937480211025,-41.31040056531882,-62.52134147245392,-78.8657365372452,-78.14706442114436,-62.621063494400296,-52.85448940938218,-49.59170932695437,-37.60852081371075,-23.221119417307747,-14.376612920351207,-1.3024256132921366,10.342652828582246,8.00369998846697,4.518717981649079,7.174414546327586,2.866739607173489,-3.3705703258520323,2.8778537796764283,10.198387468700815,2.6649231075575948,-11.355361837289912,-15.19706116102319,-8.064014096277273,-5.003963812681519,-14.129657149920995,-20.505907627578758,-11.22339058081604,-2.731744221828688,-9.004266819755827,-10.447976574218636,1.5766025304367624,1.1587782089436836,-10.144463314608737,1.7617356120269019,27.97813368141958,27.580384486769244,-3.3765066153119534,-37.0711583990841,-52.275231417021196,-56.49341336347946,-70.05325363499868,-81.18247220546824,-84.63921891168485,-107.59750389889041,-128.95577987610187,-130.5694911047717,-147.91616445383983,-112.77835804550145,80.62420401091737,385.78056192409554,678.5637394854951,691.250471016299,187.5138914800731,-368.86120909318674,-328.3960285259874,-36.622905614249305,-84.15640019978757,-196.39694315205332,-94.865079363842,-51.03522207212603,-100.33899354985664,-61.51185200559986,-18.680804778532956,-29.677190706288535,-11.766590509079114,8.383030290584092,-5.935931708331925,-18.37208226220593,-20.03622785932293,-10.196612235793001,3.241735174496494,-3.858595562056208,-6.5605546820188465,16.93674775882777,33.197820402575736,34.219069554684,43.83523343446313,58.35750454044896,63.455783097057626,57.23533380198702,47.557413144967505,46.83237292879609,46.09437363848758,25.73415100634069,-2.8810607777002257,-21.078779013801736,-37.71607483458867,-59.61361420529248,-74.79145624239595,-75.19347557324224,-61.563525910463106,-41.781990830339225,-29.527105461294752,-23.52308870162091,-11.554534354737257,0.8085844697203086,4.02210117444603,7.171279568213975,15.591487571634508,19.53902196995209,12.893041361883657,-2.0940474939997777,-15.777016419873496,-17.51316399752316,-12.916212723798745,-12.553663527068842,-14.357501801799632,-15.857735082791525,-16.18350213442338,-14.848294192682118,-18.381938601122936,-19.12036759748262,-5.920444559219103,-1.9682128655836344,-17.755395559415398,-23.567091532372082,-18.567003759383184,-17.00158155653496,1.0604565199835765,27.17064299214806,27.333172587673065,22.756001908325235,35.75284734467506,30.202698245450257,-8.789598882139373,-41.99529579457991,-51.37320234747533,-60.224106265101355,-71.49020596900712,-73.04198984456659,-90.23275773355554,-119.76302653284355,-118.90135475422042,-127.8060415860457,-151.3011284356548,-49.170136676034765,204.23915747842773,496.1088407919502,692.804407439762,484.96357503834884,-136.68237447796486,-450.117500869386,-166.4574446196553,16.654792169874945,-138.01376665781953,-146.73227326129376,-29.052143822561753,-63.48819470199141,-86.2306261461533,-21.124753430326102,-25.653183581093344,-45.25502805219683,-13.080530851973414,-12.68600315550443,-25.673459173052464,-6.435934494157653,-5.685564099530879,-21.14253852738184,-11.164884612245128,4.715486125022709,9.567255312823361,16.10534066804877,28.716618445075234,49.68309012673619,69.92105516334951,72.21096390669757,65.69547474633119,62.04103199110142,54.73928238218062,50.348115161478844,50.141016762769254,30.483696978586217,-6.259542753242634,-32.508891848102806,-46.60747436987755,-58.60156792583022,-67.18120354979999,-69.63567114391587,-59.75748227617116,-40.38293570168084,-26.885891732352995,-15.734988430349333,-2.8599308374430734,-7.595805023040967,-23.61744639432298,-21.397309626323146,-10.054918276541468,-9.972996666904944,-9.237421412721577,-1.893481026024947,1.807251098056529,4.177996807705508,4.694194317442303,-2.3858768176581044,-5.727565906406376,-3.328753592937815,-10.85564631607133,-17.93503045719129,-8.582768682833382,-4.800408934752763,-18.324168421651912,-24.226975126476923,-19.276158672124858,-21.709882258219196,-24.518245489299307,-14.60985829992974,2.390055517315071,16.606484216158925,21.72884613814049,23.716297130888535,33.388293103121924,33.9704112395494,4.382933715478064,-30.64973658168894,-41.52267295666047,-51.63591729876485,-76.8752119403157,-82.98100622211578,-81.11107628030265,-113.11625286401797,-130.61488460353914,-113.76639794432586,-131.22992007769426,-104.01045974545148,98.12787316684583,390.76017485006804,632.4884526402425,623.0248603865117,144.63551358652154,-400.67649847246383,-353.8573973382848,-18.378291679134442,-40.48326469064248,-179.75329601704533,-92.63730016062422,-34.74162182828128,-82.21856180933158,-48.018879039904306,-11.337185313815272,-41.6590099905386,-33.991314407393475,-8.988616364712762,-14.155628725354362,0.22876206638270524,11.375493244841865,-16.642186396835484,-23.742261140238224,4.143154068565338,14.14509067482781,16.143219330011835,42.611810908584076,65.97680728640088,63.5516542000242,57.99945175392442,57.16047177521216,48.905490028459496,43.14054126337541,48.856154816500464,48.176922474748224,29.28496763437911,3.3464428096740564,-18.608213933447136,-37.929233830388014,-58.28549901513953,-74.64584873576932,-81.06006445137233,-80.0797929954902,-68.71443522883683,-42.99645166893839,-22.46579426719415,-21.37108875640528,-18.01850513029605,-1.3535670444402506,7.740439443562348,5.782472345303024,7.687760559140557,8.55533749023445,0.655357021422061,-3.6929628110527197,2.4214802594627507,4.601721304472507,-6.799009634030014,-16.657954874107848,-10.320755909933702,-0.8879909804166104,-4.0079506965441976,-10.458921466913209,-10.404770408711759,-12.822807003888272,-22.501343660977895,-26.37570167010984,-17.187368317271627,-9.308953199709986,-11.064821620171525,-7.619911026499382,6.038695958269821,17.753115962792428,28.139596840761964,38.41884013192541,33.90280801367553,8.696341504553406,-24.19888563499662,-46.27798272041926,-55.900665680662016,-68.00669886891723,-75.1727995873277,-76.99258886344424,-101.47587784775168,-117.33524735231192,-101.4160644105523,-121.15076708649107,-119.21498522031692,54.964619797558214,346.1755806888217,601.5424444407325,627.5086882697427,189.82417576834763,-376.80894044000377,-375.4878825017721,-16.407012272150325,-1.0447338168071099,-158.2175837345506,-81.83866536065216,-13.506702672433434,-89.60774688475048,-91.03204486223177,-41.70964632252468,-42.031216011390484,-20.614175559598664,2.727734638788709,-22.5649729040035,-29.604762442902135,-12.913742946764298,-24.063759168335316,-28.737012323640272,3.2252960162188167,25.951217369833596,18.94531467371398,20.713781332742787,46.29698872283268,63.19390641863966,58.70507334561344,58.61745741204645,68.29631927244941,66.31151598905547,54.24603086625649,48.10892380744196,40.16618730824333,17.940327846581205,-9.380084460221287,-32.72963536096476,-57.84285908440541,-81.81463822886631,-86.17556825133005,-68.3110431287873,-51.400294189073946,-45.70098396141482,-36.08828516707838,-22.332338665072584,-18.750370182563685,-13.590509067808137,8.215615500628696,22.986423270104353,8.161314818277903,-10.579276763662216,-3.191745678361613,9.9696960277913,1.9062702036870398,-3.774703052566281,10.88976839557898,10.338107741593475,-13.599983661677188,-16.889084721183306,-1.3026706405871025,-7.759476404090741,-24.775730471598756,-22.558401774815735,-18.400764131271366,-29.376687482966023,-33.82156498445291,-17.354713506315854,1.8797993589079365,9.997760243975202,16.526217210760812,25.85315216501867,30.621642456180716,29.773412584715494,13.42103980706084,-23.41886832907138,-44.82946662907881,-41.14009663063105,-55.51743827827011,-76.7760518648466,-73.73285554445619,-81.16084730195035,-97.41563352736054,-101.35282349840321,-126.48127339555066,-102.69716779106021,67.49780958877548,308.3473906968439,545.4059817773267,612.9185272395985,196.59660262625533,-389.69740009535144,-392.48015250407644,-24.03264339044223,-17.099032265982736,-179.72497548811307,-90.94564970535805,-14.523044895137474,-86.78489663861457,-70.89017104501377,-7.941341408937991,-26.523233294073698,-37.072727494678446,-15.332215587682045,-11.325687735685078,-2.6692946194817466,2.353494723266098,-12.19109961771676,-8.392520785986115,3.623424966071003,-7.061507534275019,-3.555592660914673,31.798334531182086,53.196910381455154,50.07206730222753,57.159056486075954,75.77361116591756,81.3134261483723,71.97815795204787,59.357527841589544,50.39141410011178,43.35467187757577,21.840645739532214,-15.018536844360515,-37.895241790919115,-46.238475745207474,-70.588495895688,-95.04215808671964,-83.61264364649593,-59.732025484410315,-53.705806808236076,-44.04077451189085,-20.81114225472168,-5.695262769380005,2.6017173264715723,10.326075520070653,4.481908376938055,-5.421173617563554,-0.9024149725425943,4.356321481530005,0.9711424694413537,0.4193258835407754,2.057747093809162,4.327821207319795,9.491633735706065,3.9594435981210516,-10.377911101818523,-10.906432217209243,-5.242850925257386,-13.768090369447258,-25.074358586625884,-23.721079093242565,-14.11663294458203,-3.614312064715456,5.88082740741738,17.834845356556922,26.525516152467933,15.681245751644386,-1.948587667596641,-6.19138255585797,-22.243562650272896,-53.76218534301964,-56.21334097619115,-45.30096491379317,-65.05045155697123,-88.58119133865705,-95.32942276852691,-98.59260129308922,-99.19410127297297,-121.79425180987593,-126.13954952105593,7.957065458130927,262.43741122045304,532.9239482711967,663.6354688554734,331.4632929361585,-324.76068617954047,-497.643306708609,-95.07359050071818,56.45999685758887,-138.9275343099073,-125.90165505223672,-9.679340001656684,-69.67498302532366,-86.09049006444536,-1.1453543030459485,-2.267187441741612,-27.478913237855654,-1.3628334684137737,-6.901797765530496,-26.304244420052832,-12.425085537867153,-10.406049971879348,-19.611065535297424,-10.414465749498369,-2.772821612839505,6.165854980855395,30.43376302557447,44.189450201763385,46.037523938987825,56.47589672989255,61.71506538005572,61.67451603066061,74.6626223239276,78.6341584398775,61.2880264430933,49.60023362570515,37.70917952443794,4.184928924956265,-32.51687164523496,-54.76263778957758,-65.92713533390445,-69.98514317151115,-76.85061345185137,-80.94532712157128,-61.59193821102944,-35.08035829063136,-27.531763151098023,-23.115755782479198,-10.514759954176618,-5.97645437365459,-6.353486510429535,4.1727706467300365,19.346990975123877,24.73918567364224,19.38134375001522,12.513111424657808,5.674163804059871,-9.419650275604571,-23.544620666693042,-18.7845367335443,-9.954676460671386,-19.05801074559256,-29.79697459405965,-22.346074271624573,-11.833995320297323,-15.982622542997525,-22.706657974555966,-14.015996441752364,0.8515117229967402,4.693357415529636,5.257098141818947,13.961481641607474,21.45605355627801,16.16797499022107,-2.0492332402027387,-24.25429722008768,-44.81141525213228,-65.84341454495892,-73.67342277322476,-69.17666912755224,-88.45923194124106,-113.4462309891843,-110.85891393147875,-123.8513568969303,-114.0995722887574,36.35599893158877,300.6429222960202,570.8484893674292,639.8695273343278,226.91393157273404,-354.64608664015606,-382.630928932562,-30.348755778581953,-7.912743534770023,-171.0175909001338,-101.20675565606474,-23.67586181281669,-84.69117152126293,-68.75054983560769,-7.728186113962455,-24.16307843748438,-31.200143337646416,-8.155446060221951,-14.01713977913719,-16.35985189643261,-0.5461596920086151,1.4504524444167712,-1.5902113600883085,2.220686438407272,5.543341637045964,13.1706946264821,27.881217245135968,43.38299499421126,57.73099898655241,66.42947027521012,62.08407525045641,52.77971544362585,56.83508447009491,67.12659903072112,55.787061290665264,25.56962736251483,2.3030676736467877,-16.920073832909537,-43.718369480529056,-61.25321863329657,-61.61121672357499,-64.45663018939412,-69.71224215649622,-59.00755097638835,-44.45981260062669,-44.9995716611077,-39.63082955748214,-11.035939077493666,13.123378193012062,13.597571350093132,10.183483090348622,16.54175430165887,24.21869137136259,21.78662211995169,0.49104171678636277,-26.248654420685213,-24.446628512617565,2.8690742814972587,12.000693342961721,-6.471094552885685,-18.24018497585722,-12.84173882700854,-12.31981411958924,-19.15522732379182,-17.36840067667873,-16.0886690468513,-29.13394728674296,-31.116358424188245,-3.766939420644821,19.307809496324065,18.592815168941442,22.38263601477009,34.86818166115083,22.11457112638172,-15.669265374420604,-38.84831659301452,-43.24218023591526,-61.31212339357993,-82.40384961869465,-84.0504788892321,-97.67134778053354,-116.18251865431914,-105.73906103449832,-121.07754866177655,-136.90302668524765,-0.674704195312458,277.9089773457232,566.7202429083749,693.879681584621,367.1427284860077,-249.92481641978543,-422.29345942221266,-106.88405456954789,-12.744679441734753,-169.0648636868332,-137.75253677534644,-50.255870025276835,-89.18578770001383,-73.14842312089519,-15.52906729603685,-34.573351917286146,-35.23782845856124,-0.5182433148556651,-10.143765737527705,-20.321029803202094,-5.6843848811139,-11.224810251752071,-17.388439050933666,-1.131637723273936,9.04086966111268,12.970346270908268,30.046322071629078,46.93596374701622,51.15393756350778,58.08984000138136,72.35278326325907,75.34864736239219,66.99627971032552,63.54913012062681,57.221992362668765,34.928940396926855,7.743108278646545,-13.800423972171929,-32.493398982809715,-50.71387426473618,-67.54074552069463,-73.18852917545175,-57.57834765393064,-35.90315405953558,-33.20514249316875,-46.29824327516559,-49.932245816398265,-33.64641839467349,-14.299540918706107,-8.307171100439234,-8.670105626530876,-4.412550744627044,1.2742348994779036,4.595728143175471,7.2368715611570344,7.974367872720062,4.313367804530312,-2.1813967471393703,-6.474858535040685,-6.012822071597956,-5.621988827653741,-10.58056392240227,-18.255091785689913,-20.63051526595881,-11.959097363570738,1.3104213467636328,2.4869121458931644,-10.186008838035816,-14.824250216070002,-1.6118606032105482,8.042723135051626,3.94525315555231,8.90530040268034,27.864245197179624,29.654682939707865,1.4186653885188818,-30.32622933993835,-40.36105660564786,-43.623733406174054,-68.63776985108993,-91.88897634279282,-87.68582356039477,-96.45870311233305,-117.95989799647438,-114.47626651197595,-130.8185556683357,-134.55209298803382,17.478594175293708,301.4728835244468,587.3621866061425,697.8135034340319,336.44264138251594,-290.2966119863649,-424.0736754623398,-82.38234349881161,-8.057070255445133,-178.02091646354344,-129.26464518791104,-30.445364230902285,-79.84284993336165,-73.72489658694485,-13.672954967040276,-30.984032614775415,-37.190229857972156,-1.175783489073722,-2.324329643003825,-11.550218142784146,4.606912365603058,5.6525697665182175,-12.325470374817588,-19.748448916289313,-10.184732594441918,4.643717048606161,15.145756702259726,28.827335849132915,49.38685349015138,61.3924012461335,63.71663949932005,68.4379247584176,70.43920688209766,63.65673898206687,53.17685682579392,37.7208257737814,14.712812459725079,-12.879365603766615,-42.86642557011387,-65.89360581913854,-71.60756363213224,-67.6493708736856,-64.65407427129773,-59.18501673550919,-47.68500089195191,-34.26910004653059,-23.577187220469895,-16.32900205686844,-8.281141400349451,1.2374954450960693,3.84457145991086,-2.058111471724736,-3.631322202584867,4.018796696458917,7.610608374600714,2.506055742314775,-0.25179338401709117,-3.3526287741923806,-12.181699339727624,-8.863113118736937,4.6756168234359805,-3.4515110878788846,-22.652781571091648,-17.19594839320722,-4.848596441362574,-11.692804749530563,-15.700628143740754,-6.384353579078102,-7.545672752526649,-21.85320520185372,-28.2237407465185,-18.663137524614513,-3.4404848340213725,4.5356535480751905,9.094257748179189,24.49335328812691,42.55369334062454,41.61339488887215,20.193410088841958,-10.832876129876555,-37.531922056863905,-50.33071094787935,-64.95356507099089,-81.7694234586265,-78.48061672310217,-86.89349531435337,-121.62845583514002,-121.56315278577348,-109.9037741536897,-120.62937402300288,-21.81455308089808,240.06985451034865,533.175976521088,689.2447410731636,437.1775986738663,-185.8454341321147,-479.49449006346396,-181.95900008441077,12.430884025333425,-141.0714821651591,-160.36516427258655,-39.86555065305196,-60.77460721042235,-90.50410056596475,-39.462113402894225,-30.21758066078196,-28.637701293866083,0.5988751473790277,-7.589176489235037,-19.068105910416428,-0.9622829532950057,-1.5753189173775528,-11.926082115767706,-0.32912927144855986,10.865665271546506,9.300550042648041,10.771347421088528,21.202805817531015,34.5085586525907,48.95416891102697,68.72210395346592,80.82991582924157,70.00709816800843,59.14647439396089,66.22781138874261,61.87438040517864,28.262910413777703,-11.877497749716307,-39.093836018900824,-52.890304586424975,-62.821981581108844,-74.0386121672089,-75.18604468717771,-66.10511513329914,-60.34950953805978,-47.023824769352395,-20.402778039083465,-9.374898641512814,-15.895288756134399,-8.258381878744496,8.619233240670066,8.309481531954205,-0.34739227024298813,3.4674207530703356,12.390725713916387,8.708137748992678,-1.4091717159753223,-0.607031502241421,2.6829026481287492,-6.030112869835985,-11.373444184456005,-4.520392668084819,-6.961541683654961,-20.80790009021202,-21.565166961618104,-7.858645000593137,-1.0118168905587126,-7.522527879783624,-15.755840676817733,-18.021421917777662,-16.348913765378548,-12.588557574061284,-12.745827653195914,-22.238416564981176,-21.18557408041851,6.924314156359399,34.90843653259927,40.686486962938595,37.51774527549887,29.225186993449494,13.57555702019398,-3.882487396067802,-28.541950157921605,-49.62230496663908,-54.66591027951492,-67.51853506339735,-82.72252699573734,-83.02454730202884,-103.66887713563611,-129.14067505651914,-124.47446692173618,-137.81272158388026,-114.55974567287572,72.33944558092821,361.6295167160401,618.2350840858021,636.6875144110511,171.18330006247837,-401.48791497875203,-381.2831609816368,-31.410086737515023,-33.20730281588989,-171.1083089174083,-80.59741122864015,-24.146033270969866,-88.0488429291499,-56.10775486599023,-5.413876886257576,-37.39040316629087,-37.97404114113202,-3.5221253400909536,-6.784481489977026,-16.537432598288213,-11.916655359246082,-8.600177832650832,-1.7191459790205372,0.06461480671696096,-2.35318102454086,14.678095482677914,35.71526166376854,36.702714704591784,42.87029107018003,66.32618298581914,73.05027326140956,62.314502140473245,69.57109061631351,82.91833603177506,67.8106854827806,38.90528853376664,18.035619955180184,-9.69774060175797,-48.21462482060137,-74.13328260514487,-78.71330281411531,-73.85970795556874,-67.96160567849803,-60.47694141403957,-49.10112157212887,-35.173935347480565,-24.03263671636379,-16.82245175856456,-6.5219857118557165,5.871515198125639,6.765373901947605,0.30966788308394655,7.103542526792694,21.872503848383914,25.805088686884776,22.425414217045514,15.085134341702478,-1.4755537133887024,-16.873591488225372,-22.52539931966382,-23.114290897127773,-17.76350380704614,-10.692277557513183,-12.72385820654527,-21.135840593367245,-30.245452776289774,-33.10077168035718,-19.691684032967675,-8.530364711525568,-20.887121349485223,-28.347575995694033,-10.969488069941459,-5.312254303529901,-21.991675411788574,-17.412225469122614,13.796128028505947,30.76961668123231,30.25959695740917,34.26636405829274,