ECG,-2.622627158321192,-37.014489889159634,-48.43912685206012,-32.114112205830196,-12.151826147444371,-10.098489425999384,-18.629894664093094,-21.036445678002593,-8.038265541672054,12.788196946247202,14.967687126491434,0.8569586482561933,7.203377276520325,14.561150426208291,-22.38309057562047,-39.9509719875788,24.942699678316956,69.35429405271984,22.769056539836413,-10.036823900030571,1.0687851173928102,-29.555244320906574,-61.2120762508561,-21.787823366275106,15.211163715250663,4.08960670379609,-2.0829616356664697,0.6739358679188179,-4.369009902339821,-5.652346600893614,-22.695366195949802,-44.64331823557629,-17.714262135920624,24.86540095520695,17.085744841849362,-11.534179358693727,-15.384943336691922,-5.327859341530608,3.8115852727160426,8.14378661824697,9.459627804336344,18.20023639586538,24.98154174670971,14.559447329546813,-0.4995485459771576,-15.817397073209795,-44.85122396170709,-65.9756540683158,-59.82862134692888,-73.56573641170452,-113.23400401738424,-96.12764232484608,-51.02447529345672,-90.92520275374855,-128.43557503063613,-2.3472164105391755,240.33013371616354,459.7377096545211,489.07963351342414,198.65133193271015,-147.61592943532457,-168.33810401973105,-47.99733001839077,-111.91320033896696,-175.6711418382204,-71.97303470587184,-15.674599130262905,-71.5454587366924,-72.95594483137329,-19.552372704456936,-8.598267319424302,-26.582517709825066,-29.127464803639242,-13.29671642633515,3.4366201553435793,2.983172809061797,-3.4875936533810608,4.712468760768026,17.86554029539443,24.2615615207825,25.484178122555722,14.562406498714633,2.236700299475998,14.087635386326308,26.33337493247737,6.499852617941319,-9.24207751596452,4.398723256434155,9.783908546812428,4.1893645100425045,11.627727166326192,4.039885040908098,-21.254982470658064,-16.360970064058872,-1.8472796365022965,-23.224651779942214,-39.18133319004193,-21.94571725416032,-17.80657555778547,-24.94997545679733,-6.969397483285174,4.060684434486525,-13.584477283029008,-17.76545680871456,-5.781295451307699,-6.330658346795019,-4.092919608099983,4.335159411973365,-2.5846122973507715,-4.551536080072804,10.430147070498924,8.028502958516945,-4.024363803367356,15.117844456422883,38.655627510546864,18.640106567399627,-16.746258553244207,-31.00257993186282,-52.884411371771165,-83.36168998233217,-74.16340540418628,-51.05162776923915,-66.34980144758971,-88.61728399764826,-102.33800599839812,-121.30467652430764,-80.74714659393067,69.95340267041477,301.17405625099025,510.1429080679483,454.2677277263754,83.12639579034007,-179.84916579840024,-112.05404292953878,-58.133523030488455,-148.33167508389118,-136.8973149350695,-61.85878111350949,-87.29570972115296,-102.63360320350867,-48.979024504146565,-27.921827085033925,-28.441393457874344,-16.14339706839316,-26.043217432767946,-23.1528605888931,21.22503797895879,39.24949759203191,16.873391355636436,15.429065655200638,35.74780786579702,36.294408312934486,20.94696266090355,13.521212327615928,9.14365655768146,-2.0159438418444475,-6.407600624924233,0.061636629784453945,-3.421094864312627,-10.745157539795242,4.092144079170993,19.322584795008567,7.45712078270266,-2.3385601139567846,-2.2731425740432343,-27.323296983121757,-51.13904536564071,-31.788770784991875,-17.102121223700273,-33.53490909030986,-20.495729913413548,16.634257696933133,11.67971308102105,-6.565561266259958,9.713770490252791,12.730668652608887,-17.937137971976476,-22.87917262023811,0.29115075167703885,-3.9690533570335447,-24.56534278275523,-10.30740572350469,23.755901150484874,27.10429967262551,6.10333486671501,3.663891702470835,20.19297257770572,19.816881773098146,-5.491308273735044,-32.31320354769383,-49.1907969871094,-55.19039970099344,-53.28666125419042,-70.1666653248302,-101.84747859286115,-100.13371287889623,-101.05719436818316,-155.72288527571885,-143.39912891597243,42.52841898177404,319.6811513879727,563.0517329603657,570.9864615883686,195.1008497634523,-206.90179111133565,-202.39035950026735,-43.20777539093733,-92.71708779489632,-167.92655743253462,-114.41685508616374,-92.17075583488386,-111.95295487102496,-69.73297383241317,-16.734466818156054,-10.931456731960175,-18.139448685886077,-14.076226325403985,-4.064262724532117,6.137872389363021,16.603805679763052,22.484616125126177,20.29692000457955,29.410908732403186,45.22863551449812,32.15800676366387,5.631315358174061,-2.032322038799436,-4.075983254210868,-3.8305953971316082,-4.016348292022668,-23.63100434606015,-23.904023039445384,16.42601745423499,21.9537230542315,-13.712754200424664,-7.656478022858301,13.811713993729244,-19.354010209433973,-52.017179762252944,-29.63840343431056,-6.830072977605628,-13.317422849082881,-9.495554026928101,2.8775752690025307,-8.54033838825802,-17.62585357069669,6.615202915586801,22.576272488702998,-0.5049059879313464,-19.82390174847017,-12.954164613517321,-9.174080862387342,-9.908502627249726,-0.3542185949884171,4.914854179399112,5.400967430035846,20.573006259138015,40.00953354209356,39.36096890918863,14.267607398374933,-21.57294945195366,-44.4059581669983,-48.119929899903084,-47.55859322742031,-51.05596111659811,-72.76241596967951,-107.26639094093304,-111.72763684949463,-110.47918993280963,-147.83921143048366,-125.50380333510877,50.18034941901283,316.41141727860827,544.9323915454362,520.1323967731265,147.94617994855946,-186.64961740211632,-156.93163421152107,-59.986883809683725,-131.67754991189486,-146.86278328279943,-69.04628210480834,-74.06750451581942,-89.19613235044025,-42.89669887005395,-38.71961262201217,-56.89911691248202,-21.407011986254616,11.404001003286936,7.083610948835819,4.462934083507289,7.136280544920867,9.068205695959639,19.832646376826716,28.575845686422923,24.982595815605595,16.294407391521943,9.961708384647817,14.407905961652375,25.659245731043754,16.884951311845263,-13.701403851803555,-26.594100395171015,-10.480505108736375,1.7420943816723966,0.39264239829088066,1.624578546946772,-0.01372526534051488,-13.940957258899005,-26.066795798307695,-25.739232003270818,-22.258039462696626,-20.950921678491543,-13.310108581003792,-2.652219979851859,-3.010939133822342,-3.537359915541103,5.131643448490832,-4.157872422887113,-26.74054248118696,-14.673365686014076,17.063331292075215,12.53801846207924,-18.128750950240324,-34.56466432737724,-24.376086440505773,8.803416832466139,31.0995021836831,15.083337564040356,2.9503803849197707,27.496209514038547,46.23752332220771,29.40165078150047,-0.7552179456170176,-29.879255448193135,-58.3954238050144,-74.08346152070388,-72.0239787628955,-74.0738800271132,-87.77002164887637,-92.06827983953121,-99.59846423386398,-123.7987679135458,-94.84864219760641,45.728712885082814,262.07694839503523,457.2132400158509,444.9495003386151,149.2282076295595,-127.75300733509408,-130.05560904375125,-65.01565708808789,-105.0686620056061,-107.19747189292936,-65.18540748212229,-93.61965035779595,-102.5295292574896,-31.95989873531078,-0.9028383096817478,-28.820975042530833,-32.86099463309663,-16.50286053197948,-9.36200915844723,-3.288385112433282,-1.5209949753812921,2.4498458649022012,22.686626859683507,30.473593820357145,18.417413836926727,31.774958731081274,50.50359722414831,16.16221140401733,-26.13625042756399,-28.878432238778057,-41.87107606894434,-48.92044464855382,14.804025697346468,66.5757363362058,23.256761885569098,-18.796998804149602,3.1377008738326597,10.372169492016099,-16.964899534957063,-22.00954668132646,-11.76126314133981,-16.70993815386055,-20.173357216304318,-12.542655787993375,-8.289715121026571,-7.621837971784416,-7.45802559350992,-11.648399538089635,-12.203832873966096,-4.002355331860093,1.91994277756889,1.58854663989937,-1.882078643335955,-7.649779840517036,-6.907073115148075,-2.969072039748129,-14.602059711151824,-26.658423695664112,-10.69285093589918,13.335917274805382,17.57091344600066,14.208525612194531,16.24658298308948,16.973324259791237,11.24791858144771,-3.1678979382993013,-29.97776792406362,-62.52192966870642,-78.5839236702215,-75.27910861439452,-80.63960001598893,-92.49376348432858,-95.29888094371103,-117.86284148240946,-136.56183183351985,-47.48861415251697,184.19627984887688,468.97444498355867,579.489583437779,306.02165909403254,-113.44129045655902,-214.07849947840356,-78.73173173646629,-80.46711768414126,-141.6407409367512,-81.96102103826676,-44.66794740259848,-88.67631736220306,-85.41044592432121,-40.3236881908159,-21.500126692996247,-11.877168234751398,0.5982385511467054,4.455861240519496,7.565780362650944,18.752754465680216,25.059768734249076,4.296140608528919,-25.809436490717328,-24.16251769460626,3.8757241026930487,32.671732864546435,47.86314699832742,27.7135647016934,-10.46678854207625,-15.5455428794039,3.2915032648860723,4.079577896629125,-4.728822211598283,4.7233843593929095,24.55800731242119,20.685133516333675,-14.199583906270114,-38.702049642271064,-29.123179797405303,-14.125179585761346,-10.433185667532886,-2.4140243010993023,11.202774909216714,12.918093212288387,-0.06767678536853694,-12.87845541019701,-21.18603231521949,-25.887887508480024,-16.72937686237649,-8.434200341762454,-20.56225322959289,-16.1480320528144,15.925589264876994,16.440170494025438,-12.305500900258462,-18.292913096851123,-12.970099832302555,-6.749675291065026,8.416137134094937,-1.7700382666685233,-12.849538882296041,38.61880165314388,77.70749519747213,24.710903832559215,-30.981359506753762,-36.892147914705816,-61.02761610631704,-87.99790636383136,-72.82248018263985,-76.88834643866787,-107.890173722514,-105.47220906677319,-111.14878837342539,-134.3734563411574,-59.795659374465174,144.23373603465384,406.0965942390437,577.0547323036702,408.89734811948586,-18.176768323953095,-214.61804307923086,-101.08864133649416,-77.59681001336043,-170.1074642098243,-136.69821813929133,-64.49573791406227,-75.66625709387405,-68.71107058271123,-34.37368490796071,-43.883433040053035,-47.344538496594026,-8.425300113309483,16.408004704530764,6.709380346873372,-0.3037417567268479,12.465249374435244,24.988458825570085,22.633457060655157,17.12041312103422,18.141232516360454,21.676706886778693,26.424982728059277,28.53830283766465,18.02159898745021,-4.239093253898229,-23.289907434370818,-23.371824250433512,-3.5342244886753083,15.71079350036493,15.266392958175427,3.207232940444147,-5.529707455816272,-15.970876672491752,-29.370714327287544,-29.13270534448332,-16.32072338387097,-9.827671701617895,-9.291506007171426,-6.267204391863508,-4.94702836346727,-5.39761031489523,-1.9523972126208262,4.501618543270656,7.1829811088428865,-0.9496902425518918,-8.802099241270737,-0.8360694661925319,3.176648320969399,-7.99331328971966,-2.600852976210839,12.666539887771147,1.0181754930784788,-8.095244106427378,11.980543963528218,16.060464219025466,1.5665745022305284,17.409513073813855,37.032924590714345,9.988352419562247,-28.036207417265913,-39.92754734501999,-54.948016648563524,-77.26543701547595,-79.66324856278868,-80.2889466197091,-90.56438254379717,-91.69167753073125,-103.91976049872414,-108.78637748154227,-14.304773655047171,190.87283411846033,428.97050717588365,548.3204619266105,332.07057418559737,-94.63594503619099,-243.48053518764283,-80.91785526674391,-41.3745502512554,-143.06538712480784,-126.71356374825322,-73.7326954664563,-88.67106347632689,-62.58363099413815,-13.612925889160756,-22.990496472945,-27.856445106981386,-0.3800310232121138,8.659216805103977,6.908433518544394,12.27770411702346,9.426596104162986,11.298141028441183,35.06577665609808,50.949768594258025,34.697750797953276,17.121025881062657,20.476955921259094,15.074299942958222,-7.12599742580314,-12.196477033798715,1.2530886369366763,7.547865666247287,8.665520841797935,15.790820653047083,18.268909354322734,2.3420797258192705,-17.779824203731167,-17.50352121135493,-13.118261487068896,-30.74243554605014,-41.00891221424459,-18.880035359321866,-1.243328419818706,-6.934050195108542,-6.373489205838427,4.798056374967482,6.24699353903149,1.4192966360174637,-0.8308561491319431,-7.719059360737049,-17.32475540902754,-13.421655061999319,1.3047152393131487,3.745869843550075,-6.9130000499201465,-9.26510676589357,-4.513441968482148,-7.936143646927393,-12.135958080772175,-4.995741976613122,5.964269478999251,12.467617106572721,19.861657698711667,27.628788055930446,17.386511405681492,-14.363655053984262,-41.77678418364285,-53.7730635217401,-58.86518197503107,-60.7654762837558,-73.70142460769009,-93.87993135645998,-99.09135221778178,-119.24251918346667,-140.92926914150698,-48.139146668825624,169.13244800910837,403.0682373104306,544.2901836334981,400.4458786016646,-17.021141679792493,-251.40674550388724,-124.01587224650976,-43.422841339679124,-139.43917053244743,-135.5439457777712,-51.96306574097506,-57.061448014349956,-73.54997086924536,-44.6085206487773,-30.294508213169365,-19.46883663866513,3.511724583138827,9.26255519532359,-0.6115627693274774,-15.262661907493188,-22.881329891718742,-3.6653018681211913,20.666459211762323,19.987314928145906,15.929126612950999,27.538820710325567,29.908434596570103,12.755216682942798,2.637202375278884,4.506200332926783,-2.107463640715478,-6.454220651930218,8.653847556623054,16.454439184938273,0.37344046994300584,-10.66625075128671,-6.269204049861401,-7.433655967767923,-16.092582718263383,-19.793145469109675,-17.423182411670822,-11.40543781984858,-4.2268855010217665,-1.266220376330475,-3.077886483958167,-4.066988141817664,-1.292033773757975,-1.527782938825105,-11.087889950822731,-16.599458258227223,-2.4233825629248944,15.11185533320505,10.774788020904492,-7.929458828026451,-19.385341434326655,-18.12092451002781,-7.0680049161167835,5.517878534097388,5.3268526609994495,-6.142400273237431,-7.073644707746942,16.980210427796244,48.18368530489468,44.229379848726865,-2.198515336447498,-39.61537827050391,-45.1260626958045,-52.51585239154865,-65.36010807979179,-71.04528834923089,-86.53034171912182,-98.43372898264117,-96.83726942009719,-112.08734306669443,-91.50434919733422,43.61954315841598,244.62054719776776,422.5910428687539,443.6736055216943,171.08409198158773,-160.49100770697004,-174.56590169437433,-34.485612846479164,-70.29959649401232,-135.71073625222272,-72.865033990993,-40.315629927760995,-65.03859143260888,-44.35441099634393,-29.227390880862373,-48.12703585582921,-37.337897099496686,-13.720783638476215,-12.421263740139498,-9.267950750573753,1.6694310403007453,9.157457877490579,14.409327951827583,12.64050624110881,7.139198095768883,9.66982645659989,15.39159520957683,15.522983764222847,12.006645920421601,8.03594934496261,3.9569982725490966,0.5639493405850099,1.8547323503974353,10.48339600184584,19.160472133778732,17.30789874752895,5.429523366328914,-6.974778760738381,-16.6191032240612,-26.427306304943006,-28.866067102300764,-16.418674203275124,-4.724761326033743,-6.879950329902691,-9.649060636817342,-5.599966817933437,-2.758293637983936,-0.47975484748531905,1.236353650418062,-3.038494154007397,-6.930442075610456,-5.723527261472622,-5.275340033265737,-5.165664703859097,-6.1730752677438225,-13.264472656206602,-16.910661359626786,-10.517827629578266,-7.365154331874324,-10.011636696642839,-5.549367633999397,3.6689404870621445,6.949194735358607,8.267265587746888,18.03933373559297,30.680716400985,22.395871345820396,-9.04104275972878,-31.97935201383777,-41.65172073266944,-57.85917628123617,-68.13196078746725,-69.15744973236336,-81.61975205674172,-97.32561405643727,-120.22290747759982,-141.93599180660186,-71.67028726545084,118.16517540171984,343.33002555201784,509.43493150900315,428.19448338462456,40.24308113649247,-243.09121759487644,-145.38535675432468,-25.879183256792604,-104.75977263726656,-125.56228336020071,-55.124427971291006,-68.84278692337062,-88.5370010155563,-45.35018268311411,-40.118326360938724,-54.77687408551394,-25.587141927633823,-8.504321949820014,-18.634967257234123,-5.270146951089908,15.191584905196295,9.002788656261089,-0.6795682835538486,10.31530218726283,25.14784458079529,22.340051581201195,17.236221134232814,29.549176410791834,33.17709812537896,10.766500300505644,-0.2924601279785617,10.368165670785316,9.788358451382704,9.018469569083422,27.858834948759704,29.691605900498597,3.2207021530479665,-11.30648028548552,-14.556401912392193,-30.5886452068707,-39.58856994780209,-28.224599064697465,-19.92268703534342,-18.32342519908339,-10.111752869429644,-5.909160449762776,-13.01185325019322,-13.343471108511505,-3.06191371425248,-0.7620790232425136,-6.443041079404356,-4.8082166840744165,0.823126624891195,2.367298341176445,2.574513894341541,-3.5818625990948547,-13.77487131455986,-8.267015194561345,4.306809272100683,1.5212667802828523,1.830900771496843,18.012039398765097,19.559989881527567,-3.3850249786820914,-22.144045793758334,-23.338452943170587,-29.551364064396534,-57.78706357668706,-75.56726764215398,-64.06356439426798,-67.63944745838694,-91.41904261168084,-104.48391908923526,-119.9437491767077,-86.9326004593441,71.04778728216448,279.98306043191064,439.89550720732836,451.0151758959055,168.17740660916277,-197.90695826723405,-216.45937887982018,-35.42027594809492,-61.35964316211925,-154.24954592316553,-98.82482462056134,-58.90299433991261,-82.57156858680425,-52.59646177023538,-18.695394054346636,-26.371598685377645,-19.591856965059,-5.8014063559907925,-7.659002891666464,-7.724417670633102,-1.1193826524288557,13.721742869162266,23.42454842622902,14.448542696904177,15.708500618458855,30.957557615797327,31.133992026476164,28.502057991834253,26.864649354233578,4.097815175244511,-12.5752482632262,-1.1786053194159023,4.911149531412641,3.3628741692367266,15.878405072507686,18.748715146805942,-1.6804547071157536,-16.334412726965247,-16.599656495845146,-17.49139251766211,-23.176929688056944,-30.924418257319054,-28.742543611723754,-11.307011706415304,-4.378895972342145,-14.886960725470871,-10.085273929706165,7.366958761463461,6.387789077184264,2.279479663159062,13.407050714750158,12.717971928272508,-6.103064279831502,-15.491109949041153,-13.060545167728634,-9.349639570017324,-1.56582835326169,5.089912929586891,3.131746319787501,-0.21889672299430885,3.738109627729699,15.577772555278326,21.3415646195892,3.0484611643368673,-27.46193133537149,-49.12232791859597,-65.65191794026613,-73.1737753177409,-69.12246025473266,-77.38951848416954,-87.42753508551274,-85.7171750956972,-113.74868779966452,-127.39847644596789,-11.24691677250523,204.3877636387478,414.62869185785263,509.6844481611255,306.06451904078665,-94.8594737396069,-237.2549319931082,-78.25564127909146,-29.21233169849024,-124.6531098597469,-122.5140183734097,-79.22622593827893,-92.7842274060113,-77.19636883205516,-37.84426550507407,-36.02865934680838,-28.5772927835408,-2.4189730754848426,0.6337680192548163,-5.954875780508154,1.2630801499136322,7.963704711752268,10.24288181745861,17.336342944578067,22.469692745868613,20.587276087808466,22.217675657623804,24.70059548757984,15.235654251024256,6.054762694666348,7.044503945714346,2.3947004235704754,0.6152980685826721,19.271032290136215,27.151222957143315,6.026371447694035,-5.667033259275989,2.478953088896072,-0.5944406568622451,-17.21086743045882,-32.52719651103918,-39.838667465783764,-25.61913651822796,0.4144530896317722,1.6938859890492353,-17.629600905235016,-20.89867275390157,-9.476660490595322,-5.9818264047895635,-4.629511279033743,3.8909676408836695,4.627595411393166,-7.512305415607415,-11.938549037735953,-4.354474827988323,-4.2204188960042455,-11.58321412070366,-12.456630571373514,-9.995401703045053,-3.8789162199154816,12.49969185843165,22.43621858594948,19.09455504751272,25.300815138161735,30.34302532433617,3.595241945751658,-31.235056553354095,-48.474280642636664,-66.3432326487748,-78.05276392162446,-74.35053191313096,-84.91723579083033,-99.40369794129181,-102.50058813960057,-122.61793481155685,-98.42990445270507,59.58208920330485,291.0154239234737,481.3206836648418,485.0237102162292,178.3139618679708,-176.3417869069198,-190.7945935547215,-41.67943551730944,-71.69494305489562,-143.05489270447185,-97.75737198600814,-72.38112994229377,-88.9521469826749,-65.4763570253749,-43.88781116995155,-42.15917999718307,-29.18870602624248,-22.593386563332867,-12.198957339425307,16.312393145874484,21.159034465324538,2.560823533141063,0.7493212922130157,8.996536132066424,15.172705416080209,30.27080534616156,41.83068505303094,32.37274067939464,16.74879140641031,12.318869703899772,12.142913127385079,9.83215759601529,14.7714868305564,23.129477005724205,16.64793662251546,3.5860193596462513,2.115686658554235,-2.302813788171962,-20.266540151571583,-31.256297041299383,-31.466158792179925,-36.126065754610536,-38.20664900167331,-28.02915147537383,-17.545578890004286,-13.243239779287041,-8.046377597055137,-1.6499173514047065,1.9537139226749076,3.912588161231513,2.7286108686256796,-4.552407671677178,-9.613409495973949,-4.733923455029139,-0.6345322471027224,-5.001877310878408,-5.5288492409849646,2.765247690301308,7.322741174632602,2.539241315398481,-1.159470656440508,9.720145673881568,24.03321668723344,10.024781704238283,-21.86480425285924,-34.71919026871463,-46.09564498798379,-71.83939008901098,-79.1104266107242,-79.43333652233449,-95.61324797712476,-99.50740864574054,-107.33818022459772,-112.55996419647866,-7.625105078589812,211.12291869134356,432.831458483624,543.6968067054999,351.1934915644462,-92.5530445124508,-300.3772684985197,-145.0545337694075,-66.55611358120652,-149.60475440741538,-126.85568070036015,-63.63571602393272,-82.59380181924263,-69.27360602043416,-23.947294435742386,-26.512910008957945,-25.25181437928895,-5.218775108452634,-7.770025219943859,-10.80358735068007,-0.10094409371816582,12.116862867407121,25.43535594332414,25.434089589874738,17.455623061078715,24.88737080702794,28.96390438215399,18.580534847450306,19.872296713879336,26.566017954113946,15.528034010522525,1.472271868055358,1.6555902782126064,8.498650785567976,13.292483210956394,11.54766458152568,0.08141799680891815,-15.039780863449511,-23.36536882334015,-24.20293542204887,-27.249987426760114,-34.68103838605423,-35.13630870700875,-27.42658548958012,-23.194915272762998,-19.15643188355412,-7.8878505557312515,-1.8465945417545981,-6.0420579850376654,-6.539053975807018,-3.3520574754943713,-3.0410407773625003,2.954352373227434,13.73291029818446,14.300257053752475,2.4779440629117317,-11.816897643272693,-15.016587311355146,-2.2190831790183125,5.818992115174728,-2.432252399838461,-3.0718163209356497,12.09746915831779,18.601975286883356,4.294467745672829,-20.40417718516405,-38.83484486964634,-46.82746591980589,-58.31611847725732,-74.49524423848443,-84.93908112167406,-89.07172219315188,-91.21578418011617,-113.65007762721568,-134.82994020325245,-45.334293227751225,164.14010977268353,371.65001908775304,507.52217487874134,436.6711396185204,54.848601669221786,-276.0400476526229,-202.38716052781103,-48.134495404760884,-118.88443136458783,-161.7672118967687,-72.26289862278871,-52.39898019081474,-73.04808117417133,-33.734542451143696,-19.32164329495258,-41.95575906113216,-29.249015806628687,-7.216738407493404,-9.137283992782965,-9.64693958448849,1.5706475849866717,14.735389276922863,21.192533805625835,20.654939130059248,24.913413648709714,31.6029962823661,30.807177992415003,29.897801360387326,26.33145909575343,9.711052830158474,-2.373724192698975,0.6681004940233894,-0.6172658541816829,-4.173087761531285,4.213996531440602,5.6504392949362,-7.82825094729766,-10.926090383777314,-5.669707954967381,-16.048279167121542,-32.43970914137902,-32.42046690295724,-19.007134287954585,-6.539406276832773,-3.9489288543752465,-9.183378400463102,-8.101111767615983,1.8174636410962037,3.6801718344232945,-2.564955970155814,1.7832546671951368,9.76470996057135,1.6954888868102316,-9.509718401497675,-9.147797745793955,-12.46276006516738,-19.001032312617014,-10.023582807456023,1.269275627460292,-0.6321868709637535,2.6193569808001556,17.424521162721696,31.17991581335229,37.906685146173345,18.332455193007725,-26.289697792097563,-48.19797513856676,-44.30977725214358,-52.65556626224093,-65.30085532343476,-82.24832644034278,-117.1451308976122,-132.30124836144938,-132.82723033618237,-140.87833208952776,-56.31463989746229,173.9524858555289,434.72032163002825,578.0122402047837,434.64138484564813,20.186753303227043,-253.5358944984946,-177.21754256098484,-91.35611944558046,-150.4938770861687,-134.4628655875844,-61.9290222292132,-77.4198469703654,-89.88404827969856,-46.93824244984238,-32.32873252487491,-35.77086113224834,-14.977434979444011,2.069629561661383,-1.8117866478462794,-10.006769544653551,-1.720822935378723,20.615403700513024,28.221160388776646,24.360909252373837,29.192837386778784,25.63195896784943,13.50879423815033,18.648226235691833,24.04673595371009,9.822049991890161,-1.2915531700060292,-1.6248615070884487,-1.7071719605069082,6.71390460065338,15.796042923206334,3.2014263970855295,-13.50216839454033,-9.698518884493872,-4.263569637279554,-13.451856301899838,-21.236009744925976,-20.589419489901545,-18.94181295394264,-15.508433752567333,-10.423772914374045,-5.860230813090135,0.27082500158203615,2.4375620023629754,-3.1361562353068937,-5.779171019101987,-1.6694599298987391,0.5236005634038072,-2.184777596521311,-7.2497354781824015,-11.579838005503479,-12.170175569486872,-9.65110550012788,-5.227921403246198,-4.143425372026941,-14.049201213853935,-21.104276472041455,-4.782324091929727,16.375327826911132,12.473646478859077,0.76948976637137,13.967006657001408,34.95947346365546,23.311710231137752,-9.101540444058937,-22.426250078363033,-32.611325962701926,-62.96893313152322,-75.64959610589872,-69.3156284499707,-88.77002492345603,-106.57761910968584,-109.01870258486683,-134.5908690338752,-97.12352117390225,93.48005635340795,335.08312205111173,502.5800241884609,468.27371596911513,125.8987975027679,-232.68852322753116,-222.4546687341324,-64.27134002893598,-98.91467315108048,-151.8202352237281,-79.10957138328321,-50.78209225621745,-78.42796300503582,-57.358278316338414,-32.764537702702086,-31.24180566909753,-15.550280647777651,-3.7158789471650273,-5.498700506127541,-4.948226584345937,-3.17476111248872,11.922611369435412,33.57387077916232,28.955689780667747,14.377309128684633,17.02839631041722,19.09810507718644,15.26723604263484,16.70088414013841,11.95097381144884,0.5182922950490836,-0.3729259099108506,10.298756022767279,23.056415771985968,22.887296721364834,1.4848822422755399,-17.040251000574607,-16.43531680874152,-17.41026478666861,-23.736978074657078,-20.406723315335835,-18.383781235867175,-24.891248427166047,-23.484544308300517,-12.77757056746017,-4.667384918078721,-4.199255481007363,-12.2182408638408,-15.150213649456655,-1.6485449270779355,8.782892574694069,3.7929172564026015,0.2859319118101684,1.7979709035516027,1.0052348470646928,6.639219130523174,15.896713010635505,9.267356991673243,-11.11151301100956,-26.089866822539378,-27.599235425271203,-18.63516572305685,-10.693691164751918,-12.994480079867333,-9.618317357763978,14.530306440762901,35.45749890450617,28.30567144327325,2.8370467363813425,-26.05625217827795,-47.25006806438441,-55.0054889335547,-64.17940733272731,-75.97598030284587,-79.77736924836452,-92.31676496071825,-112.71667846436816,-125.72033141639048,-135.34382370247013,-79.43954742772098,103.87240509270062,332.6549075864864,504.2793340850763,502.7535975813207,183.15632833746815,-223.17108895324415,-265.8552054094158,-75.10350395323461,-68.1209878759087,-143.28429615517953,-93.64275298949765,-64.24595598576431,-93.35253951714171,-57.87884108253066,-16.870335995441827,-30.2930066981991,-25.810536883884872,-1.9434546265522759,0.43992543307529175,-0.8068688159161646,1.326383823773977,1.9800682125960813,10.51683238742041,18.65931097160913,20.198035340698766,21.667796191523422,22.3245208127869,28.533397682973415,35.242194978996636,17.28586748893282,-7.139043813796009,0.5296703711288293,15.581564237899718,7.079649964959167,3.6984661734644435,13.61452697433294,2.15790545993738,-17.176919418627673,-6.369791591439679,5.649887659579306,-18.008105752794442,-37.92822814738048,-21.321408718485067,-12.163594471883261,-31.84320150709769,-32.153130432851285,-4.947260056090627,2.103526362566326,-7.528275180599733,1.5613821912802743,12.558484660541566,4.810159612515731,-0.9300654893008566,1.908013786032301,3.4700741018705097,9.944740737875529,14.068435174921131,3.8327746214381193,-3.798884681215835,-8.591004917387444,-31.946853440511703,-49.9424751768076,-32.09069133281625,-13.528039451872026,-24.674708510527836,-28.688783517930286,-4.552229956670075,11.338675677456118,12.81767359191494,32.730084413440736,46.47334121227091,9.411521377548159,-34.005800532718915,-35.56342734201647,-40.65928772957959,-67.24613240362207,-73.18932982077143,-83.69380718513564,-116.66951893870178,-111.26643854623595,-97.40432497118397,-123.44279994398099,-61.87810045866894,150.78704954406675,385.7649899316283,542.1554559526253,467.5156745462564,64.59624968708391,-274.3915240686066,-190.0670208032857,-33.62070488705194,-114.20505676410721,-160.2776721694591,-72.75789273903986,-64.34873686749408,-89.39853276059115,-36.453803763009205,-9.128728351251901,-34.369981974512086,-28.448996664278752,-3.1214327867151503,1.6233348911388958,-1.205989909035349,5.631254191499988,19.155083174828547,21.02428634448822,14.709580769700246,25.298984563815445,40.596318978300935,37.54078846182093,25.409459860706953,6.658164971535603,-13.792008098485342,-9.165465530527545,7.845447451027492,2.0748038059341587,-7.138645311766889,4.160601024249421,8.30769629120245,-6.576897058237069,-12.091876479763156,-5.35986888111368,-10.37203547804532,-24.624686111791863,-25.106796009457007,-9.595348570203367,1.1839835663213787,-4.801811852704738,-13.81864660445089,-8.847033353663964,2.889574607730811,5.9732145246487915,6.05945125192992,13.413144954344128,15.78256643087203,0.37863331835365166,-17.50275578286345,-17.097678236404697,-5.696147861756268,-5.115916254855712,-15.532134264703702,-19.195857751881157,-15.421223337417572,-17.32337340825518,-22.34337219125377,-22.269419576180063,-19.185634991643585,-13.833001792582778,-10.630810280746964,-15.339106269121643,-14.35291264284523,-3.5636620941459256,-1.4964954370408154,1.0949039255591941,20.004755271608232,29.66531239639331,21.560606538105535,19.165082953755928,9.432288683773415,-27.055120881673695,-63.583706730481055,-73.28806051456901,-66.51839624096401,-73.35959632616097,-96.66381950591287,-104.58703274605881,-106.88777241278444,-115.44048866564331,-44.66910455567333,153.3318603016096,389.70491930054425,530.6280405655168,403.93087077006464,9.602595304558289,-253.57845222103043,-155.64723450554723,-43.95942933732014,-123.13866994356962,-147.38090408647108,-68.95824280836129,-59.03454855333243,-71.66044338009868,-36.08111231924761,-27.71440254263307,-42.088252469075215,-22.655635214211095,-1.0228355622588854,-2.9093037646059265,-6.099225101871969,-3.4126899808988815,2.817006290596891,12.93017424573138,21.272591934162797,23.99093812943625,20.091633526752034,15.820612706345287,22.529069703318044,32.80867021651639,30.20651551675059,18.894092375780307,10.164683793232191,6.393674923309434,12.290586372789104,27.497241070544003,32.842332733823,9.458796379390558,-31.225355810867377,-51.11740871558021,-36.94040509250011,-25.194984071794664,-36.79611085328037,-39.42313125437846,-18.41884791867348,-6.26392666650996,-14.822223314386623,-19.493821550647933,-12.497064343291209,-7.275844079366955,-3.4203240951167544,6.120154101088003,10.771981474912781,2.051171697351478,-6.472070261300654,-8.277864560467187,-14.3473748456892,-19.012097971031295,-7.7357271997442325,5.883068323631823,2.206017261376804,-8.596353278197132,-8.66454337067042,-1.9797196825506749,-2.3870768496996533,-10.4795167854252,-15.277163207093276,-13.80006755717509,-12.21642968259119,-10.645545447961066,-8.7500580973097,-12.035875725038444,-14.751391383092097,-5.4116100169179475,6.955664357395773,9.043083353944855,13.33225942216479,29.804523197795675,31.91759285346585,0.8844064633506061,-35.59783425371236,-55.99751468960058,-69.62391984579584,-77.81874034414419,-86.47693773656374,-101.1470525191492,-98.26972085926374,-93.84394478610595,-108.38802165243297,-46.28644913326899,146.5108711034182,360.4179132721399,488.29979519680336,413.0621775608769,70.83033064579574,-231.56954227871216,-186.44006564687885,-50.30775068375756,-101.8955340699728,-147.28538009638677,-74.52286009022144,-47.11761086574747,-68.11826895139899,-47.56791164678446,-26.449502313131262,-20.319891902277586,4.4649017932699335,14.901479999113597,-10.625157071006477,-28.743490066023448,-14.77646394631164,5.5700596245142275,6.021856339939678,-3.865209071155446,-1.6037607080451308,12.787413550800366,23.699708097303574,21.67292598675787,13.197626711598598,11.880389692577815,14.60193830797402,9.233940944437641,3.2033403219121657,11.828861973182022,26.962709535932778,23.982357787158982,3.8413681985910975,-4.662083360060876,-3.02764531587791,-19.814740779323607,-41.04293612100644,-34.96128607569456,-16.819147446634172,-9.93473556964764,-9.530947088041867,-14.828368611488216,-23.412751966852966,-16.869488477477464,-0.5515867060745734,-4.901924052296593,-26.21496434979416,-26.787807867067222,-3.7436809376416775,6.6127979599650715,-2.45506435585558,-5.005638416567779,0.7814778664672062,-2.403945494992488,-13.262024472372863,-18.550570092309325,-13.534970963767893,-7.634804655670305,-12.560306674351713,-19.26339933980423,-10.660817627148852,4.044416960660929,3.7558453393096958,-8.345333363012312,-14.05002832041668,-10.13274789051391,-4.784196632692808,0.8784675859647013,5.537947188041294,5.496916026875462,9.870686648619952,19.97745243911512,15.44800706951477,-7.868304733918315,-38.0168364128869,-67.79023537221666,-79.47452856249885,-78.38409279581437,-94.41682098157472,-106.44579413976041,-102.51489105592705,-110.62859905147195,-54.996011390250274,135.58981766349217,351.01996654089976,487.6264254040829,462.9696836021245,146.0192524337522,-243.38213751585914,-275.87550366061396,-90.18725102989477,-83.65518264304913,-144.23057504427968,-79.68682947097717,-40.1258025334235,-68.651449946013,-51.52633557274042,-24.86178309217561,-28.144063205783517,-15.968642813849248,-5.623138022586913,-16.834211391049976,-17.749508205767984,-9.155911929024448,-3.4471220642875586,8.19042896953929,18.646652285855673,20.53862672728408,23.78725006550513,29.093616211738805,30.284487741844277,27.473855483084364,19.330150338144907,6.103257778339436,-3.117480128888401,0.44137472032976977,14.892859089676973,26.622332713173023,20.930981980708236,1.9400776497496475,-11.771706839778147,-18.827676525150228,-31.11674430664875,-40.68756072062182,-34.58575106549016,-23.733476525193886,-19.066758355572496,-14.075563591208537,-6.567662568818552,-1.8284666822601512,-2.1037763173341695,-8.128302866440063,-13.477817614207764,-8.452762168709242,2.8917627211977326,10.602878608437791,11.391614788343876,4.571900143319821,-3.514294877194935,-4.774324943778829,-6.5306711739119905,-13.780160458989664,-12.53281430600787,-0.4355950147408052,2.13344834655312,-10.532034503398567,-18.117668771471422,-9.449638465711503,-1.4184340543050649,-9.642338333010771,-19.643384862529118,-11.11085477107342,7.291313146608745,16.06905387602377,17.836123701567193,22.546522583215634,19.03740176921064,-1.5883568452001846,-20.71283740277608,-33.9573720769411,-57.411685838878384,-74.04691554569764,-72.07415488421142,-77.30898122969953,-83.94301255491335,-92.26736050341202,-125.2634902598531,-91.39888032285964,103.02284995532021,355.7484288718851,514.5399353370482,449.90052778708275,98.49780647231674,-240.0445754092599,-215.7110490739701,-57.46951565651514,-91.45944795330057,-146.01362461194006,-85.15475673341365,-67.82271004113183,-88.61323870027759,-51.51158310083528,-28.228500966386303,-41.36111203792525,-26.776160225245604,-7.144991888323123,-7.234008551738583,2.305448406246118,13.921517380720818,9.318721521324068,4.425927200831966,9.09310088466485,17.543967835821356,25.836460055644054,31.150703503860985,31.08903653295811,24.737679371538754,15.373956392917592,6.6248728509126,-2.3202740682563663,-3.573902243743962,10.718494231361234,21.39319314878645,11.143180523099117,-1.1257894774107022,-0.5062786268388306,-3.7477580379859123,-20.277127340211344,-35.570153645249846,-36.70701215778098,-25.723445781773314,-16.207660361710026,-16.01472180193759,-12.734556687864714,1.2244217153990054,8.686999930953291,0.45494549748834423,-7.4898636582792655,-5.91180153986447,-3.0937033526615973,-2.501994666747218,0.6862222562746823,4.962942822853874,2.432494241537672,-5.088558871665471,-6.030832313755841,-3.2698719716950784,-9.728170486060138,-16.15278001729165,-7.639332221958082,1.915575925091023,-2.6830439029004047,-9.92175723507494,-7.573969471450592,1.825213308531593,10.889526056070691,9.684838664834277,-0.9732290944953839,-1.0625844987090236,12.864932703699207,11.140026349082508,-17.523790340469453,-46.92340263060766,-62.41767092344807,-70.75804829258529,-78.55059322394624,-91.07657214800096,-95.71942960830378,-90.93933505069131,-110.99037581776138,-109.60238915371966,22.374070870112163,249.67121703179285,441.9268749404041,489.81027353452646,266.22483164594615,-114.87265427106446,-247.80362908375008,-100.68967599420509,-56.869470276477195,-139.69939900419737,-112.66239677120294,-53.93434708673978,-73.62525650964633,-63.29234417125772,-22.309304162413426,-31.122011155805218,-38.134545151298184,-12.501840509450993,-1.4977197125508503,-3.2745065064231547,-1.9920689931517135,-4.285191347241315,2.075388342061183,17.227650835418803,20.482231574409532,13.671965470979254,13.772571917487308,27.28791094373211,38.11446040212273,24.082336128351944,3.6914651212728815,5.900953550769135,11.313620215755062,5.920246537767318,10.637557603721135,16.900303979323347,8.176334677018332,4.179057662034724,2.9960667684598707,-15.694365190651359,-31.2634149688267,-28.902320424627764,-28.554940785662183,-28.621556998455198,-18.9949860942638,-12.839001799067816,-9.242850344709499,0.9755812846494152,4.201538123475718,-2.4749065628417064,-2.2504541036192336,4.320930745704529,7.125066003567438,8.527505207980308,11.764655972759638,11.537520526188993,1.1137643344733874,-14.815954523261864,-21.067347216518552,-15.03555640939162,-10.101264633517825,-14.0464879747643,-23.52844655929303,-30.657639763676357,-30.040962557594213,-24.393365565279147,-17.160238271125657,-9.386009392482926,-2.456109069869287,8.256895812186686,24.19141862148372,30.977122231852483,17.292572205036347,-7.722545047839832,-28.289635312971157,-42.782559876702734,-55.7627177860955,-62.61269366017346,-71.06596930194317,-89.65595087251057,-94.65292383650717,-93.99511535840408,-112.31473285845973,-68.54761928863209,103.4803316194101,317.03610462827834,467.3678515939202,428.6916924035068,108.46490221576775,-211.98890771409015,-191.7915076885414,-52.3006716230819,-96.42657962552734,-146.01890978020447,-75.31596080208244,-50.264583147656936,-71.07986255705555,-42.67795069859428,-27.066149846687136,-38.280528643910564,-15.543519181155188,5.013405836465733,-8.565509673625845,-12.248257160412425,3.01306869899161,9.320618758047194,4.652130613070765,2.933084626396477,11.332335040900317,20.802387195678968,19.266729419271382,15.77457539430952,18.101786166866948,14.252688335714662,6.397211605466612,10.397393130065206,19.25273658016062,21.991826175621277,26.19047783076138,27.600561909747242,14.223447866878022,-2.343511123915275,-13.63789392848179,-28.996250897525904,-39.53623806652038,-31.875917587063853,-20.43909427333731,-16.32452768733075,-12.25915593944692,-7.479916119894096,-0.44159506516904656,9.226023751674742,2.09957568230017,-20.65899585894142,-22.05867506631433,-1.6673417473744845,0.2875299517417318,-16.43867853930532,-20.722167669638807,-15.731015352764702,-18.498960666757938,-16.179709954744165,-0.17232670107038928,2.3200029599167635,-18.66314382623513,-24.90113772469056,-4.080186402884621,1.5662568390246285,-15.458516233645918,-13.434641006993523,6.707187622340955,9.218997757650936,6.288607710752597,26.10381801872612,38.58322946852024,10.704033029844213,-23.019614656042346,-36.27130320715081,-57.49233048216878,-79.34761201129365,-74.60409187763675,-75.70256706799799,-89.7471861172985,-88.73709198984693,-100.95595960574698,-93.16243539144105,38.74751430069695,251.37909320057273,421.3939303691564,454.2192581097573,227.30188574864434,-128.5310376241105,-222.28324761556632,-77.92380266759429,-62.03932592293609,-142.09340033795854,-107.12536223902578,-58.582312097951586,-74.22710603299691,-58.29935188383217,-30.05368757649758,-32.15548972073176,-14.767264587864286,5.495612460500549,-6.938647145008005,-7.816090691994752,9.71684632549587,3.5899451885573495,-10.704241881788874,2.095700164303521,22.74219994234511,21.75206641569494,11.585811174899145,12.543998228973733,17.12572994138564,14.031867011911686,7.26978389356397,6.570162018274661,17.39515716018505,30.850990202261148,38.28688651888837,43.85681109678899,33.251903470072335,-6.184604103016447,-37.70509409230867,-41.356261061359035,-50.470467216411706,-60.29537762604896,-40.92413919774064,-21.728735297030518,-24.66506756178965,-15.865398844857603,4.518925194582142,2.36866193967537,-8.991024200083825,-3.130846752162814,2.167683304511314,-8.445310101129163,-13.847505296145068,-4.130428765283041,0.765934695104109,-4.658467508901174,-5.86480482327028,-4.131601958448401,-8.106054561535467,-10.825850365303367,-7.058862810988725,-5.134754923707694,-9.800404374724614,-12.794679316741483,-7.451586566876376,-1.8202098233570734,0.406540084616168,11.211135673954752,27.01944855013234,25.396185937619343,4.86461380137265,-13.108108565541512,-23.63147839653997,-47.38360250459439,-80.59336706254108,-85.68684992597352,-70.92427819041401,-76.7546135776575,-90.71253654499668,-100.23520281772869,-98.1526884872675,-6.44937529452983,191.3774244494638,384.2426178795062,468.00108604223635,322.4816058642303,-42.08460327642412,-260.3801970870342,-140.41792296501802,-34.24890625562745,-116.01004599433104,-129.36438595005484,-50.750858582725854,-53.197134964006466,-69.01236917373247,-26.936365718573605,-12.191162325424528,-23.358363327699507,-11.25713304321611,-6.160402347123483,-16.276490396595428,-10.967976351358317,4.572332633389486,9.583442770786593,7.213159562788542,17.030125831013937,33.9248716359715,26.73492630898301,4.510585524619757,1.9416704370602906,6.821780937210592,-0.02012486790412238,-2.348188548033029,3.0573326068297817,6.16287303385737,11.90275411627721,19.00777657384276,20.382208510708217,12.721431395613195,-8.53885186189699,-27.385972255468054,-25.118488985890075,-21.34373897692026,-29.66584177497744,-30.721168259842017,-23.020527487807716,-17.92006993485221,-9.370395783467716,0.9810448250932282,5.412256716943881,7.411032152351252,2.067781283837771,-11.110091139971177,-11.977122350778492,-0.947898911423124,-0.6705928582883249,-8.978926466847584,-9.961918860351961,-6.49344445405305,-7.089982323703811,-11.00368767608672,-12.23607402431636,-6.939653791964748,-2.1953722793716395,-5.552238963427936,-8.367496146736567,-2.533208019709317,4.5683444807216365,11.477534036345876,23.828098923479033,27.592448245453134,9.46834607888611,-16.034579467034625,-41.948341718324954,-70.19381791794892,-80.0027874199543,-74.29352932580258,-80.66658100134956,-88.19401228010727,-96.94991273955996,-109.09667735180588,-38.60238782571049,149.34695175177916,349.32064152779446,460.4392136483487,361.5863736529037,16.667809235927884,-243.8829356882879,-165.64206961111117,-45.052524879132534,-104.83016028258506,-125.3622371456284,-51.03428489162738,-48.2526447563786,-68.72370449229065,-31.469746475377445,-12.398683371393396,-21.410213274384606,-12.657744939217922,-4.440079403040214,1.8503435219710145,18.72366312478189,20.551859112387852,4.4140619642050964,-4.113306678814936,0.630391782299025,13.179243424674283,25.156302278885967,24.420388453250638,12.856894938066926,2.194368423074452,-1.9686041899642703,0.7095524508064041,4.745769134999657,3.1421413329237398,1.7456545352917336,8.580397149585705,13.27981045948729,4.676527360754143,-9.382059705453525,-20.117651067214634,-27.21412645634474,-28.816383062240476,-25.780832704824803,-19.948660281784004,-10.430745950944388,-7.225148918888362,-15.594136148967838,-15.52626811320679,-0.5861786839931771,5.641474280844946,-1.3351040875154432,-3.4137425549452054,-1.015608780950707,-2.2480185065278473,-0.4930967643853954,3.7650032151226442,0.14482011152232488,-3.5012956398157637,2.220764196951441,-0.6372838061331088,-18.680621407058155,-25.133274271998165,-16.026285837350052,-14.622055324804624,-14.54066943136933,-1.2850260155061566,9.181064513728254,12.801899209104286,24.551234371319993,28.68691517630736,5.6579130353344205,-22.265922120646408,-38.46677200722046,-55.10217921204139,-67.34587451194498,-73.27442529680644,-89.1089049219065,-95.82068887152178,-89.91176781737465,-108.78990163894943,-91.84070117565761,54.029376636119565,270.31572587107786,449.8666137829974,473.03552202352967,200.3785094039544,-170.68902260472666,-231.1486013043837,-74.94318062704919,-68.01564968722664,-130.21515733471057,-82.2052534631344,-56.52648147969491,-86.47895637619744,-52.55829493063614,-10.78606617861955,-24.795221552127103,-22.32386211875222,-0.27095441114676433,-3.1854935851186816,-2.023626512604033,14.429655984559353,21.264406350080368,26.48801819049585,27.665266915383437,7.39971413810248,-7.7648210506225475,4.261902615626473,15.642438312496257,10.178665585867714,2.167996201348731,-3.520779736993454,-6.0499546039894865,-0.5677383897408774,7.259870479180812,10.97924518410095,10.978296891803144,7.4493124498282235,1.9771693107712984,-6.335260149907667,-18.505895377227382,-25.322824369716127,-22.973124266145625,-20.076378714739022,-16.211695763243036,-7.894266706321449,-5.525805481772981,-13.7426914471149,-17.75906707841028,-6.920758886601053,5.459148911898698,0.6952368685334385,-12.38020176154442,-11.395820503404792,-2.682247160642987,-4.689851195219262,-10.196441552009981,-10.68340037945262,-13.468120663040757,-13.98268054304275,-8.891859515219425,-13.455348336624327,-21.15481326081764,-11.274236604044088,-1.3411076572544083,-9.016958832526573,-7.245070851087219,14.8637302079918,29.11316319393119,31.86167688907027,35.00403865251194,20.174822920279336,-15.636904913659759,-40.89384381357301,-53.230560561926524,-68.76121409515352,-79.71279744572382,-85.8145785349979,-87.4621730041791,-80.41250800592604,-96.61718822283743,-110.39110483964205,-10.172325464127624,198.15143996429083,394.9952468798689,481.04707345653765,325.312879170326,-29.007917354897096,-217.16481462448937,-127.68236346072507,-79.699450209586,-140.7169010312504,-113.51539322544377,-58.02275773453538,-77.17955293929369,-75.18216212283785,-43.28943724644007,-42.10403876899587,-28.345544544060697,-2.525027546875444,-9.031248764814713,-7.824903736697035,14.279615332927609,10.730789717564592,-1.3288089678992767,9.246948391679757,16.658910070008897,16.964722409084267,31.354243887991856,40.19437135857397,27.267904810514324,15.135866249519644,10.77950336914785,5.235801784692421,4.9522825912056625,7.144656101886573,4.348172613654111,5.620241611739772,5.130539686437029,-7.876866539024016,-16.22801827011545,-17.801121247052876,-31.126715751319512,-41.79013068540943,-31.551029592515526,-15.978787256114217,-5.715173791986846,-0.6847734883224206,-6.605701303606441,-13.46767193349417,-8.437934059664315,-1.8058960317708923,-0.9390139309211243,1.1123829736835713,4.771215595569975,4.640336075693171,-0.573435210825215,-6.774243817311728,-9.48021830656346,-11.405649258625246,-14.767887011363273,-15.689885967244512,-13.889209439733703,-11.129948129904925,-7.890177200961574,-5.4950459376595475,-0.6694280113915028,6.161474299221861,7.06126056050872,8.17469401116427,19.488686843245645,27.270770769011204,16.56133337035358,-6.806716274474351,-34.29338861545405,-54.42874329863331,-51.21863424308192,-43.42741579646564,-65.92437625075993,-94.18442509158442,-97.63453016007827,-107.62727078631602,-99.02148188514903,12.93010473438028,200.0685179707387,369.3878784064698,422.50242284911155,218.22718149902244,-125.04373849595697,-214.98281493650438,-61.858976631363795,-37.35411402474467,-118.52130554385671,-81.30558650580005,-30.792429869446025,-60.184671864057776,-54.57900890814163,-20.72831999802917,-25.631837181433912,-23.916469012692126,-8.60428469303222,-14.934542557343509,-17.515367813630654,-3.5339251855667335,3.9154494272453295,2.505255457862763,0.9620489684238649,6.277641386874218,18.048866315636964,24.905292471974093,28.59753833184721,31.906936506627467,24.40670827102986,12.177034027057257,5.227933338812737,-1.5897375154845812,1.2182316361469523,18.441342846110498,22.815227189190807,8.062564942675225,-2.2173665332596135,-9.875662747478566,-24.97127573895903,-31.772077268795563,-24.913523543846168,-20.474716459824513,-19.476445555119007,-13.251935925950598,-7.963168625208258,-8.827621199494217,-8.290244417513819,-5.290586093105908,-6.158279474726029,-6.674915301848699,0.6599827531117555,9.63498312800344,7.776763503789279,-3.6066007902885158,-9.552791344523335,-8.26344637755805,-12.096692298467632,-13.754025434176942,-3.775341411019582,-3.3533630187352905,-15.283396284849362,-10.573374807669037,2.455584899311944,0.8833235602399299,2.297001349977082,9.3371794492452,2.8190558834265396,4.012512976668474,23.307097393447386,19.767858594278703,-11.06183983615229,-29.97510947034675,-37.80214306216962,-52.43737406095401,-63.424561554023725,-72.40457317237062,-83.84759865687123,-78.6054720722616,-80.50067859835308,-114.4326251997879,-89.58854716112299,65.8459602315963,274.6133945089881,432.64575612680864,411.7069345154373,120.92261918200884,-183.500754318417,-175.70872168515632,-41.35343564243559,-77.68901619241393,-139.90590566777234,-83.86022266596315,-51.540642693890874,-72.60316493720833,-52.81337487964787,-26.33282786031262,-31.790856316369435,-29.197526862821412,-14.842109047034322,-7.344213245545568,-4.85048126954306,-5.888524677970608,-3.292263778657313,4.2520502183324025,8.106479576855161,16.35159239567381,29.406367515591658,27.718248002988382,14.985312407859947,10.95926819770019,14.967958327517632,16.834661267772223,13.80471400981764,11.051598797827591,15.018065312428028,19.21073957195853,13.799968228915699,1.3278129111066868,-14.63974712580369,-28.467338152655337,-30.942503693431917,-32.22323834144689,-42.17729932495196,-39.15221061902036,-16.220982449185833,-7.195556266885603,-20.597147669198772,-20.23539914923885,2.7187184792483166,11.515702221386121,-5.747312301409359,-15.463273256029463,-4.409218913389688,2.630420343554512,-1.418484089458886,-2.0246278678437797,0.050017485540655215,0.1470286184969556,2.7468410557959704,7.041562585143651,10.173042286519872,8.443393918892937,-4.6799043887974925,-19.895552560499844,-18.624829737628232,-1.2977743507810366,13.059304022747096,5.159124977341605,-24.531126002021658,-56.49431187362016,-74.41803883646288,-71.80927571800967,-68.30931829427983,-91.27640893756285,-108.01111402050944,-97.43048415965544,-110.11784902838562,-100.86073785794346,38.75317087826643,267.01053332627316,488.87066262800664,560.4609449772042,250.6768123093244,-234.47141695016626,-318.19188079574985,-72.40951695563919,-36.572146173782684,-149.97110651132306,-103.60282606119534,-37.08626011926094,-65.48633957526367,-54.02823991872576,-16.97105815284554,-23.303970504665557,-17.659644387237133,-0.5257467433295453,-9.1468644495955,-12.316563365392202,-5.0332886605925395,-10.479258145339667,-11.253567119924286,3.536839099193842,18.14203742984427,27.922620048209428,35.00452638574181,38.81773828421856,40.127641615241984,34.55677524280892,21.139468426056112,13.533833964080374,18.86998221699356,22.515213526700883,13.861424169481232,3.8922152605341562,0.08318440721307319,-9.82283969760553,-32.09975461628889,-49.675896324838206,-47.894079816713415,-37.332281305893844,-33.53591195879112,-32.072555332731845,-22.42559012339197,-10.524486038694008,-6.976988318355572,-6.239660469151016,1.9488593890681152,12.639374945847297,14.447204834793713,6.421634804451916,-2.394343642507218,-3.395551148252048,-0.0755478685471811,-2.63500671721561,-7.085550114438837,-2.8031380148476366,4.215644689669739,1.8040239135955858,-11.205590491021773,-26.648001089740788,-31.23152406517654,-21.230573413162965,-6.653404208900371,5.686712513132257,6.71292037161297,-10.414390942863786,-30.120207003763944,-45.86992948623123,-66.47462813423425,-80.1475843715526,-86.01100886180018,-94.8679326638188,-95.78926564354478,-106.89711239716762,-118.50610850594082,-22.38994026673094,203.29016556915633,442.1374737281824,558.0349969852958,361.69314315007705,-100.97137923138897,-329.39736195529116,-144.14546187923725,-21.504101322991417,-121.87933240978833,-124.21075829995131,-42.84112405038094,-62.71140871839565,-72.48422898611616,-22.272570681781033,-23.35953295005504,-39.1649626498872,-13.145206560945887,0.2297908057515734,-2.7913787584581886,4.906760134483447,4.996333897256421,2.549866269212804,12.124037262339982,18.13823388541847,22.085111763576663,34.91283230562973,42.251642735833286,35.85359104748836,28.8222395472418,28.40072605146687,26.807119540494995,17.54447976825461,9.753874932153579,11.750709987520784,12.507333355036687,4.737496994388691,-4.77632356224185,-16.04440505205438,-27.68234141007445,-32.215907314000134,-35.11907768964643,-37.91380914565153,-28.204244836023292,-11.110243155499928,-5.878283123174132,-16.2975205847516,-24.599895337705817,-7.411094000008264,20.126116713416202,14.961743533140718,-7.351878749751316,-1.3894581504891654,8.797811872511241,-8.418045221142892,-21.774038198432013,-16.73962969794536,-13.031914810387137,-7.015005958794584,-0.7333837558219951,-7.932702878676764,-9.870859558266059,3.3055334967095664,6.755971505513822,0.28830717234442993,6.260529515914395,19.808705133763894,18.62899738460828,-3.673526653413635,-31.184407196990577,-51.59451033797004,-68.97270266484064,-77.67016858133347,-79.76700943322412,-94.56987795916466,-102.40177058883754,-96.4167959628914,-119.11987683752191,-111.92138140275995,37.045702610173564,288.3659695005128,518.2970762379637,553.5074701298985,229.7511371295507,-195.44977341566278,-251.61242199289882,-69.6032305806248,-72.33702983598138,-156.58962963056,-100.33308153391675,-49.908139156710035,-74.50300666173179,-54.8033597084196,-19.472955952107213,-27.652286121010107,-25.150439463333527,-6.663243137991916,-9.560824734126275,-15.11524669606146,-6.84718141560891,0.11905513206685114,1.2928644595393246,4.389765944897147,15.509868411680058,31.755646235325358,39.50496195333128,33.847729094235426,25.044084536237605,16.840814509872125,6.099516087333551,2.095350835964414,10.98661197226179,15.923418931398235,6.264688991030532,-3.311312619482542,-2.8957057069679983,-1.7409321823037853,-9.837509540824424,-25.322925015871387,-35.95104912713791,-34.62361527941279,-28.915118604987313,-24.989949587621126,-20.204948766313066,-13.023451520768935,-2.683079894463553,9.239602513666537,16.314875048171924,16.447962832727224,8.549455617478877,-8.134100642908301,-19.775525990152016,-17.518792423986625,-15.48151215458062,-15.573086767650427,-6.129887377372839,-1.9213514572461854,-16.89063632589939,-27.223061438842656,-16.000006049962494,-2.7052899030430595,-2.736751004641942,-5.971698119192535,-0.8835775187395765,11.671471441625279,23.97669208897535,21.419100704463418,-3.202905876997253,-29.92577719622952,-44.702174029471905,-59.498993681011214,-72.01860960604488,-81.5220216886668,-100.46148974707776,-102.97407537666939,-93.75243308414157,-120.58847600385633,-101.1464223011023,72.33495728868226,324.89927256782755,538.9598096056606,553.3600431988473,189.896443011759,-252.89510982596335,-267.79352973683467,-56.43737650533994,-79.12507185941173,-166.65765290121328,-90.02278615268625,-41.517882009767526,-71.06021760959322,-44.76047605196233,-19.917030423295216,-44.10445559886667,-38.786468040966625,-11.792436702734914,-6.250039516561573,-3.103933991654179,-1.300255275550004,-7.990215674972673,-3.6879109360306943,11.645216091671577,22.646856419782097,29.270219464618712,37.47247656111483,46.35599616688631,46.94161542873339,37.985866776003945,32.130626655839976,30.47096387541456,23.532373829147527,14.180750109384505,7.454558402326038,3.3462712666069856,3.4671471479149423,-0.3976885799349734,-15.822239562020536,-28.640225999150267,-30.55851492618137,-33.301504542140556,-36.53598121611949,-33.612106910546075,-31.30619960297018,-24.77574865786154,-5.871272678082073,2.851224584128307,-10.4849385551564,-17.415837197704455,-8.556579529033382,-4.255752696279435,-3.5882886190356658,0.827722005177538,-0.0049116000402946725,-3.5248738433947295,-3.1126864889243677,-6.419415692148956,-12.733024480427481,-14.223478639871422,-11.206589702914812,-4.539186919676197,-0.7879677744236382,-5.9409649189598746,-6.648295708409691,5.993416570818665,18.21121059363954,14.742600721359619,-6.134345252540241,-32.02613731883289,-53.83397250055016,-71.15454314583425,-77.16721545739641,-84.54796881497406,-106.98860241279405,-111.1780013563527,-106.43610195973876,-126.4456061047682,-68.17319664626646,149.95750658514845,420.59694427832045,607.1664284248908,524.2356054852437,69.7874258318576,-333.3855434350492,-257.75444940737657,-53.679669792617496,-111.0320198079419,-173.36192053302543,-87.96550370166605,-62.792912080266944,-81.8655623463979,-37.27646962946213,-19.74824449319157,-42.512928085584306,-24.983821055279734,-0.7724736728129429,-6.235465108826361,-6.62031526030497,3.628111693283161,8.11710281457356,10.09092396950627,15.615693294372416,25.934568758990018,36.98145846849407,42.878491362881405,42.26616913243454,37.15725572863185,33.425178917002356,32.07417993599075,28.877130355959984,24.838408853721276,12.147641699508004,-15.339624247591534,-32.04431255345763,-24.919774043117183,-23.886298103055793,-37.34920194500882,-40.88277752108863,-34.63397615129124,-32.42515774955657,-29.98960435609167,-23.201142016392467,-16.405259599785108,-12.408840803906397,-10.526586418354444,-5.681444106051362,2.14941004416195,4.882336492020974,3.2620247210982836,3.7639844626397423,3.663074860271971,0.7420350515738079,-0.5262142533074545,0.09409826031287416,-0.6889721246679272,-3.2223093912804277,-7.1347225961232414,-11.264687813717233,-12.675388682422106,-12.25585707221627,-14.811335938583264,-19.098279682176134,-17.023455447834916,-7.616885986964716,-0.43061835715666774,0.2507204043625819,1.9981131921723403,11.86980039693541,24.187674182088617,20.041410981478016,-7.923712799371879,-35.04857044957809,-46.40729790139039,-61.566045351537795,-81.25675983121108,-92.06553780235322,-104.9396952025499,-113.49850470483665,-116.32762298613042,-134.51971629657726,-89.80992271956852,109.91339061135439,377.1056184670241,573.7473596261443,565.3602125687516,215.0174578133292,-228.38054151889514,-292.9871748691103,-102.84846591593508,-94.06550274665285,-170.3832746061799,-107.86745073450976,-58.056554776603306,-82.81443554967669,-54.624573919597054,-15.438525635408183,-25.366028910894865,-17.559195048949384,5.521325751237455,4.036180823908996,6.806959843817514,12.37437247192604,-5.943233772835384,-17.74265116803562,-0.23034019741877154,18.35724637158685,23.490184044066567,28.086966001130786,33.7266327370834,32.316281082020964,24.351908801794636,17.260488089601303,16.480936540388292,17.14313521688473,10.439458180407692,0.8691609152637862,-1.9104904073839535,-1.761378776888078,-7.196167693043236,-18.395110078068978,-29.322721894235098,-31.82670359887161,-26.04863002934573,-22.412471929442532,-21.734448497202038,-16.01689588947165,-10.369977774191653,-10.729741596715847,-5.224511272402447,8.995777191050813,11.88310978014592,-1.4305441465734319,-10.32999158738131,-7.578787373170641,-4.452478418401949,-3.6913812183915837,-3.9293852060004433,-8.390878791305123,-11.406576548949943,-6.887939964157308,-3.2997347994267336,-5.277669108582659,-6.9300254505979915,-9.937945187092534,-16.193505126640567,-17.647704680818315,-14.415841203393338,-13.790390028930819,-11.438078362498885,-2.3349435170156134,7.2850184541367025,13.70487210049518,20.762200139614457,29.249397620091393,28.044131841596013,4.895014463787309,-25.974686851260245,-43.583324194755726,-57.89487344035285,-73.83978343676844,-82.2044520582349,-98.78840243428704,-115.88009171845577,-111.22748415622439,-120.99752879784046,-113.43278505090092,32.470750246570375,287.10147175106005,509.0600333107964,576.1904822741691,327.0120682559858,-126.8381380056285,-302.5370084669844,-132.2516474744707,-61.90148955632238,-147.29683854229322,-120.70801382753042,-52.85469374562177,-71.33887362740613,-68.52682732596335,-30.98326414271505,-29.2363280495423,-23.211883391109275,-3.1781660934920755,-7.520561120757565,-8.907917285744851,5.977572310666252,10.1805281250586,12.888737536104976,20.727191397674225,13.064701809240352,2.3994871549488246,14.749285690937914,32.48745056917974,30.719112215098207,22.497173079350492,23.49464950200062,22.359172845344403,11.212777391989995,1.89712827113187,1.9598273480695698,3.5371959143678167,-4.12210876637711,-20.642233370223014,-32.5949004012143,-32.34675864598282,-29.591137661334432,-31.157915021233578,-30.57057308931213,-25.40845535795958,-20.191370316567763,-16.714718024741664,-15.479223547254334,-12.319226077035744,-1.9102947425347079,5.156434668344978,-1.408042498506564,-7.67228082496008,-2.912594310130755,1.9168268931023853,2.281514504608131,3.046984361380529,1.1532299853007295,-2.0840439805670865,-0.5675044639617131,-1.6229671638896601,-9.211369311826207,-9.984078266971343,-3.6715917107563776,-6.996940863146367,-15.141605042346274,-11.300459829921719,-7.403701195298883,-17.322878881844773,-19.82573501502733,-2.298298546323405,12.19489550863805,13.866556016897427,17.438194513622197,25.00546257165699,24.051583623962166,4.915368071019987,-22.726495666833234,-38.17601797859078,-50.36119339235431,-66.81701897196879,-64.20593474262989,-66.17019297692639,-100.0099956261052,-111.27133705740411,-101.69222233681776,-108.08761386675496,-24.90506094551892,196.97124451042907,424.89391196004004,544.8215277442464,405.33652070647446,-30.531514361532302,-322.33169901017385,-183.6427761392536,-37.123792594423776,-130.59647500511704,-153.35749428067487,-58.23587476934661,-56.331276403088516,-76.80793781937791,-37.04978433400777,-27.130696004066564,-34.185156985910865,-12.521801141258772,-6.7411046369586085,-13.580623313921887,-2.2543330644608215,7.220843055799065,8.854104264363922,13.239504321797364,16.05074883647115,21.94808059890982,30.145131146427346,28.175939779589307,24.916990605997448,30.45923418962747,31.37587244300086,21.59136322941862,12.495196202356116,12.204033309427176,19.49149010423158,20.712189365189626,5.6226787173801736,-9.352218536919377,-14.6538006191445,-28.372706072588386,-44.44395079629754,-38.6724057848797,-28.557949540713963,-34.218921191507675,-31.75030680901648,-13.652717887394077,-6.467500123536112,-9.52111596274915,-3.7706369028658013,4.667645427798661,4.556871205512833,0.24106785722405277,-2.37069705561753,-0.8528248068400082,2.3787868391884555,-0.6742834100754553,-8.23757557500057,-7.908787315537024,-0.08181655609365812,0.4404565332120516,-9.665359958252523,-16.989873410650386,-14.866363981720013,-12.013849504093741,-14.155079455767424,-13.79003951386002,-5.4165552505329835,1.6514668093029883,0.7988646070734031,5.176837840921879,23.691082875348133,38.26719169001843,26.1022127353391,-9.858006956273467,-41.92388823311981,-55.826930171873784,-68.81926889675658,-83.2739698936364,-86.03100650820105,-91.42465993946806,-97.57530854850503,-94.1814228670955,-111.87711942315447,-98.04377799787255,58.11966609076083,295.68166308788545,480.71578871269594,515.9125163974587,247.7534353734291,-185.94209654822802,-298.3797130600036,-93.79350315520702,-49.8806421644668,-154.67347502833204,-113.17081076487075,-41.65189550889174,-72.88393487739926,-69.67975130311267,-23.015267966145487,-20.733572033532916,-20.53711128476981,-2.1465174534344005,-1.703317961018147,-2.616600428558602,2.4822559582447727,-3.082104986083534,-4.176228888468149,4.475871154071828,8.728014432001867,16.383094418814583,30.73093734673152,34.35817738162456,27.199047824741356,23.308706636752255,19.217720656198686,7.394579662517928,-2.0535386880298474,0.35316818220340296,6.982574566886,7.028774450990211,-1.975451528141729,-14.678099056984296,-21.18387319010767,-21.797847226525267,-28.36193722041599,-37.13312128736176,-32.705118000522155,-21.74784628765749,-17.646422501835733,-12.784218982154334,-4.5749259337291726,-3.4652605288937934,-4.092110116085516,0.7339755226599074,2.21682291428926,0.3369121529053931,1.1268394936185828,-1.3962286332413534,-5.860289822436654,-4.0877279638378,-2.0410124641682827,-2.474002294024311,1.7560959652605952,4.357842284150868,-2.347195971451656,-7.477961709151408,-2.5996587419812407,3.7924838459840817,-0.18264364592818794,-17.725694248978897,-35.29126252590377,-32.425163842142695,-14.041144053876758,-5.231638016622579,-7.127344738237621,-0.41114669406842275,14.140955932995663,19.02362806775201,8.474455755539672,-8.560701481676247,-27.657440940953393,-54.61728619679481,-76.53952077753986,-77.16652086395206,-83.66474579040815,-102.8532374735949,-101.91293374462443,-109.40461172697285,-112.33403676339114,17.801142813471245,259.31558677512237,449.398640757785,518.7839012734603,346.7716478669775,-83.24207100344364,-331.3940556359399,-164.80306093539448,-25.158279193192612,-120.08163289585083,-136.87993858812098,-49.44767256061994,-51.761628360627796,-63.937248997788245,-21.260369298705008,-16.860536099070245,-30.34346545463263,-13.177436382992934,-8.153169891672627,-17.194552058961467,-12.875185138379301,-6.542151728264162,-0.3023598267615597,10.899748033651711,18.283803332411438,22.809600950711566,26.839785133405854,26.89009140374016,26.152246984423712,23.638502971057854,14.754614420431947,6.077945922402593,3.248618917826406,0.5983880493471745,-4.080512838458711,-3.3652342642994855,4.219450758572812,7.214339499830368,-2.733519470656635,-20.245564016020445,-32.40669304471178,-28.290978500080367,-15.305641312190634,-13.977531501048574,-19.371744068332372,-11.620083717391136,-2.00431043707259,-4.065013906048591,-0.504181201325828,11.147866683847926,12.276764712589511,6.133675477672733,1.9326573605384425,-0.559747001469538,5.73538052513055,12.029328878572018,-3.1075008593512514,-25.73525751041788,-31.17152179307036,-24.115586426775007,-12.300104712855347,-2.42278204292764,-6.6355332945085195,-15.05436900301449,-14.951174867013886,-14.126713857208038,-10.256116126900306,-0.7662019713752528,2.346924773076001,7.488444762148678,22.05131578672752,24.160226100621728,10.037792267655691,-2.956026260431436,-16.882625955818423,-41.05628516597244,-65.3283682821563,-66.59492508527096,-58.22296507596294,-79.64135614176833,-97.8987052928862,-79.66725280048014,-84.11825276613408,-67.82616360667939,93.43648224124738,310.6757896350595,426.416428030438,394.1304415701336,139.22660784476182,-200.13301272240585,-242.41641853647693,-56.5416523429007,-42.36851972087516,-128.7034048211566,-77.74358529305275,-26.80759893824041,-62.83985650116441,-52.90442271798554,-13.606574763000157,-21.993038844005532,-28.065410607903193,-12.09090074223555,-8.329047715997959,-10.463769681560446,-10.331607986412088,-7.420876758284522,8.912674058591978,23.932510399098497,20.803389648822545,20.60704175112695,36.84065255740689,46.87001959944122,39.199621470319194,30.720040329791427,29.515635761547472,27.888809732659514,23.11249188391211,16.500548851196413,12.106770228874385,15.055190523373033,11.994728995426144,-13.388260721176225,-42.179522134094924,-47.26051668571448,-38.00362998405727,-34.43630324771763,-33.151488535826196,-24.277483029942594,-10.981225204218742,-3.0261231653037193,-2.1279307971902064,0.6025390485388264,6.113374281661056,2.8042657419197603,-8.484366513739225,-12.910091427870707,-8.399935686447101,-5.918755399157497,-9.486732460784562,-14.684942400093306,-17.851117276535902,-16.759584066000297,-11.428854964483111,-10.277184670949019,-17.139101789789404,-14.685949288432074,2.598451262336109,6.3484110790484465,-10.115848612365422,-15.135054135387985,-0.40301594015805264,13.463076885267244,14.68607244158008,0.3913218855442011,-24.745687904725607,-49.86454034203003,-65.13267653280293,-65.99177660276783,-70.4998519534669,-84.03275894949222,-82.40127478327699,-92.34610763932493,-114.08361092666662,-28.093242198019993,173.58794554877906,345.39507189530957,421.9015176246456,307.52032845809583,-46.25119324020437,-277.318082749913,-133.0326827491125,10.318685791567406,-75.44729708031484,-107.09347843340852,-34.44784956119411,-45.41938255468812,-66.67513457103226,-21.878239511767482,-12.649347720828427,-32.614280823602826,-21.091249681779534,-15.33248150986503,-21.40131971162721,-7.448364965427057,5.649827251657806,3.789745463571169,6.947862318150561,16.878938715737434,24.933713121063274,31.092872567952114,31.020862492846064,25.047252080952646,22.595968198188885,18.85561075835328,7.023231913661114,2.536193322816989,8.53899082712119,3.453673124664512,-10.18724293805409,-13.933480993293033,-15.245088287108086,-22.56372506800786,-27.96769126828854,-30.50592302313266,-29.808988535542305,-22.827256779649808,-17.646951488843015,-15.360229940599442,-7.030160134454427,0.8318135654406777,-0.3681105197532162,-2.5914226581424877,-1.2431863518806772,-1.6074509623299207,-3.5861377105230616,-4.551227713201447,-6.143717530784796,-6.712769002697453,-2.470265385515699,-0.7680655777662331,-9.457661313110851,-14.51047053596313,-5.639970684349919,-4.440808319158389,-17.570466476773472,-15.18146102506411,2.365390905045608,2.2910338131196255,-10.908738665343199,-13.097766827352686,-3.814136895892333,13.37705590141081,25.438727027009975,9.636581084327695,-24.17292479457305,-50.40497019521928,-59.719544874438014,-59.10781667219153,-76.80376881218103,-103.63956087987916,-100.9759097279687,-110.42829467719456,-124.05411885653263,2.174477635047552,251.46447978601103,443.53300804732345,496.8080363392993,313.52118608751755,-84.6560103935376,-286.1110233007425,-130.28020691729296,-34.884124194039714,-129.6091704607557,-123.7277853648904,-41.910691535380295,-54.090682199554365,-65.35668482813159,-26.870503632693442,-16.985648196614648,-13.999715966308933,2.0802378628451317,-1.6679505734209013,-2.2816271488353834,9.68304239755776,4.372457083766905,-1.1066217338499809,12.856655526956398,23.998953962627958,24.949089035380645,26.193030153012337,26.46918551180536,24.304416126587807,16.831327436884152,-3.3092345283225537,-26.659335930276455,-34.01597294765939,-24.69063358056033,-11.094159895044045,0.08605799066263309,5.208324919187033,-0.45171075316286746,-14.126848016068193,-24.043649747320817,-22.221877768822146,-13.586184072738993,-9.390104358833742,-12.016307595311327,-11.331552034436072,-3.623876275306843,0.02457039065775035,-2.194750554329449,-0.02980847368420214,1.7354165339749041,-4.16441929170127,-6.099787295037309,-1.8309663986601645,-3.730822047449257,-6.913374571462789,-3.4523828345523757,-2.989853050500079,-8.163121270319758,-10.855275856468207,-12.761117490201121,-17.456344864934522,-19.0862181471582,-12.624039303725766,-1.9375504894105173,6.610686716848264,13.326778864074386,20.860644864682016,24.587364286107324,18.09793235811815,2.248882927285786,-20.377708801491988,-46.42969889391739,-61.430949366985814,-62.13849040427978,-72.96700011285849,-87.03172560121256,-76.80675947953847,-81.77602050391862,-106.41289174870155,-39.35110937841556,145.12387706289482,348.0061901559401,465.5185632256174,329.6147984265115,-47.986792533320795,-247.26342926298952,-103.35210078829448,-15.687849120391007,-110.83050346044877,-107.25195515325566,-33.446526913686824,-61.76898293853744,-81.09812157643134,-31.039457395840287,-14.138964818453466,-15.759523892384244,2.3126110988761592,-0.22555721244975935,-1.9910865574215428,20.332243246810915,13.085575812630886,-20.0576593655032,-19.69757507023584,2.0429255899594905,7.867057524720293,9.590090404238875,14.454105534884373,10.588707000474695,7.607559842844877,12.25902746319109,10.932349949696766,7.110819860809663,15.876058285967973,28.328906052142777,27.53910393632803,16.033819302368013,3.5523928583603537,-8.522315275559531,-21.370176542369403,-31.980758284887344,-34.053401770196494,-26.457750871238993,-20.224537743407282,-20.201230764363714,-14.394729684425641,-5.978983804106726,-10.732756627232353,-13.271382133105401,2.050948242569813,8.114364012492583,-6.661258197815746,-12.157882388570654,-4.031245320117712,-7.720371368506857,-21.766217922357953,-22.57713849023439,-4.694423271437628,11.298219943437923,9.023895381879022,0.6202716882066888,-0.5131706420919571,1.255374009092428,7.188656898837378,12.785038454683741,-6.722795216471088,-47.764482582870876,-66.49627169720725,-54.78640726604033,-61.508144764490616,-92.34520031429165,-95.41883124134428,-89.54860546228255,-105.44797094982123,-49.43176483277793,119.22109607197163,318.6286491012764,502.0499469481941,477.57734557297204,47.59470984504189,-361.6607925274018,-244.654633498534,15.656683694479533,-50.76054533930314,-149.70475930541323,-60.52706757911305,-18.39070890659506,-51.39092906428335,-32.17130462197654,-14.03062336430185,-18.21924560444393,-7.417261322132115,-15.646704132297042,-32.43986361445868,-24.390373535863837,-20.498481291718427,-18.493872825494833,0.38014731936733526,8.270475620818686,7.768218945486053,21.467644649610012,27.771973794510174,25.618437328368938,38.01881935288355,38.9310064797549,15.934585501190528,16.8821615831166,48.00869462352996,61.52109194153125,49.95255679465817,31.090756585590775,0.04925023647195381,-34.251548651052346,-47.916098262731836,-47.09412294664461,-48.60546577203706,-46.01673088672068,-33.47858146302255,-24.570493535811835,-27.972404462910646,-32.390339269786445,-25.381125419449937,-10.566253732340567,0.5576407435433648,3.7056015136972196,2.4704519656718187,3.092040367583719,10.493636515822018,16.28931117106069,5.444318413464625,-9.77484890832805,-6.210192188690998,0.4441031088072336,-8.536327572265819,-9.420740501499216,5.6745400053653805,8.40978456379542,0.7411132631846495,-4.467438312826069,-32.13217541431317,-73.35637343964302,-75.07778166865451,-61.179277070612414,-84.38621844127104,-96.53199648693635,-79.3362600736651,-96.91895643824269,-81.70526296167236,72.60306036741653,293.1058111673645,480.8614298913857,490.3442507189485,122.18697487341551,-325.1884567229708,-294.5033081760042,-11.87107607759274,-31.445852599100455,-157.82863357726427,-73.52691303941344,-10.383000990259333,-68.48877463887992,-52.08295881134649,3.5843398693248254,-7.779262722765807,-18.971555906563225,-7.2948894081951074,-4.18645319459959,5.385582519917248,3.83844704783239,-17.822144254260795,-10.555688340659518,19.585384669289372,23.082278651252143,14.475054866830128,25.564708349780723,38.41327139766755,33.49653357864806,21.336895106592472,13.064830634428674,7.962588077868655,3.2079277221174154,1.21339272591016,6.461661162380366,10.30285709669644,0.3239957321974938,-13.241388659974339,-19.148661489442077,-30.498039512224537,-47.0280468028953,-42.87561327335975,-20.000071588973697,-11.071710168505959,-19.858889307947642,-17.258036896565255,1.9476537102491864,9.456103482178197,-4.513732059831366,-16.650756501760437,-11.318156664344052,4.422149968656895,15.132425246086854,7.745619229373414,-7.558722449731087,-5.1307280490179945,8.639470788126431,4.580859673155121,-12.7866556846507,-13.329493004290512,4.705823231598002,12.105749905904077,-5.404751643609664,-36.20719075236079,-66.84693250712809,-79.27789356391433,-71.60716654634089,-79.80274479121694,-99.67730777739921,-96.5698342902624,-106.88100863779754,-114.39526028947516,-1.9679061377643023,209.61215060514303,410.84385872644793,524.9267655267013,342.54501964291677,-129.11768004955124,-351.89174765043384,-137.11373166209353,-8.737158596221043,-122.40825097622763,-118.51464034053362,-23.386131615915872,-49.4939473408382,-67.22170019924826,-3.7488123722552054,4.753319513662028,-21.717989242208386,1.4189225176636109,16.5126148557626,-7.617517877157127,-13.519289692861626,8.598069065153556,18.8831483206745,-6.787162684935836,-50.25608545448417,-43.9817501720131,30.99069446811653,79.94693523169767,51.89135584429572,19.17543335276953,15.533654272116525,3.015287098442294,-8.563499359413093,3.5753112185864158,10.022691681575486,-5.171914667352296,-16.428238800762006,-11.580293089889548,-15.661780317767366,-45.723761498967555,-61.178844996595295,-24.691930613382176,16.729284916467602,12.014816192192534,-7.131426103573599,-2.7660360911405526,4.076658186074216,-11.460597251304284,-26.716004404952372,-9.487327689231293,15.080516441410083,7.557375634227798,1.6691939100108701,23.056743722239492,11.270928007880666,-38.349905650620755,-37.02138723465068,14.050648086127577,29.143719848265004,4.2097555592312474,-8.060342862518837,2.723014634808486,14.034399437381875,0.6128170946785296,-35.942447194917385,-60.802009198000036,-61.95297992979279,-64.78876927239602,-83.50285129215811,-102.29148963051324,-112.99113922241708,-140.6588016415478,-160.93728584484214,-76.98302865890919,119.17256047103555,353.2278464604038,558.7979081267646,522.7632620312838,113.98994245327141,-253.15331724912232,-194.49621365030671,-38.31558349002499,-103.92829178276253,-156.6060103339151,-80.50645660341311,-57.08050602968147,-75.95171088030519,-47.20438870434896,-30.74894675658522,-40.90285648162347,-27.78654365422831,-3.971971125041982,15.27366317099365,34.75295328170759,30.21645899042887,-13.29601299721789,-51.53022587783231,-24.390437355696847,44.56204388750744,63.836654172809425,21.851489732335878,-0.9049041711620145,19.39359555612983,25.470919069052627,-0.6452112668573522,-10.135926229688515,10.652250496482793,15.780785925014179,-2.419789285703136,-7.223650310647399,-2.046290808476588,-7.179973856630763,-13.479638197318081,-19.1714822549766,-21.975392893195252,-4.860323545779542,8.781412683167144,-14.232482110001333,-37.87232870356509,-19.980175761407033,6.135501758596323,-4.183590494542376,-25.482061938448304,-7.648743672064418,28.121139134870322,19.026185008585433,-19.67716786876191,-22.878145297692953,-0.6896388723149229,0.16060240739039777,-10.245397523631617,-10.629356497712989,0.46603616144342386,34.764443165537195,68.1259991209725,43.928878087568776,-15.162589384344086,-40.08428438770342,-43.59347927596175,-64.64854977352039,-82.2854526088531,-83.95027933067252,-83.03439886701005,-80.33036850241737,-98.44700014131169,-124.66321104448264,-62.00581499868967,117.86378179613084,339.204757850596,489.07942609499685,372.46350312760984,-13.425104915516407,-251.1144301408531,-137.44733380036314,-33.82973467041512,-111.24030692375834,-124.49886455039417,-49.20579629672857,-44.92443567757149,-59.93796232078547,-30.988285424391716,-17.50783045439516,-14.10765316263919,3.9803872229555424,-0.6213130255706574,-21.150774201081905,-15.136969731019562,5.6274820501914515,12.724910155512042,15.654356031692355,25.79864780091176,25.97254134633339,11.228092183928688,5.1710619589000935,10.077753306607178,9.35334021685463,10.000243818968434,12.905651695821762,-0.6214240601879792,-15.640684710728822,-5.699926742790376,8.16572688836355,1.459574160333288,-11.314097066555249,-19.182323066212298,-25.109563055572817,-22.009955893624515,-13.292652176825557,-14.680443285186072,-20.06558258442523,-15.610693257630114,-7.347566297121816,-2.0940848921821136,3.2608518570088654,7.2462034622237645,7.857459722305775,8.947051119885181,9.03488713307887,1.7237592664623111,-8.516007741185396,-10.221143594405026,-7.359802967890705,-11.806414077939172,-15.53371590589902,-7.414523666126694,-0.6517680046347465,-5.93973057162208,-8.685635225699208,6.31115062809043,29.690342907920645,30.79387975853934,-0.22051773972681943,-29.47043370490156,-39.9030339133314,-54.09118146666572,-74.057210816798,-85.89772105959621,-92.29025268623232,-99.64510251531777,-121.57252075476265,-134.91503884187142,-58.867665892986686,124.94782512352319,350.40221302459344,498.68111751266906,367.1613293076702,-20.17793470582472,-232.98358575350068,-108.96740135074214,-27.347149529693553,-119.79770638730457,-132.56484438253875,-69.50048816548022,-72.36372890984586,-63.085109921633546,-14.325067477679099,-13.972357913268343,-26.046415869661807,-2.525979658427584,12.415288296901336,11.119538492096236,6.824100852543509,-11.585184914663628,-20.14509943945466,-2.307456531082625,11.107561363371165,16.406808573661237,30.865005603168658,33.19031335319577,11.141840305137414,-2.9623025452163714,2.2527925599911516,0.6322883009453601,-9.406802676313253,-6.6264962648021495,3.728704305028627,6.421448755459845,4.423436376175218,-2.777617725368934,-17.357485523604353,-25.634829765584403,-25.662421435525843,-29.174096103608278,-25.3329771143143,-7.4784714412432365,-2.7868671979141055,-15.277927072577123,-13.197951874361447,0.13726471820495512,-0.7635602068082541,-4.598450686881616,-0.38406391748322655,-1.2623553384936912,-0.986161183584839,5.991261658402476,-0.10780446656801779,-15.147737353309516,-17.68810405950878,-14.579592034974125,-14.80577844699255,-13.498833754292312,-11.443519649954357,-5.31632201987385,6.251259214096331,12.153161933510109,13.273127902691114,17.36549413090679,21.74961860639965,23.256643717635928,12.31013875982819,-18.562968350264473,-51.180759284821576,-66.54830951481591,-69.43829563695968,-75.03364817078254,-87.67569625728773,-98.1349547903651,-114.27821460180256,-129.82841778947576,-73.56201221159006,93.77707487110135,330.43483132749395,539.6331506163523,483.3768707842303,59.52041567271958,-290.90787672606587,-195.89980283497408,-17.87383290328232,-91.97327140380425,-152.42034133441325,-63.72070782791603,-42.51650858798987,-81.14476175810576,-41.05512341519501,9.1039169093144,3.5120458802962204,-12.42845052840054,-30.458756472727828,-43.847860336002526,-23.191224418716978,-1.7513038546652773,-14.916094782623952,-24.64157839004202,-0.9045782765419252,26.625750285776498,30.642131153511922,22.163964512191086,18.575587220153793,22.165173375466054,32.07118096577725,42.54433677408456,38.452364736709335,24.73122108877582,24.167810705415683,29.219621241395636,15.724803289743495,-10.532904399973287,-32.652348708792275,-43.082261615976584,-32.27619253031823,-9.596171482132958,-8.72989723096077,-31.33285479408384,-36.12672847210196,-15.630577006434482,-12.027180524242945,-26.590431036839668,-16.438611400254803,7.811820138472437,9.510766180420575,5.320915260137276,7.338788124576431,-3.733828074764755,-12.351036021567825,-1.4623689758535372,4.190338176133736,-1.9305565336276,-5.813778404697199,-9.998172831294902,-5.789846696225038,10.724320056964807,9.30196126725145,-10.732295786455424,-10.748430537205525,4.389764898749294,-0.5310374837437148,-14.223860955886376,-10.306657527768332,-9.049994454311483,-31.714456855083256,-62.96073765667332,-92.825330623092,-102.87251923700295,-76.01100776757517,-76.28698503486541,-119.29343380174714,-59.0133747685838,170.2888338324008,461.8025484347796,638.9438435387898,421.4455567709056,-154.56294612715237,-442.257829634936,-190.18628522405396,2.551696088196561,-100.41586834976175,-127.53894223993956,-64.60792516129028,-76.28806482601455,-45.54944634491125,3.7452612800510927,-47.06140426798939,-67.95347655590842,-5.822317415494151,9.78656998948679,-22.58328808670526,-30.28623559035498,-4.929088111821234,31.95780446668493,28.823349057479987,-5.878847799968309,13.586793329924685,69.42407082216008,82.81625496145399,72.34195987479004,58.79715146547614,24.057650226248235,15.481020938670962,53.29800976230035,49.02897823606787,-15.386552745034674,-37.629034827217666,-2.09221218533619,-1.9433047310489417,-41.91722343678787,-46.1526524479044,-30.135667228384925,-50.20033746396447,-62.399974831745695,-23.88050544052984,3.918575070465552,-9.212045334048746,-11.302123701739486,-0.04272444359358474,-8.939378387529992,-11.024455946669363,14.317944986888243,29.954897554713355,17.527766304511335,-6.967314033926595,-27.237157344382577,-21.074435919640468,8.981539085966105,24.357583330528044,17.815207199497035,8.899214448959697,-7.280066287358268,-19.388829030523773,0.31067964153961647,17.648279363894556,-10.204669652413642,-37.368332520085914,-18.534427073346023,1.9880879321125668,-4.484519081896117,1.3143526645580614,16.47652969928697,-1.3948487671456604,-22.18089666291732,0.8112647413609917,16.866868225234,-30.002617425451934,-87.29446919089813,-104.52117853669046,-119.26193163777975,-134.4049190635883,-123.65887894585263,-143.17259075434907,-158.65628072740526,-6.8337770063256045,269.8475447364517,499.08868955556136,618.3002811022557,439.02187567790565,-92.21572432676048,-418.5832904755831,-224.84617466664963,-39.49096896894697,-134.78047794788702,-154.70492801277868,-58.94372539080125,-63.061519472282924,-76.16034514785478,-27.98922515011578,-16.460441849305763,-10.605174201671218,17.367871339338585,-8.732323026976584,-52.4895182374156,-35.24706017401777,-7.51149737657253,-14.327456492014612,-2.0072632272753372,42.40718210980694,52.804402059692414,29.493727733880554,41.133324623216836,69.17765469980897,50.3090886733591,20.281691657242906,23.533825753519857,18.813363718078563,-2.9906546972271775,1.1243778336224546,10.514782683548066,-15.967157457321878,-46.50463979381456,-42.90066111669802,-28.241775598039084,-33.61607100145054,-44.147148434729665,-31.02944296744637,-8.947060503334129,-7.726209558768215,-11.087138971726674,1.1684360779173701,11.226694334728174,10.777479032587152,7.354563605757461,7.6478351904124615,13.621217741828662,-20.23826661233296,-95.68530866618465,-77.94853097999135,49.746904375243346,89.95733069796225,13.717591990954212,-8.282763868163379,18.426086620759786,-8.586725498634216,-38.03870600655759,-22.17003154855078,-15.70774923379232,-29.133456397451667,-30.33032210957036,-19.766351863918835,-7.11534420872805,-4.96262266782178,-17.87229195905455,-20.063664009975255,-7.494435282574342,-1.3789223125678216,16.782832032340934,48.37343319160314,28.634574079832227,-38.35949319373761,-58.36498150189956,-29.104428065658134,-25.06894538479877,-33.43758390816812,-14.777247544221153,-0.4030639315638851,-4.143266083517215,-1.402340221029423,-0.7343522105614682,-7.685653282904742,-2.405139887922628,3.257159629777828,-7.304965267964718,-13.12234307279504,-7.639189544061928,-6.573767882390898,-2.75418103329835,4.761448571324488,-6.257828224251483,-25.916114276491584,-22.181063980459232,-1.8827758165290192,5.710618322623407,-0.3190413783262045,5.759505273705283,26.52969056363177,22.684719323040373,-17.245270356173013,-54.322778490106465,-72.02279671981512,-72.59920928665441,-65.59806608152402,-92.34371728181756,-128.35210731336267,-118.92221261230667,-126.75267683638906,-117.66188056523097,86.66281631059847,396.1530765079639,571.3125798537847,563.2378109991369,293.6688805755412,-169.17041254800563,-352.6017374797585,-168.9172810366852,-96.40066240537033,-179.95156044119017,-123.36868234793187,-37.06002736063257,-60.33027963334835,-52.61280335944333,-11.121463530550592,-20.92711459939528,-26.900392077090984,-14.281264905044084,-17.76932910120984,-10.067518832434864,5.915385108442532,4.377157441406552,6.437299521952941,18.53052096711988,23.004681592817885,27.083053945208736,46.62309925535334,71.72281413193951,64.76685297996036,19.9910643193634,-9.050989165621683,-9.12715422599542,-22.48834141743795,-36.20321600821033,-22.276587646960557,-16.821165905985175,-28.603944426232093,-19.40265611316042,-0.784013607658208,-2.406009121641574,-14.73421011904602,-26.533654763802442,-27.26731204189501,-8.56813157605057,2.9678314665135783,-6.43891602568322,-7.765323589546014,2.930961501534636,-0.5823471190518248,-19.02777282385505,-31.657228256800696,-17.578069431178005,21.21473848581754,37.423116566582706,6.351317372320347,-16.14111591494793,6.828234299878785,23.491019254356797,0.1086098099149897,-19.795772639725147,-10.204276096451576,-1.6868755311144774,-9.529251315720863,-16.016014743588887,-15.343406547408287,-13.19729759990405,-8.485498761191561,-4.956851923683626,-8.059585146499728,-11.196521673513523,-6.261071176681403,6.726938777354654,14.979475050422643,-0.8451610092374118,-26.974789001889242,-24.80371962658687,-6.091971244432756,-16.17801287647945,-40.83767379226009,-32.29034413780897,-2.349550812341981,3.9389185985185264,-7.900249639108052,-2.2189310152908526,13.612365944357997,8.062764499013586,-8.984964799422485,-3.7364084562290207,22.64629352666646,35.215953800531935,21.057956388297626,22.29378068876465,55.24699242128061,31.448798583447235,-87.39406388379253,-160.385121099028,-117.9640852514961,-101.719067033243,-145.84429189188845,-128.94184124892678,-99.66223751597202,-120.36154692104309,-14.036627972627414,261.65641711739585,499.83501797117975,606.2766871301915,477.9169332033928,24.234230760544385,-347.54620325478527,-253.08771942652754,-69.10890461787928,-137.90404368714928,-180.27093964961642,-87.6274161557977,-73.36915130824912,-90.19019744918987,-40.77137503962342,-29.41217831268584,-47.39149640726224,-20.15261099925118,-7.496615243185234,-13.613456352159513,22.574267797867197,51.71769336210062,37.20429788179802,29.650247627457126,19.712585751535755,-14.76029004050287,-10.82713035543679,41.26543279333378,61.86553021841249,42.06313602519024,32.08582225677584,25.332422308372283,4.608567667639445,-6.152869369483292,-4.341255780356797,-11.83929488191702,-17.698251676234392,-7.087332760182904,-3.8128255495759955,-18.270909587387834,-23.388518422967195,-19.89318715465956,-30.780661385419947,-34.7215378991468,-14.209160251825605,-12.579726560236296,-42.28748268223535,-43.98977443866103,-4.767997270573574,18.782116993048753,12.113744127281095,2.455469133674127,-10.67810222893019,-18.342929759527664,9.04057243944088,41.4101084665333,25.14311056379732,-11.395873829338203,-15.94099363705838,-6.931281783297996,-12.544924917010288,-14.234064127369582,-4.221921406167407,-3.4835905133994807,-11.006164741805268,-11.21976521538739,-10.760678487002899,-11.095358663158457,2.6009992988842345,11.507466944129035,-6.867725302569406,-12.047817693520665,15.133979625707312,13.990096992084977,-20.10870237587052,-17.69337254495966,5.3631959452442395,-13.2550862647258,-40.180551401472904,-26.15780338126706,-4.094986058573031,-8.670705738717828,-21.32645988809892,-20.15934400768273,-12.559145358699308,-11.412655937020261,-7.526588076311331,2.1191733492972027,0.1008132525831904,2.9746325196045067,30.425577167951182,38.3621390394854,10.124443578375981,-13.910360283591185,-47.9528731714247,-102.48327961161075,-123.18437222740602,-116.44566053127241,-121.12760318961084,-126.41097909065911,-140.0593097072795,-109.27513652583747,80.10735407893303,366.8724299615119,589.2787097533543,615.3037738946782,291.20981430230273,-195.51182921814325,-322.9968847835763,-121.24837118617022,-79.16645034199917,-164.5973024249455,-113.73203379078915,-70.84706006714595,-107.84966868265978,-58.86698986409603,6.85769405840864,-27.22839817016994,-50.218176965593045,-27.82130258702672,-35.54078376668393,-32.16929099936654,12.84002122396294,29.006080892574097,10.546007402327243,11.644823062532673,28.31911823123458,36.470450273264426,40.490407485064445,41.470744379772896,36.53939282971479,31.21256629441994,24.686168417844936,14.836258420903416,7.680916142799328,5.616496410135969,7.550333333700625,10.620043549154286,1.5037233739196,-20.60829190106037,-27.57202996683244,-13.2123744219987,-10.044416172164173,-19.00769660974222,-10.040182519985716,2.5355766918441898,-9.432487136581088,-25.226155049564362,-26.750873058540176,-28.750145411833262,-29.821238435915337,-20.392867558339212,-10.695517293017994,-5.686335261817284,-2.556184684430413,-3.260351930554613,-3.0101143732791513,-0.11165958494913752,-0.2870835174272024,1.2490925114815958,4.493568566697077,-0.39853635211128235,-7.217912173741404,-9.067205266516119,-11.95656375843302,-10.988662476039472,-4.223940044883211,-4.747409738078996,-9.140864374566743,-9.093657480252528,-11.38634446908267,-9.938061771479639,-1.6445194197474589,-6.486245374436063,-17.463545696127387,-11.233049768234036,-4.817414397276572,-13.156250354020163,-18.02379801206449,-17.043047757266358,-15.177458128759794,-1.478665740819089,13.468255410785483,13.273854162879493,15.66172739817862,26.673642528209225,20.8500153639558,-3.947310201527424,-32.880968976988534,-65.14459373116586,-83.53733049112971,-77.87176969067035,-82.77909760905175,-102.00019916209445,-111.24775909279231,-128.6416132263033,-109.8030904632633,41.507966095980606,278.17735916405104,491.5579513621671,574.9975166341145,332.59829078525513,-129.83360435035573,-299.4141950853838,-117.62597202814476,-58.48701575690117,-160.73572903213787,-131.6507287832476,-56.190574094555885,-74.88307577215168,-66.66362285353921,-17.906002697526844,-16.016605914496377,-15.888440318200729,8.850428717388764,10.643665345647786,-1.5364817241791364,-7.344756796330513,-18.055801544500817,-24.764540669527392,-16.08431793273635,-0.1890024730534139,14.899757869743343,23.589113382147012,28.43343293907526,37.23561100236893,43.40807844865771,37.8337166791539,25.38058135844301,15.308189756053567,13.617470359847989,15.727327645434567,7.933065966757134,-8.90122183037982,-19.129926038252513,-19.132704382036593,-19.723987676957435,-27.94074117778943,-36.69744147614638,-34.531304320630746,-27.950873427212386,-29.386488291819468,-26.68130514289667,-9.235316473385872,3.343757978429606,1.8733090442587006,1.6120351083921172,0.6718057464656582,-6.619302791946193,-2.976257534659254,7.943588104314502,-0.2972071084475463,-14.651427514613694,-8.67659388299176,-0.917026608833627,-6.287626000952921,-3.568754483201735,5.415701528303536,-1.8835886150315275,-13.030578422159092,-7.840317501492381,-0.7332361558941116,-8.394506444588938,-19.71463685232746,-17.420501152299593,-4.338513155032789,4.084160158571823,5.202098710355433,7.491619862480059,9.850813644010746,4.7572243502325104,-6.272962137724994,-16.457854065339948,-29.581660376554755,-49.76187168126123,-63.88270345622881,-74.71513174795017,-96.92497870939609,-104.88377177463238,-101.88039375125295,-127.39737926039,-95.59438145512985,94.073072303287,356.4957565117759,568.0979791099003,565.1431893065301,166.4757053300657,-307.11335001276154,-304.5100869462173,-43.853915179457175,-50.136810594430095,-150.28772547564884,-75.70140882423382,-36.28974855167061,-90.6977353692533,-67.38997758627455,-21.518672325952963,-32.57351007338122,-30.699136059097164,-16.313468714033853,-21.783211051989035,-18.34649205657808,-9.062955619159062,-9.478917064330224,-6.691674006938213,-1.7157948147165385,6.906077484485431,24.608958294758178,35.96560214468025,40.16776914059258,44.99469551130272,37.60045367598357,24.399488752828802,23.950032161760493,21.415283047125133,9.309355963278064,6.313088324272377,6.0184469879896,-6.155136148042615,-17.938677558132582,-25.31677811115045,-34.610578095067076,-35.30285096192773,-29.444746030283127,-35.10724565907957,-40.72838495524527,-23.90637961825975,-0.7329565377579073,-1.3495195508066793,-18.007416957920462,-16.361337861666996,6.24711681474421,16.063834707734426,6.559503397627419,3.2390885676271193,5.790301317272948,2.4883336210910674,3.934684917084277,5.784289170068987,-5.311293699150431,-8.569207569518284,3.5224123296073984,0.7406498684142111,-14.488454576021487,-15.92936219684104,-14.084271628927315,-17.792458426949118,-11.372067541108194,-3.880983007171384,-9.859062766892004,-9.763304651340079,6.4339913693128565,15.086894153850197,4.145510048696718,-11.680308529369972,-28.913993789884962,-55.97056245876074,-75.58230683473718,-78.76301024738758,-93.08605686173865,-110.69112461665318,-112.72446134041355,-125.18273427004722,-93.93535873740225,77.23563375214438,328.30206695498794,539.662557911857,579.1698258166705,272.58653822505164,-181.959330153359,-287.3698738898029,-107.50178181868631,-92.93826788092045,-180.86109918182245,-125.75909778847098,-68.78149484940384,-93.40259590973936,-69.83898420858735,-28.42941379873129,-35.70669515775731,-29.487159327775302,-12.380440838179261,-21.305977835792643,-15.151586997036556,7.664256091112172,8.679549504255,8.679628915997114,23.565835737179146,26.98708049468613,22.30494061646148,31.065295391567677,43.777268860953995,43.54990795610384,28.401890493968004,9.240696085288814,5.084661327697342,11.456074844099712,5.780774353907983,-1.051565793261052,7.929456194245885,8.690163672772629,-9.144000087381887,-19.37990132927132,-20.87262181747133,-28.395121514401474,-30.961191509763953,-24.649265770130057,-24.727780491080665,-28.134121329138914,-20.245208140588595,-6.841679807893598,-6.347372249429878,-14.027872858285914,-3.5048638331994013,15.882484547403488,7.5518569680668435,-9.839716745260787,-1.231978115057549,3.051246608015891,-9.91673999616829,3.450132333526998,26.38696261768026,4.697871953044476,-34.601769033888374,-38.84619492070091,-13.663969548945595,7.23098933878528,-0.44689000506837573,-18.298272580859347,-3.8114981478256436,21.26766781146546,10.694205676604465,-13.629923608799274,-35.877257914228174,-69.83013750177169,-71.9412968152606,-40.357457060619325,-61.2745425177682,-102.15700492419134,-86.17106505363463,-100.65218775267138,-134.25559997112396,-17.36621249602681,187.0983534562517,363.3331392554926,542.3818145967869,458.67595392361784,-53.2895481828364,-382.4366533278692,-176.9147259769356,-18.76348081002193,-144.98087729468492,-149.22586343474688,-42.85243520228293,-57.700324615214015,-67.43899627179036,-20.83416490971765,-24.54307553437041,-21.647608744974903,-0.02632176861910196,-31.805893040892432,-34.29515700691748,32.76297282181436,39.60147082881015,-24.94270401335905,-34.11441703595459,14.842783949318578,32.94167520131207,27.10714754859299,42.6424341534631,52.81516253069972,45.601552765073116,55.709103250054895,50.08608241577588,-13.837820545635328,-57.15622154063926,-17.718630058717793,20.614234431489017,-3.311300353947141,-29.041384288508922,-16.97437890471679,2.349539948133641,5.077435526889481,-18.01475391610522,-51.92857103156272,-49.42902704221991,-17.52707051585741,-12.256340523885656,-21.345091111984907,-5.626680558706836,9.36523839165789,6.7732327199994105,9.530851380665787,12.218861210455447,8.982985587341332,15.022513744210196,13.886165953073586,-4.863919908572093,-12.090312755139397,-9.064864142264906,-14.689710319768967,-8.853452155443021,9.376562494851765,5.349236963713967,-13.784027120669265,-13.016813870230287,6.766568727662767,22.298560835159734,20.755427056171914,-0.028726892235507506,-39.56283639111897,-80.87587275046073,-92.27763025906611,-88.66923623680236,-107.59394353742371,-120.85546144507758,-122.00918302948705,-148.45963248160197,-107.97830370172353,100.52668154966571,380.967555606018,586.4353237477511,544.5050904957704,137.45327723872236,-276.202318443807,-250.45283626041254,-56.82076738663106,-102.13035793878564,-173.86830036997253,-89.3237608124522,-53.28370129688416,-83.67571942073232,-48.3135513030301,-13.81431798473021,-28.7157175211426,-28.269370988600382,-15.73089975727831,-13.599274604240437,-6.537863203520512,0.61933951767986,6.756729106127996,16.2249359316149,18.2512362501374,24.07285646989473,39.32959910601686,39.92588980535518,35.56798590013537,44.3470702678561,32.31666754469724,-8.848146082105135,-29.178874660393653,-18.67473105289206,-11.627571670269534,-11.369856804963826,-4.415868999566053,4.0330201748901535,4.227673144149177,-6.073503249607609,-16.269394531492757,-13.445792443166205,-6.128332921315716,-6.548794801681597,-10.354838469450806,-14.55714933401035,-14.790031061804902,-2.878111481123929,6.516851342932053,-1.687125279661137,-8.649871976719263,-3.1006206774033593,-3.4363780298173694,-10.658262202898817,-7.875241663502319,-2.0057173132743387,-5.9008291367828,-7.63613784431938,1.0008634980472717,5.287457251655148,-2.506571455005492,-9.359982538922221,-0.3883220642589871,19.976025222980716,23.834525650567496,-2.4754667588611756,-32.01134651200222,-42.31304194579779,-50.39689628912211,-80.89791816155791,-118.24962171850504,-118.74436468179124,-105.05488220905566,-133.69684788358526,-122.81924039039671,36.75457700907961,273.7188956006875,483.1768849657651,550.4048548927583,282.43354344867817,-152.4831092929541,-262.2236277728297,-91.15607114386077,-74.77045651318582,-158.57933108830633,-108.37383546214336,-58.863969413776005,-84.6561767430214,-59.11925279439509,-19.062671484818196,-32.940229033003405,-33.19568593737276,-11.741506478459508,-7.918564621019151,0.002479989302019092,10.645470884354717,6.008808272306564,11.445624364221747,28.32017488913893,29.47672439170673,25.691342513652828,33.135142470211505,34.94301722057818,22.081012550010037,8.351007670725553,0.7332512284940118,-3.1662439158637437,-3.4038298271583747,-2.3711681529789517,-2.37944433247867,-0.06217270375464068,2.3935182292722423,-2.876927025636977,-14.332489562755192,-24.655474755571177,-29.183759426620295,-24.963666855541312,-17.85553959063825,-15.415857470591199,-10.033457744595864,-0.0033259082177092836,-1.0486648540626682,-9.744696793468997,-6.853034025839957,2.4382137898825107,5.561293656388192,5.715149263134286,-0.15056739074895198,-13.712305712060543,-18.752392020199128,-12.583339355904979,-8.823268198311517,-4.973776517643179,3.5388021282293547,5.687273616956645,1.0944182190830354,10.939528027436747,42.383720518587594,55.43341394666405,12.832332260520136,-45.62480299896221,-67.79819437241139,-72.767057705193,-82.68450310567243,-88.39533498890134,-93.67613785081642,-97.06087990592124,-107.04996046195902,-127.80316477465898,-73.49448415096438,107.04918462808934,325.3398566885383,487.201360887262,449.5589901875012,107.59455780702879,-221.1403444238838,-183.5379348332554,-38.77395868886821,-93.50751384502338,-145.38408109524445,-72.07321949933444,-47.2719635468208,-72.55150166436971,-52.84928115231011,-34.61289952102984,-34.614930165723415,-16.22530894423445,-2.5285906034865278,-4.270979268374639,0.2675455574770691,7.254732187278027,12.835554431411575,22.766262147298903,29.556410225917595,27.736915909343253,22.94310811492719,18.768971381440267,11.616068479054192,0.2355500843240883,-6.927502769942591,-7.289884977124906,-6.941551648995975,1.3989857089781452,22.100799206871482,30.711312671500814,12.703960237103637,-6.828024987038256,-9.610409318033696,-11.569112269491196,-21.650864135602795,-24.92935738514774,-17.55911329423975,-12.164695711172687,-9.728685984928447,-4.906560366232455,-3.4555181328516387,-5.988233809247774,-3.302763483336234,0.39935629605490774,-4.537838962993925,-10.32787741503357,-8.870095160472939,-7.7796917912669645,-11.491638966223345,-15.11509698247453,-16.15671335695014,-11.895554320915238,-1.3286125103974271,5.471125039400182,2.5005437478424586,4.045773698115156,22.368033886515665,40.62355459403156,33.7589003110682,3.100438123789294,-37.02866733368462,-73.71500586072324,-85.4342860823908,-79.08567701698989,-90.72495682464387,-105.34400146391164,-103.47417768513598,-119.95785926822091,-108.4712519088399,24.347483194463365,228.75789860088832,411.3880798310187,474.79283622305235,250.1580374830549,-129.49020202455068,-226.89320850132412,-64.73750251310321,-44.29697936243883,-134.364151258734,-100.72762809306835,-47.28066982580732,-69.82934704523261,-63.840989259613536,-29.84229625292334,-24.990953487683033,-18.38844738629125,-7.386045114947267,-12.611994533731185,-12.190446022963371,-3.3828787152482267,-0.3723489445814909,4.804280540762528,12.943597600341784,17.251863076994034,20.98570359145287,21.68100825479846,14.382247086918557,7.201319128065295,8.860826389878747,12.785748212207466,9.788353273949362,7.932564752064227,16.860594543125202,26.189907520810422,25.067906482965284,16.51785006745765,2.313628456471106,-15.305419246337095,-27.823116363268124,-32.17971150789414,-30.577298642300732,-25.477505656470257,-20.921851925751476,-16.108024132435443,-8.94342835036087,-3.697325386570016,-0.3312137767142307,3.932882855863509,2.9402947726881603,-5.893240090991398,-12.726847090421124,-9.445710367878306,-0.625913398289029,2.3028240446406585,-0.2308044898474293,1.6671694944529172,2.814254729767095,-1.709111539192138,5.180719730246674,25.02667564180102,27.22024968268039,-1.2472017153803883,-33.30817431889541,-45.903517744073184,-54.37994105302003,-73.55231257830546,-86.87724661744272,-90.09138740919286,-92.25708483817553,-91.8072994325163,-105.95810397034413,-108.94869963633151,-11.399559730092022,177.23556374110944,374.05192327051645,498.8790703650192,355.79390500877787,-56.18550065727719,-272.5606121163913,-113.83105873214807,-14.400913989466588,-115.62036355532916,-128.78637116070448,-65.77744306404593,-77.36133378284268,-75.53733719454326,-34.401124297592425,-29.61771202870415,-26.242811412433355,-10.91180402306139,-17.929678202607995,-13.600745652768397,7.0658936822332885,7.511823631048255,6.275464993665578,15.672564064342387,15.146089338695349,14.184428997719984,20.513757509689174,19.99339946159162,17.5602045271349,17.02166523286154,7.174123831043763,-0.5947813959648043,12.327865422277274,32.92519515267795,38.390153514496056,27.48790174402577,11.201442367827987,-4.452971961301858,-17.115831794014177,-23.227479032307535,-24.44587166936214,-27.392747653204133,-29.95922524201429,-25.006809229308672,-15.683432016381502,-8.796624759208989,-5.404697602457347,-6.547242788879231,-10.45047660598433,-9.972950868903236,-6.3482450515697835,-7.221321160773794,-9.040072918404764,-5.5337581023034055,-2.693342900725428,-3.9153928808957197,-1.676848823589161,3.6184501619470097,2.806897170314583,0.9455977966543401,13.101375988190915,30.592045047118425,28.0146065918698,9.31662840639838,-11.597082183864849,-47.69091877559755,-85.27237392925461,-91.54512146754777,-92.39540082463232,-101.01529997809726,-91.30614872475718,-102.08105106928156,-116.46965039406216,-4.883902284940703,208.76367919914625,386.49261798759045,459.48380073896897,287.9765025063233,-100.95763816290798,-272.2761889105153,-105.10910762011417,-30.71523454929782,-131.83162436511427,-117.78047830238154,-44.8861111613098,-65.91783628264642,-67.16948557302089,-21.99045710679392,-22.660783843393972,-31.635840528467078,-14.269130835393195,-9.517149143879282,-7.1427559442897515,7.334916537292438,13.00068251688008,12.987622070510762,17.976655784872793,25.124731158727734,33.86248690466604,35.817893410542574,26.450288473454645,17.01402586467814,7.883761824325427,-5.848986845197945,-14.213516838136869,-13.442251882288957,-10.386924534050515,-2.5412072981694354,10.058264135358904,14.73292827490716,6.2114838927637255,-8.123221592645406,-19.644023155988467,-22.774463090333217,-19.696480438802304,-16.567070692219914,-12.511964916121189,-6.135991836840825,-1.5256464885004046,0.807948729788925,2.778878577277389,2.7159552742531528,-0.6281672806396301,-5.561172252490492,-8.190298355651429,-8.119296686465695,-10.033439326844622,-9.130751615570187,1.5742341984193402,9.373094353899779,4.5313208578960325,1.4206168187356374,14.614537721555932,40.03002578327103,48.241126545208004,10.927922046814125,-45.07912417570854,-75.05161750068238,-81.70562148432151,-81.70824309858105,-85.6823697410297,-99.31257399407588,-107.8083962735279,-128.43290137005044,-157.20948468410725,-75.62543368539667,148.3483598889403,383.50661294434246,537.2305181481124,465.8463125864796,72.98951815049226,-264.7884357688407,-195.3202583120754,-48.88669223853748,-120.01842316500573,-157.5128023689735,-74.031706519638,-63.78798078831987,-84.56097382672108,-42.76753553270131,-21.717117139578836,-31.528031131538967,-17.239607258194226,-5.3979155601640265,-7.671190843325556,1.5050732175450214,14.015557762047766,18.04346945185293,19.562666218451646,21.93888172659112,24.07594760919539,23.328113834523123,20.8555643729175,16.4033738758401,4.373957536802749,-8.420070752326977,-11.301883547387654,-10.305103831572085,-9.128474229201844,-0.44732104691790076,11.032248613720032,10.704687951412803,-1.2184713773886333,-9.30005179438513,-8.486969410374568,-10.90695091901716,-18.317233738898285,-17.220062222251194,-9.352474539269075,-8.69460547422335,-11.461123065966179,-5.330392812301546,4.178930889059567,3.7758383395594777,-2.779981058818249,-1.3085898351054874,6.747600960359236,7.5009871747084045,-0.5264574427778044,-7.576920119215849,-8.356540164717002,-3.5114454102204427,1.8800458429334626,5.01951723062939,8.694335043431238,7.2770718297798505,-0.010021347807693815,5.168239437624795,13.6785262169073,-6.412094038265966,-38.75744608342196,-56.10761315315109,-70.8560214548741,-77.93314467006341,-72.57383183273518,-81.72619254785388,-92.03654017839251,-94.85867319484841,-113.2729412047806,-72.11441033459337,93.56206694862769,297.124968190966,456.1202991058813,444.0424238575717,115.62181384333867,-238.76687980482617,-205.17551894268001,-26.367058562249674,-76.64412398297071,-149.48996153750483,-73.11701537620323,-43.21191802611724,-74.79472709478304,-46.103613426872144,-22.591767486346697,-38.83408086517077,-28.580802753175846,-10.01031095097667,-9.828110486448505,-1.3306176784062203,8.282506237285958,6.832094911087459,9.405709062825292,16.212609465457348,24.373456246213507,33.13509070418303,28.202201705902716,15.798564107639347,16.258829307105415,16.6689695031597,2.517653747924293,-6.045331375451984,1.6391843872137777,10.784446230529078,16.788410696779234,19.884733308432804,11.365192509024864,-5.139237390523627,-18.17740147328247,-28.16205509304374,-32.08527611353112,-22.766105710382277,-10.857611318983428,-7.000742784008878,-4.105395545287532,-2.6040053140745165,-8.074174674370738,-7.913952947163608,1.553481645226789,2.219892067507561,-3.622482189927558,1.164013680299428,5.654312845979401,-4.5665557573715425,-14.64723910308396,-13.768476790152883,-12.327940564399903,-14.428757958205704,-13.904306756104637,-5.443339738891691,10.979840414597426,18.369743875851036,5.744632296534357,0.22204559194078222,13.421818121528386,7.311582556103701,-24.91057267877695,-47.080704461354905,-57.3087961050445,-65.37667178345109,-65.63844119886609,-71.81102774146186,-79.29090519858184,-79.25300762584716,-104.92424325440226,-106.93800067568642,17.97333193375691,221.65616634480523,402.92019777576803,467.1582959671626,238.40595342920219,-158.74886423362858,-257.59347034490645,-69.50781226403117,-36.11464978617225,-132.4928849440755,-96.62555524890598,-41.66019990646666,-69.44309834839846,-57.8042054668497,-21.785300921913,-31.563414982803792,-30.999409556476856,-11.95606391683926,-11.141487750112608,-3.000293327790466,12.447386604594827,7.593806867793123,2.474014197648576,13.421437471213986,23.49777703055212,26.632401916404433,27.868800599103018,25.076215652549827,15.420751539985204,5.3531577220770235,5.017406824917654,9.761568207464705,11.237172007322915,18.393611989052168,28.963893753232444,21.987955492658102,4.602870360044294,-1.7754462798360864,-8.10427178030048,-25.056944243676938,-35.17558577488795,-30.6173954852418,-22.11943993596479,-17.22028164511655,-17.165953113907,-15.434742253469707,-9.096630984780413,-7.089098282245979,-5.458869578155332,4.060812908764898,6.242550510715902,-3.561387368580638,-6.670564668607671,-5.00631906694349,-7.748525565091999,-4.9258423010135814,-1.3534891303810141,-9.486133429288214,-13.378529481976761,-1.4372544177696476,10.736610731578299,10.995350826950583,-0.8824479702999675,-15.106725846693202,-13.48784690505041,3.281103526892661,14.26585543747714,7.0099680634595884,-14.007865243847087,-33.8339644049631,-46.423875895402475,-57.450805745768356,-63.88743630433052,-72.46119063182289,-91.20999490836448,-99.95099806380966,-111.65253669589345,-133.5595764115407,-67.08567096150927,126.06272133244386,347.7777606425627,517.5434851066393,466.3300552764722,70.75948260593131,-280.5631825168565,-198.9913841014299,-25.045693398395485,-99.43088808431818,-158.31840829802576,-71.87904891514856,-51.28497730506774,-78.92893920625173,-42.54490498489064,-19.34619791776302,-30.187977709157288,-15.62480036393777,-2.96605999844995,-7.209628603754311,3.4057915169188533,14.997036202484399,11.453771586870278,9.451496813560976,10.929822010513712,12.334193498936866,22.73477105393143,36.39943711526509,36.018211917022235,22.6617056645301,8.64436642581853,-3.3685846316666574,-9.188165482804985,2.10291571580602,22.558758455336374,28.14963758893815,13.101202055059671,-5.862187817558123,-11.167183218164869,-5.495990481760773,-13.303159367173063,-36.46130201662391,-39.61217502821135,-19.12588075323638,-12.10940432900711,-16.05078876070708,-3.6594510644665803,7.334722289310639,0.8076187203422647,4.012101313899915,18.308379696529453,14.15563121309371,3.3007502374486277,7.935116204978272,5.375826372341946,-15.551568731050155,-26.455316968421606,-20.7526266606855,-16.48278456587134,-14.184409372728021,-8.978259741126639,-5.914629581470226,-8.335187491737628,-10.841362978009153,-1.2794020348786077,13.930888367029159,10.446789217426812,-9.907766463801384,-33.80071320071267,-58.740537796933346,-70.53815736417216,-78.29732759943468,-97.11499859620584,-93.48408478045774,-91.98707508346115,-125.40706050410222,-56.9441262834423,170.19861589292802,388.1962649630308,508.21286997601715,426.85302802934456,15.169072518515236,-346.31774209021995,-226.13259953012954,-4.368115119849939,-81.70205271416668,-148.15690487839612,-51.55273055570008,-46.39696099550001,-93.05151987365652,-43.10437654205565,-6.5481052042188,-21.980920850202672,-9.99143768507317,4.597300509482289,-0.2578532638447122,1.9332216362885752,0.709126510145933,1.2529411304939932,17.823870354584948,24.667321192908002,20.5577141632272,29.808425143408968,40.51886975542765,35.48429849389011,24.391378869017718,16.912325199830164,10.65669969180157,0.052722379708543876,-8.091802407377182,1.6240411371718295,17.11915053297287,11.959259239588377,-5.898195365386037,-18.363083217677843,-29.28838270145115,-33.671182509469475,-23.82439385256866,-18.82997309817401,-24.653009249514664,-17.50617952760777,1.0454048199744204,6.533991341037983,4.484925249245983,8.92420473763542,2.5948729393229293,-19.37265545993433,-23.618610424296314,-4.714645905073134,2.1160810447940417,-5.932031477795519,-7.344741354825766,-7.641954362743874,-6.619575979046845,3.8590735726968948,1.3880871869060343,-12.863917914634758,-6.4566128033096515,1.7055747496203981,-11.3569805626361,-12.42651375773964,-1.0100698579300058,-14.488223483054778,-40.39788758062922,-55.01525066867874,-74.34389838171273,-95.77423500339209,-84.47167103864126,-63.2778684504506,-90.69532651104535,-87.39237582231402,75.54529530417318,304.6243809009745,435.20681337812766,416.8509046961278,149.39871794065704,-267.1284693220234,-360.7261260881556,-87.50187826585895,21.160212611069113,-102.77390273666572,-90.19327786626977,2.894568672566564,-33.043862099949955,-73.79578326084862,-32.83569120500908,-10.31148725334932,-20.944450256571667,-19.91925450930192,-9.263286199373876,1.6869196816612195,3.636604583188303,0.5723728130708712,9.431108107900322,20.1952095250162,25.975026118298302,38.92642239127066,48.18005097425676,43.23933068833931,37.11108561781729,28.25425366854807,10.281194185491564,-2.8528057968368707,-6.6752279869206745,-9.948506320447255,-8.432829617314543,0.7668855722185359,2.7606086098846987,-13.53135037854123,-35.909301566889994,-42.619044643479725,-32.842778365919436,-25.241165305378797,-22.599696130720243,-14.676752329987124,-9.676476209348717,-13.715936092799435,-7.535945970184201,14.017269070456647,26.594489473484884,17.863850649023895,-1.031661880584128,-17.309342044922083,-24.829958067363243,-21.44679909923387,-7.0183443698321675,5.3248854033504855,-3.9019568276080214,-18.719437873458038,-8.846079384887979,7.1684103419298175,1.2964447192607338,-7.922994681922752,-3.3557651742373658,0.5731389637914681,-4.949155353748381,-13.062788256817214,-16.08088375259016,-18.064171452375202,-38.70711833180208,-69.80641572847043,-62.600826969461686,-32.63281446457632,-58.77444160745939,-97.61182393490016,-59.499355003096824,-44.99130708950457,-91.52426946858087,28.54574603100285,331.89881690404115,507.3612101316508,398.1727999638739,40.410711598255766,-365.36960115260456,-393.91855174067746,-64.02474305987216,49.188053049340326,-100.7124412482938,-83.63528203753452,18.617081188499704,-26.49445288743457,-48.74572382141848,5.66815949101224,-6.2213833413930715,-29.355424476261618,-6.099443475346396,-4.446290978921834,-9.601802420957714,3.734347228547832,0.3191152165643669,0.7909917044326162,24.310987632415824,30.597609698170075,19.61296192282412,27.173690857857153,45.031435209813985,40.663068530485056,12.087259761759421,-9.803999829878562,-7.671051699009363,-1.230202910965215,-1.5273664888380205,6.041212786572283,14.738377636366534,4.856486302992111,-9.330729999781745,-11.109102303089523,-18.306035961456256,-32.87068500125582,-25.562123391800718,-7.190202144474322,-17.15017592475981,-36.33515619900844,-25.619010732604174,-7.684904312640823,-6.912357686470045,-2.8964615544322694,3.616848071701611,-1.9508585340404636,-1.2007819019132535,6.778710580162867,-0.04785079124982694,-5.623294820506834,7.283476598309196,15.137970466518459,7.957177085087292,2.4348029431693456,0.2361658564143898,-4.704050220638006,-7.353581849341801,-5.904860091821641,-7.004336279949101,-11.191756909108012,-11.732729126390003,-10.257236559394023,-12.141052666197519,-8.783846742328311,3.150919553790363,3.6842432983885978,-13.470412769198086,-28.727807899303485,-40.03871975225197,-53.874192836958564,-59.07568410068556,-66.50346693179429,-85.12398510460213,-80.57417346210973,-72.15431073418672,-92.93226941821158,-33.5723068004414,168.54683175525435,374.4339922279083,466.8045923415961,347.0354703341197,-41.60692456768644,-345.8419488204414,-213.12205346081177,9.129800344198852,-50.61792716843469,-126.10970091674086,-46.10189175156202,-24.252778321683948,-59.278136823982045,-25.787144258715788,-3.9623995204629274,-25.94872957859196,-17.184281599886233,1.9426681713053906,-0.7279662113121574,1.4649063606913213,9.667924489465921,14.621830652977462,23.388685066632668,32.428952805222146,35.69141338890589,31.34400022760126,21.072362086906917,13.344022152908043,7.650028909935446,2.2366023937602426,4.982660370981004,8.680173213830663,3.004561606179414,1.0559194189360257,6.4691962224728154,3.1435844968573057,-7.955295205630481,-16.388670304869144,-23.1261018973355,-26.058774887138494,-21.025950221189532,-13.8362576964535,-11.024562585730077,-12.193209223896726,-10.702406250717916,-2.582950422011141,3.3873881783199433,2.985006499716911,5.120910515164066,6.584747228334512,-1.0888818606823971,-6.8331974866287055,-4.292155794405183,-5.943592817147916,-11.387370960230431,-8.627218643946701,-3.2211250115991596,-6.132010101107902,-11.695286938580189,-12.271213826664692,-11.3499745385313,-11.055884597530536,-8.98254579251564,-7.100846052539556,-7.290130062318401,-9.032377430415774,-13.855770662310933,-18.360083017586337,-18.801660953786122,-19.618052631870224,-14.44486118543286,5.0146344156372535,17.254915375212683,11.552614796337505,18.025182047113553,34.798973013264124,20.281809837398207,-17.20526288860175,-43.70671393912722,-66.51658359306789,-82.72754397208877,-82.89195635301088,-101.27375023066517,-126.97286411183518,-117.04477782121066,-116.95351885283732,-109.39565558682553,49.42339049643438,337.32199858157094,562.6576776582633,576.4681189299977,272.7063949904095,-181.29925761370345,-318.8670993393053,-117.37799158658672,-44.03043841046687,-147.14362542743783,-134.57120597676126,-63.05336562397593,-72.24180994989,-66.09966755470842,-27.434046138126348,-27.891281066873145,-30.176198602754326,-10.148096335699796,1.1770866390326784,10.028770847106498,17.368908120024354,11.444522150783843,8.805732018354252,15.134090628524774,21.39513141757222,31.40234419120821,37.35862224796627,25.27809336210462,6.861168281424359,-2.293030411007683,-4.900653758393645,-5.149031441896359,-5.332121246974181,-10.22776885494622,-11.291805901818092,4.161970974355012,20.631566567199457,14.624196541834799,-2.659486107836754,-9.56061823877718,-13.299790647545748,-24.039857562975307,-29.06297554769349,-22.309012352700393,-17.183158326880367,-16.07842797905419,-9.14658916066828,-1.9023269395075637,-4.9879466243211965,-10.800115276766821,-9.86782802264189,-6.362465744876118,-4.477483323228771,-4.7610705816138115,-7.086367551436892,-5.447284069757359,-0.5913487644429427,-3.927899145472489,-10.914171762454405,-8.547689579262006,-5.118499440743108,-9.144355030135241,-10.617230575191735,-6.717078021494842,-4.315008383599636,-5.337066052563777,-11.701292422693026,-17.900228035820582,-12.384852702518515,-2.130503713540433,1.2656814147822733,7.158263366966387,22.86065830548477,31.440837113851373,14.040168988657701,-18.51440628518689,-40.77399149300632,-54.45443483207687,-70.55076051102621,-84.42573602441558,-102.9220783919216,-120.1554393760174,-116.40735066169842,-122.33766267483593,-119.78943391430286,9.000455523651198,261.89008431545136,502.1914239349721,596.994939545662,377.42084106081404,-83.42696634016453,-303.62908280437307,-144.37470767237056,-51.51194894455739,-142.83685375358445,-130.0622001067784,-51.899076438349624,-71.76215642979838,-85.13257866814978,-49.04544027067281,-44.514052190374315,-40.21004092857208,-17.163623337333224,-19.38781142494798,-19.581448728368702,