ECG,-6.151252789516965,7.950901833504309,15.659681643791254,5.92002628964007,-10.536567914117077,-3.6405992545328525,20.08121092540817,26.190405105835417,19.321927996978054,11.519806299480342,-16.659000819004653,-44.34184896926364,-25.243248964321104,10.752743509574664,10.749887233543625,-14.214866001566264,-37.548971538337454,-48.42686236879822,-38.519423909670195,-19.076019490101217,-4.757027340564463,4.445773256833224,3.4728369003901918,-9.318398240834274,-25.19133764170398,-43.42738198185405,-72.01945118251533,-99.7263250904347,-83.05116839138758,-31.20310129949778,31.619732498369217,257.51931749431424,617.1562462251701,530.4569197010666,-158.35643488042882,-564.4855160942739,-261.5149901281927,17.180687756810734,-76.79391505785551,-102.72084664664622,0.2055865238794965,-11.890305069634316,-39.16939989418724,9.227214521412971,21.34958844705784,2.169135408488268,9.11231191390869,14.613650180384493,13.309589829316828,14.377107944755485,3.855984419755778,-10.773433156350855,-18.88836431998435,-18.5757495579885,-6.599572802788499,-1.528490174585997,-12.585482600693378,-14.54140958501385,-3.039624296223157,3.9425225348645725,11.234978767568034,22.994619023296814,25.26231831100312,22.96831461304655,36.20319786695372,55.125531776883854,47.30169866323809,12.986392395356104,-11.872313537831257,-11.309965506324403,-0.25598028627300273,5.9514177544051465,-2.7910875921274445,-18.646987384618438,-19.391248759078653,-17.793926763723135,-30.38300665969708,-19.21038776479289,15.315141521305994,1.025272754052466,-46.656114660449624,-38.535965683264806,4.706677010233295,20.285213945842642,37.53761147982282,57.2933311808768,20.94490753950867,-31.364211577899685,-26.040411079073714,-4.774515247794103,-13.076015829918397,-18.96460224943197,-21.65108206559784,-42.89782984803531,-44.58439240932309,-2.2416518472170193,29.592500495879584,7.421105965384307,-28.983376900125638,-27.48209835402441,-6.604309692503582,-2.8672067610405936,-1.9884294511365024,4.855895453537697,-4.661867590651532,-18.92420770377451,-12.409187511961001,3.4147530422575603,14.062774503994063,11.853486216981313,-8.365688718623225,-17.914914961573043,0.22018590430222673,10.390962619367956,0.13820846551943156,-6.182827940616638,-11.605961792133051,-20.4675049137687,-14.778170101241326,1.5232145825135337,11.191026205401652,8.933273072747369,-2.838739074582694,-3.485605797900682,9.803799504560374,-1.1268882866531342,-31.431731292167754,-38.24502065289657,-36.678330684505724,-43.18285245179211,-21.4731140996009,16.095147499430073,8.865426069585958,-35.67949226861078,-56.910779076755176,-48.934154086187824,-50.87947721549885,-43.763241526544654,-14.484038378359426,-14.406913502157828,89.50194400863268,435.66628643862185,563.7306013776761,56.12251862807635,-439.01490902766955,-282.36325763936065,-6.4966135448754265,-82.79723290925796,-118.9019109523651,22.393710480913526,32.244707115232515,-29.13258063810175,16.642511569422474,53.697681417799274,32.20640640372587,29.425638683823955,8.392633678076391,-50.03192148416754,-66.81620806622429,-40.34271709785751,-34.78464327891575,-40.44671646526709,-19.923959241079583,-3.287768840990715,-21.907069332354993,-36.800750301831215,-14.431749831041758,12.834517533273804,8.041604235606556,-15.883243495701798,-19.71556014404674,7.772558469144125,36.28346725956197,47.4807653841019,52.40832060378882,46.40244434609077,28.956161809377228,30.702533588810077,42.40433972236184,18.661417883683022,-19.064379780038035,-22.61755912715567,-13.346103694083032,-18.51387810718975,-22.44683999408356,-26.443502608466225,-35.976332071876705,-33.200525841757624,-22.768181688547912,-11.77733694049612,11.340121828366367,18.582166585600962,-8.925519979654428,-17.978591574960696,3.4074949949460733,4.469877790430542,0.9786742729047324,23.759242947465594,24.622111432117954,-8.778872630539546,-18.79006841749718,-10.418828654651168,-24.76317851892189,-29.94513180707821,2.8174251494206453,19.003603413927337,-13.668030715816917,-36.357417678898116,-12.282590342867985,9.134250831458045,0.3793424021816896,0.10328518398943598,15.350263924989907,15.713100674989574,8.357805926414137,5.13904605612292,-4.871479278550183,-4.000969017472549,17.373269864588387,20.486305165235713,2.721176773877631,1.282285401279001,5.241066386528498,-1.4976425204409813,10.906351942197762,37.741149478980915,29.26509706088805,-15.806399828099732,-50.45400317540363,-56.88931157122582,-57.975482886188914,-62.683929662854055,-49.388921073673295,-17.2668877514474,1.2760288768651478,-5.384414994127091,-16.150147702463556,-13.870041789584292,-12.925032782460299,-37.54024704245444,-57.87921051418678,-46.76277498714982,-60.73449222817748,-96.6451604084756,-75.79818035664874,6.710731371749631,245.07207058013836,651.2640870136229,662.1113111261769,-28.664483007479163,-563.3458083951421,-329.0368316820933,-13.453842803828078,-83.26054466855427,-107.96175479145154,13.662051548352736,7.109332840313975,-30.97947224063618,13.53586522212641,14.576749325959483,-19.924892232640456,-17.629686734436806,-15.391573323409776,-7.005341969069535,21.61348181115818,17.44988571566498,-12.944292699207654,-20.488081810248865,-12.989848900344168,-10.80270229689231,-15.519162364192766,-20.82193742343735,-7.293199232610284,14.869735612752576,10.913250154489386,-2.3792166778299357,8.33761545084444,25.284421346078407,38.151445562507654,67.11706259037383,89.33746396237801,65.02510139647082,22.160669748406683,11.975818881491783,25.486364824550108,20.971428304803133,-12.573921842596055,-47.547070498866326,-48.77501501924717,-18.30307216492683,0.4175448285840728,-11.347163613158328,-22.275962028484074,-15.422114148091538,-5.363365462761774,8.25019709360214,21.75502522357435,5.559269899740544,-28.968350118021007,-30.785723680463068,-10.988759427939039,-19.64346034163131,-37.35616012354427,-19.73802182737588,11.160249627235176,20.462582694343098,17.04966644128043,8.557964556578467,-7.212582140332071,-11.765748123492301,-1.761489965875917,-5.960153575347656,-19.88596798727758,-4.322566488204338,23.703193653939607,0.01371155089019993,-57.48931962781309,-50.16415416313901,25.194304509053353,55.379814228276004,14.662874787906212,-9.15841308984752,0.2812024631311254,4.437473505111406,25.728898039586216,50.05619229364225,8.45354830055452,-53.214667706586596,-43.7216244950272,-6.933338587467336,-5.819429570651067,-9.193118824601452,-5.965738912652961,-14.659766405484767,-13.70010702000965,-7.821156090726717,-23.687672302862016,-32.4605988895426,-20.861061672591212,-13.969495573448723,8.385100335337766,41.77561744598049,23.28151596381373,-29.110158821417166,-49.86714535873456,-51.06335879491554,-62.86165400804295,-84.24415279726884,-96.25613965313622,-72.4721845886121,-8.517151913494914,187.87036142976115,556.6013862112039,641.5136581322158,72.00061057838897,-491.64660682637987,-365.6719817248537,-53.169955489227306,-85.70775707017351,-114.1777740188098,23.001516482563936,27.138328881058413,-47.978728132002026,-14.526011226503307,20.551479641691884,10.823304072011666,24.164253977263666,13.701446936191818,-18.68129245138538,10.156660093333102,58.11478578136923,46.45601527493757,11.767268246370069,-4.668311698864198,-32.509048709367434,-70.86297442904328,-62.52784486555282,-7.380647916215763,16.202171793736753,-18.13279038938893,-41.77932528394984,-14.445828541085822,19.6013503009706,27.146776744423516,31.558778404904242,43.620925400619505,47.22463300975529,52.85628266726413,67.4173522554447,52.49190493650316,4.978712151680533,-18.29981744789705,-14.585188529529084,-25.63986287170586,-35.91451640175525,-33.60438479530332,-49.414438663484866,-59.025757923184685,-32.177996663393294,-11.010672758319275,-1.9834260809684015,19.35662393080041,12.227648813240895,-23.20017689836303,-19.837890803212126,5.068544172281718,0.8206544669463423,-2.038572518345104,22.76805966260135,44.20431427660659,33.35466826658828,-4.508287714251184,-30.601219908885945,-23.107413857275986,-10.404894634349905,-10.910381572382029,-16.3296325218951,-22.45739679306416,-16.88156311568614,-3.3568453024292646,-5.963688533589979,-6.70799060946775,9.689693696236082,6.94083426685732,-9.088291067698911,0.8856569225486415,10.437270214565666,-2.0408982093613597,1.0012407332389994,15.691483971485068,4.586636072744303,-13.896385594794868,-14.198349203019609,-13.432140701660511,-14.002206202652058,0.030091022335520634,14.27101877539106,12.53399848312441,10.35092477711696,13.779198616316135,8.689588671919823,5.350328248425246,18.158584106997296,12.021886782383262,-43.62733881812265,-93.8305558406737,-72.34196381194855,-15.768479394188088,1.8300640928596295,-22.2578456778755,-54.04808683672262,-70.95815147271472,-65.27159009086704,-58.51002519984398,-62.73496534706807,-61.974526260478235,-3.3024943711375556,247.61308222816507,594.7604066599447,510.26751047059497,-100.20053431023447,-461.40963645961165,-238.17035702569027,-47.29725804247671,-126.37874611503631,-100.28619674336689,12.185836421866803,-10.783959544640709,-30.229901963698815,37.20281281408934,49.07022786162026,4.303977492742463,-9.120609797333092,-4.517395687166247,-9.70057351826827,-17.891235322644402,-20.324134774688737,-13.99347565445849,-5.990928389927603,6.038729524072625,14.389130518596684,-14.086198583197817,-53.41634875477844,-37.749059835932805,2.6491670165378123,2.7591655682064147,-3.4334041810010163,22.036045448514958,33.38109506989045,14.125235335675605,15.562240881811235,51.633077443099154,84.33833476061787,86.57137538469692,52.79463277534638,1.477088132961578,-26.50208563597105,-20.987779082768313,-17.309369814010914,-29.908731605187256,-33.154409517777644,-20.990157839462707,-16.76138670699224,-19.073836284944676,-5.813239130086723,9.19501963903445,-5.38407321041009,-28.15439617143123,-15.020867345789387,10.882719597223018,-0.25527722725988156,-23.283815926397786,-12.725117868753838,10.289875418468664,23.260470263951916,32.46973283250935,21.313290149186034,11.445604121783745,51.87499526607692,65.80310927790143,-25.482182103060968,-94.77869506441128,-47.0013570236529,-12.686340014801154,-55.27182518194121,-62.167873541130646,-17.96785200126734,-8.043958897876212,-16.36553246665293,3.8357470733230716,11.900085716332445,-16.482172890550164,-28.564229379561265,-0.3512813180678416,26.34883490958898,28.58209910249958,21.11475603313785,7.382847377109462,-5.3441559802112195,0.2578925483300978,-1.6411522110289667,-37.208875336868985,-59.96700125491591,-36.43168239392036,-8.095152514680713,1.7441931192648354,4.496460425958457,-8.700755391126297,-27.483303773390908,-30.459888461047665,-36.512739041301,-34.33155650882314,7.633228241119699,36.341336152727806,11.307677828143925,-19.554266132574714,-41.096829603814086,-54.9311159742215,-44.1742625251476,-55.53628412104726,-85.93175253666364,-60.72816120888267,14.475649483570265,216.182439383389,541.4753695402969,493.05380596330036,-100.23798329502416,-443.65352564522726,-173.98030381257564,26.55790038099567,-89.13773547610073,-103.74016369098841,-25.916762650771787,-49.31350324881143,-40.14361446259488,22.96675534470661,20.142463199689654,3.0050351610559787,7.543216334051218,-6.629985194794495,-9.511769931866393,-2.9526755935690243,-19.884937842013652,-15.403275081356103,17.612278304002924,11.249931105851584,-28.7552041025639,-33.880958053464255,1.8926074025495043,24.924742485998912,8.62265801910224,-14.781213026704972,-4.985065031846589,29.669943125929002,48.39783032686845,37.96024063891019,23.60206936807517,18.17624360314698,9.33386598506246,5.225429401648413,22.03887606973616,34.019784350729424,13.363364734824321,-16.169380919666395,-25.41617322798416,-28.534010789936044,-46.86826931075842,-64.37826456490224,-55.76114089035169,-34.167377090077785,-21.240700639810626,-7.714671462112838,4.115498116379399,-5.4754779446457995,-18.4155719784723,-11.781785742054348,-0.967252611125013,8.4165930420612,19.33950055174434,11.928953351348946,-8.665775134176574,-12.707445943023952,-2.974992640369532,5.798279644942758,9.841272555302174,4.414508892697278,1.016715093091034,5.724186677357326,-3.0284610276371016,-18.61475375760628,-14.613386640648173,-6.12025026339807,-12.43276692950377,-21.627939452932925,-18.196512891320683,2.8152862690065437,13.248365991303956,-9.563452498340316,-10.527254259915733,29.87799415171307,24.39807138166991,-24.268024062241928,-15.846033105333419,17.63454086006999,-4.195521198490679,-21.922863627605068,11.443007253938926,26.823721780941163,0.9944880024503959,-13.884032093028335,-8.727919615627918,-12.562775457484811,-27.02075271385678,-28.525081816214733,-13.980136295140142,-13.554798884615556,-25.91798119519766,-11.656602556986265,10.627037764301523,-9.673123618331836,-49.616632891905,-57.13539697031698,-35.92193374162203,-37.27167831598767,-77.8435848235141,-79.11878130879242,-17.846425991671286,45.23177360809021,238.09880177057585,573.8954210665654,521.0168149610456,-86.88560520308111,-461.47366897734446,-240.95967804047598,-50.15223930647111,-126.71492048084596,-108.8092187952198,-17.589803839153163,-40.852998899558926,-49.94278938835553,-0.08745351566538062,2.4044128647752387,-1.1155499418339634,18.539379802034915,-3.4156846813388224,-28.726991168386522,-0.12452938185802687,27.8980772782202,20.821790492135484,6.218330760810662,-16.341675421937417,-41.73456989768886,-35.32710909917348,-13.117997149705637,-15.089734885517089,-16.034220541118408,16.87701224497846,47.358686299444436,37.285155723820594,14.450571956355969,20.569303037493206,42.80188707842958,39.780648984606735,15.829979299127018,13.759006790227403,34.33209083062445,33.19704670020432,4.14436697941016,-11.667115377474648,-8.172929888207236,-21.225336421455197,-43.868648474978485,-34.086281202635675,-6.343513829230671,-6.810419659937782,-24.44259895021269,-25.10989744974304,-16.61945946303971,-12.144158153230485,-1.2649381811940899,13.584439094155695,14.441048284311249,-0.3445015357087122,-13.996918008610512,-6.155261818954305,20.312764796159833,24.704144705602147,-6.463311714261264,-20.24354186692297,0.8462633322774629,4.324830480627427,-10.462737817134466,0.6973501932479387,17.939907087216213,18.682191647742965,25.967363923295025,10.854294466093723,-53.00587543267297,-79.91979712766097,-23.191003532492182,19.845023125053764,-11.686257245805535,-53.47602480593537,-46.24372770288841,-6.144552843470619,17.42660827684095,4.566198432305331,-11.446603380414391,-7.932188965161307,-1.7149268478531035,8.440613030907924,24.16622094373202,17.147835207193985,-5.524813913785117,-15.355455968828743,-22.94699078754523,-20.45200399194091,12.836954441858982,25.737663203682864,-19.926240115794606,-58.65068516533357,-40.369934743545606,-8.126365934806602,-0.0640038423003686,1.9737671663794698,9.617403538981662,0.23742611619632292,-34.51274537049707,-58.931685653792584,-45.56746486490348,-39.86013604052962,-82.17360954823346,-100.03347899975905,-53.066506882794165,9.141954376049597,201.51568937595283,540.54653439718,515.1686598154224,-64.68174363022862,-431.0676451770624,-195.8269212585467,4.568962686128366,-93.48722301400292,-91.32668418498696,4.950010693211908,-24.976078788291325,-43.599256195932504,9.94729353764088,-0.4331955482677259,-38.850601227543926,-25.84608359049117,-4.068291689559128,8.616152286159902,24.005453717352456,24.80403613840103,9.032227585194779,-11.34736076924826,-27.309927277846985,-30.455218995651762,-29.020400947465905,-29.669745412764506,-17.623641216567897,12.904156745127825,45.44521870109692,62.66448470919657,54.33855113864812,24.31979203874879,0.12647400698680045,-0.20802502067316198,5.417570618354661,11.580116541679802,32.67871992473275,38.06064756379362,-0.9010485693359165,-32.122047569063206,-18.830940465027375,-6.907590069629727,-20.537750476332914,-33.34541518868447,-37.271663918344416,-33.14515719526627,-16.730170310967054,-2.469878006545363,0.2977089444035794,-0.07030366654469589,-0.9537516825710615,1.8324163738218004,8.950032304422123,1.4614772248030583,-21.350743908046095,-28.757650266964816,-9.317123231104727,17.029825042813776,28.544107591686505,14.2558150147618,-13.669167852698653,-23.754896669868756,-8.965039073650216,-0.09986525084236497,-12.676927582034498,-17.623034602973753,-0.0064598099195389835,2.1977204175037244,-23.25326490453583,-23.35658008504002,12.803026908426645,25.746096075658294,6.358063542077946,-0.4325383272683183,4.035552518368593,0.9378647525486503,4.6064121226367645,7.696565997362425,-10.625896484884574,-21.54649741894104,-1.1573204404057922,16.513555645313318,10.718343463914396,-0.5827637088037285,-16.904309833920443,-36.932249045643225,-29.902024875701862,1.2828289576851901,9.574894035246526,-11.023488051020525,-19.61723596599927,-5.875550551728201,0.8821707395678828,-14.803038354446695,-34.39129297634001,-32.59453500828846,-15.47690130654938,-12.081529807830456,-19.318917414635223,-7.533779040952162,15.445785278398935,15.952521658271117,-4.9022488060506735,-18.84426867577475,-22.99031429018713,-40.10236969367879,-50.044534275121876,-23.318730987811307,-16.483584949850687,25.550038012073685,303.864588803154,565.3036851301383,251.12011361716094,-341.01038441497593,-397.7975298842488,-81.57122622336124,-42.175442711688476,-134.41899265587867,-39.83326150435901,25.8658262950376,-33.38858557811722,-33.13689568174104,12.256446780302776,17.59587262384516,13.255490911003898,-5.562928321745285,-32.88477371361749,-17.46702878019854,7.253340864904317,-4.10123623181838,-9.712024743490025,13.357352669827794,25.366990726749915,5.556297148227567,-22.73636250799478,-30.01918189078013,-17.507826364342417,-9.016485093042723,-2.329665797547394,25.538290375270492,62.631149008949194,67.85876633765642,32.638598185663334,-0.6692066962248937,5.060982816566154,27.943748936027923,26.22225824699021,6.64596673879317,1.2468352378119922,9.41178869737172,7.452265173045179,-9.761902284383236,-23.085839402729682,-25.628945986270075,-32.91741987021792,-36.573619731054414,-19.05810756904465,-11.690365474680593,-28.082879100567332,-18.00760491383267,13.193115070407226,6.071748156583598,-12.272193539920337,9.448496082078508,34.38230948959879,30.076091587683106,15.677094863045482,-3.507450293724016,-20.94121079739196,-24.32191463405315,-24.459070213118135,-16.779632853824467,4.426392546523285,12.212834269191053,7.10496630485237,3.5356180201725866,-17.960452174500112,-36.660560534786384,-5.71482840034884,42.166744593809796,55.64795049535019,46.84791473137364,31.33839308369832,-0.665348021504041,-41.37911952754817,-58.949179283324554,-39.261446426932764,-14.999683578132009,-15.200220109402295,-20.92375236072658,-19.16729056049339,-22.556192292647395,-23.40081038358095,-11.303119965179317,-4.155473707979862,-13.289936881857301,-16.532420344063027,3.3915201711586906,16.137033049151942,-1.2358315604572105,-9.355819354966206,3.361670163517452,-7.863427356482074,-26.62738761520931,-10.21796696308769,4.404599007453548,-10.79784918617841,-24.50547896583788,-28.95536317283083,-19.159051407510447,13.699004455896043,13.439610440675619,-38.64191000112773,-65.02860116424289,-67.77703447054131,-91.67822068832652,-74.10317369386881,-27.567820369860552,8.660671939912234,233.1004701204344,568.5587128116873,417.35387474158256,-191.46978709860775,-415.7044251041924,-142.0058236246942,-32.325366661991154,-123.2462849699065,-58.389803865414486,31.868220550795286,0.5271520390206064,-0.62107150115816,24.5849137105385,-3.949336997066826,-11.17127183306889,6.1266231888635625,-15.352460719418222,-28.733420425282777,-3.7029841953155875,9.637305144415695,2.796188254311982,-0.09481644915253762,-0.457427998635374,-1.4521291548969937,-2.7639200970643323,-8.928156699070305,-13.496412322923454,-6.416844602311965,6.63487580757522,15.029927612807874,21.055894457238956,30.186198963311362,38.52421334601591,49.41131430063621,69.118769921448,68.50232859416755,20.97622051535489,-24.04830413246588,-13.327931499936781,12.863196974128622,3.308817603222826,-27.236030706942515,-60.354975707796385,-83.05173966151499,-62.27997741043528,-12.575165325252502,8.596860260063414,-0.9663183632663745,-9.12896801190002,-13.755150640840167,-10.017708410142284,13.42774642641658,30.87935748803874,13.66466057646164,-17.071386288780033,-19.336360510107937,7.983755688625277,20.10231748236827,-3.6350119729560824,-24.400931569595727,-18.661562758184697,-16.38701586166459,-28.39835107344919,-28.937293120064105,-15.563705576642596,-5.201582334145684,-0.10469572360000612,0.37791889561414393,-4.8298424940293145,-9.927628107699839,-10.646652240977774,-2.642993157844715,13.641942002485177,13.959324243400307,-12.455616238662309,-22.21884926880571,6.121593313136603,15.631498720767418,-17.930395578256178,-30.25508620593345,0.9937842897680067,18.24637029998899,2.1840101498310442,-15.924754133748035,-20.867618246770956,-7.016429520823484,13.245460042193903,3.9023869760974996,-18.48839917865311,-4.7428870431655525,14.621528772796335,-8.720591832615,-32.707203781657846,-23.394458295764977,-19.57591259795475,-27.774924049635842,-23.933582126109215,-17.417678762016173,-6.923706358120995,-4.298092589114816,-47.52407281803326,-88.88851434277174,-78.83481337758205,-71.12421622565036,-60.149808717016064,-3.6038775551403575,109.65560233055133,393.62287559483065,677.4957528022237,390.65025054513603,-299.00411889164775,-470.41419453196585,-128.76793327147612,-38.5193460964312,-152.0719407164389,-72.41540674435034,-2.7403787490483182,-58.169224280951425,-16.65867924801792,47.978297227234364,-8.91044296793563,-45.952766560604225,-11.117234897940678,-8.767107029568287,-18.616373371233436,-0.6367209573246271,-3.6267568642997468,-18.520451153521336,-3.732264943363342,0.830311300609555,-31.77247007819806,-46.66874265195716,-17.82765656584622,11.398811613202719,15.03332587010503,10.245945862052888,12.335561388568724,17.838736299258116,18.794630641974436,19.772977527744107,34.92196013058867,60.95456588959811,71.57579300427898,52.41744099943264,23.828973502862286,10.609472663096993,6.635115713406626,-4.559716612982605,-21.206128735984798,-36.89203888583436,-43.174938944210425,-26.184269006987012,-3.3236028236049577,-13.600091259147632,-40.079372919445795,-26.684808636014566,14.024844526873595,15.500951582094775,-20.022533884943655,-30.200995836284463,-9.459669602117206,2.7685917147107615,7.935683936074544,18.153362951148843,14.618593907231661,-4.952636960144688,-17.497327005981738,-12.451571884161613,1.9074197726839746,0.9296416523029798,-20.34014039073918,-19.853459601270853,10.618476377362283,21.015048835837867,8.84329496389113,9.222527528209678,10.700814451867316,4.381423686786809,10.937973298989816,24.647943554346966,36.322759575630926,41.477155979142005,9.501616700757817,-37.95781657258112,-30.722117220234168,-2.901709866916857,-33.91877120657261,-75.7313203723771,-60.28392351214411,-35.32109963140311,-36.64557833605743,-19.988244022912987,15.885416288464615,20.22683546813135,-3.3504405732180587,-15.711321228471334,-19.37691351112199,-25.133128841332034,-15.94209531118841,-3.145254999793856,-12.297020654898418,-10.661776517278557,17.988652053752215,18.345997058425198,-16.13693823874157,-42.24428160704523,-60.92946997465541,-62.62378235374908,-44.290151569113064,-54.48320171516339,-70.55304167994099,-48.29049400323917,37.424917769440896,323.83268959526345,643.3288856974075,400.5723087297374,-270.1091465076099,-450.0347198182827,-112.18633130475081,-12.03944228609063,-126.62232762249727,-56.35208671877367,18.716107024344822,-38.539914766881736,-32.40911481090512,13.141251878520915,-4.713837057475498,-6.820351005119731,11.595283770734614,-2.963996548023534,-8.183214574318804,2.8076993319622874,-5.673368962739271,-11.768050158006208,-6.030779384306159,-11.950506543175134,-17.662028207103887,-7.528247685801493,1.5199301165296422,-0.8484186105258908,-4.539438574411919,-0.16213082713932714,12.093359859793363,23.740933056513214,30.46091720301173,37.91790065013711,46.26935516541154,51.137778706374974,56.21760190968868,59.48924118162488,46.302789787126805,13.001521949837752,-18.538603177820296,-22.031735888051053,-6.640060016072863,-5.108752759925672,-13.399935873513591,-13.506558191713925,-28.794835938221688,-60.47364443776128,-60.997473278435464,-34.80352572884727,-26.426815540243055,-25.186147449492175,-9.914834817014459,-0.3271152193831277,-2.865416815639673,-4.59389694762698,-6.556278860144523,-9.047009561778587,-7.493743103626013,-3.1326107592254484,1.5165154701308765,-0.4908705178229855,-9.519934504102082,-10.85942330107902,-4.655219889248732,-4.489683278644112,-5.456648335759479,-0.620366397544422,3.1849262050851683,4.254174408301383,2.833485090663258,-0.0028037657178909825,5.908187027813717,13.477217807453234,3.176287518358505,-12.813425190919716,-13.714180557006102,-8.9060516618114,-8.320036096926367,-8.222575039657873,-10.742034789723753,-13.918705001938925,-10.301877904791391,-5.634353358814932,-7.143135413267377,-9.68063637409082,-8.604792025295662,-5.468169321844348,-2.7859505944438183,-4.731633620063231,-12.0205106406096,-17.36221868953704,-21.049897873896015,-28.258385968099155,-22.51743913023541,5.026678389971497,22.465205353856085,10.354362705225983,-17.339565135762278,-45.393157291067794,-51.29787908847599,-41.93441015456719,-50.275747473831245,-50.87145672206193,-31.02729416303159,36.054325621320615,303.7905863107064,605.8404264442423,388.402363403426,-212.97382549003788,-394.4404412994358,-149.9573605826348,-94.9011310954673,-177.72951087527912,-94.62518452407517,-16.77876204492378,-40.7923265288006,-20.989093363835398,6.026722727907668,-15.898632244856408,-8.535298639135847,15.556169361540288,4.6241886326371,-6.746189852744557,-0.061748927958309,6.734147519814563,1.83039971846609,-25.949949060812695,-45.68089007364621,-15.814895231878763,22.282205527450188,16.837885607970588,1.9197932713918044,10.541207524687831,13.378889315460693,-0.1044522741980698,-1.1318018981200968,15.252620207490306,30.41621774194725,35.89872426413617,33.00601140210334,28.07691106615187,25.606323785846094,22.16849541897982,17.104460009355346,9.166028836551131,-7.119803007746766,-21.600278092022933,-21.389116919803072,-19.517355899470985,-27.496517066087467,-32.25747212301553,-27.5225431973398,-22.921390972978664,-18.413861606191972,-9.42151066338943,-4.588054944649897,-6.520267417711834,0.06199637479884679,13.945892271677955,17.980214151602887,21.557771686670122,31.09978529801942,22.656385267777445,6.259945051149037,6.114960349522891,-9.106422037763892,-36.6535361703591,-15.506885938879552,25.03737435805597,10.965722659842772,-25.148124630230903,-34.32420146815444,-34.720745750004646,-27.95314956922438,-11.492556071678662,-15.447592220699127,-25.85500462186261,-3.681727301402498,25.39443411620573,22.48912120050659,9.311848095914737,15.345518897502153,22.131835490815178,8.431433498881578,-3.921754834780849,2.625446286690625,6.068781724620257,-2.419107719874619,-3.3119242913445657,8.794899460045857,24.742395007622687,24.48342147082256,-12.682650958928118,-57.33087808529368,-65.72380212274109,-57.10153362892908,-56.995848387463596,-46.60905496518109,-27.296006126173644,-22.474887961309232,-21.252902856149134,-11.179504391796131,-18.401213750861338,-45.20720529493212,-43.80449581599205,-25.872173311406776,-51.59747401989894,-74.60873674885227,-38.46855502839611,43.04982732278552,285.29557571680397,621.5534804061663,481.63294804517557,-211.19051747258618,-560.0741931266695,-239.817151384709,0.8268754841531276,-91.9652348226605,-71.44853540445719,47.897459127501385,13.254329465709063,-30.076767375719356,18.875667997784475,20.71668207091981,-19.521096574614468,-10.134510657481227,14.524433369918578,11.049628332235333,2.126110403095499,0.19990829991254522,-5.644632056784366,-11.551459514873727,-9.142664696461292,-16.610998693919818,-34.915643509193025,-20.13259796870799,19.895740161580296,23.397486046067804,6.270569300458015,13.222779791267035,5.508384992277974,-27.810845321997114,-20.14978432629099,21.88601333561761,35.45457921720683,38.055359495614354,62.13633986183204,69.61111033201139,37.71953131583606,1.9411293628597743,-14.401747934014764,-23.931468819550727,-37.341430430390005,-46.00872507698131,-41.886166276378475,-32.926287381319234,-20.584588786333,6.475512656322512,33.00141576483834,27.29626235720294,-2.180665908604688,-23.95552534981025,-24.7531519317135,3.229484117336183,43.1230531569624,49.0009309320957,28.24721108525964,19.120060597503986,-2.8877042543663602,-43.23950343293408,-40.93151415996257,-8.175245361620027,-14.777349430300887,-46.7944121641163,-56.49531615882429,-43.35346409853174,-13.113361057054979,29.841363786248404,53.886277587695105,20.782785094974244,-46.52831951663095,-55.25775832818067,6.397170032250582,30.842415365575825,1.5036770371403012,-2.6067347675765173,-0.6460797357516839,-28.767356910909033,-26.501304646175036,19.02113693037213,37.65658550558594,11.356191156039685,-10.90136686327774,0.7131297482563834,8.071649061525777,-22.554483680155258,-34.77988874646293,-4.971323246036782,-17.831188756117633,-68.3665875612219,-44.81059047979689,30.001475564468556,41.05153141567558,-0.2272105395925701,-30.236157486770008,-59.154277888064996,-70.46184005480843,-36.90326182474125,-41.72173976959162,-100.82974783466466,-91.0311942273114,-21.385806784435673,114.98226935117758,463.6050419276966,674.7747440082603,195.0899200133848,-464.9872729127473,-436.32222969885055,-73.98291468481443,-52.42020390443527,-120.30390638082162,-15.027212452644847,14.397402883171537,-36.95886299053507,1.2456957350324442,33.99058374705075,0.14909352530724007,-4.307806332876481,24.812358010993087,42.03816315003949,58.92216784761133,67.07535280230663,19.713574676737004,-66.29212964042753,-95.89341567421803,-56.74518999152451,-40.92595371834622,-45.68319345318779,-6.181592698017531,27.850706202205384,6.445597966139889,-16.243282960961267,-14.26803096926368,-6.617106104035726,10.468013779211427,23.828855068665817,23.619872186881775,35.77787044591072,47.68754392110384,29.740630060344188,13.094171156371907,19.219001576180755,21.680472572543508,20.418008069615134,17.079283700080445,-11.097677268194175,-30.81762712630796,-8.91539556222455,-8.077476846538564,-47.87962535937335,-51.7646809675841,-26.133183368836846,-28.261206866495073,-23.22427987983228,3.0297708520263344,7.369675442074445,22.427981483541874,59.060842320784616,35.30264339361243,-24.473506468193474,-18.77244612829246,12.659964985897972,-7.461459637464172,-37.96549856290558,-36.468910682080164,-24.55867701913667,-6.2550490121791995,28.884096474121872,54.06366036274805,30.710839668774028,-23.617194066664805,-43.80462110104154,-20.143603743539998,-5.684056944866439,-9.780887046008388,-6.684775318999374,-1.2943873083023352,6.078619056697412,19.30400417038011,9.265680971244954,-23.708734754786263,-33.05194497837698,-12.949589115362263,2.5649573854089276,4.723613450241412,6.439260354093879,12.141876331556357,11.23561630136145,-0.549746721496783,-1.0443327998464738,15.888677559098166,14.26328265182764,-14.514467199953446,-29.689738855283252,-22.282917690600094,-19.978597317062828,-6.729851042091958,39.06446220205067,56.618901532733354,0.5565305938048777,-65.32003093575952,-93.15368893376996,-102.62099243192274,-95.63860043704784,-81.06561701824806,-73.17682921560665,-50.99573498711237,14.656709720144875,230.50501414295468,567.2391557077366,529.9725370214242,-81.15291495025551,-500.97392956871533,-267.05220845174915,-12.403374364112814,-86.04653578008853,-86.23948938115753,21.613304333757,-20.200660767951376,-68.96375503848041,10.898729064581744,64.20507847118417,30.782839950657504,-21.076580947885006,-48.66759506448031,-17.094467520593113,27.222405372294915,2.1428756177595023,-35.4221451131652,-8.335765617614324,19.776854236619688,-3.153103531920359,-18.733152802833988,-9.7254559070393,-27.80477686995201,-47.98795784261223,-6.611461373608957,51.05317767429489,46.88724429145323,7.975566400805501,-4.07384191501983,12.32905428043726,34.42089041736458,45.24507058101612,39.55049723800106,43.973965710845334,65.73310139062372,48.76692846356103,-21.308543250868844,-59.08593935727577,-26.173989082674957,-1.840844382123347,-30.987945044558792,-49.808183790006005,-13.358161572542583,19.600100988904178,-17.68893418607873,-69.83753124228797,-29.992900498377757,53.149208261466974,37.44153547879255,-37.31146822575748,-24.351420274754805,39.88894672485237,37.06432710871241,3.864948615091633,15.653284942175866,41.09572369951559,29.917225748406484,-21.64332601333449,-69.69145868241313,-47.286556528267646,18.067421174146013,23.70429990179307,-18.359678672055672,-23.029251468619425,-13.17941822805993,-39.549437039562626,-54.16412589408314,-17.315483891291997,18.18218799842907,6.901140089632129,-16.457946766959974,-6.06033321667861,22.79248979863951,32.71794497139431,24.21841454846238,15.28005602511146,7.516007831213551,-2.282010302627622,-8.683755169685552,-7.623201109327051,-7.926059798537681,-15.063570707198862,-15.988430400821407,-10.082346280729709,-16.120480620137656,-27.82096477038744,-24.123186997238086,-7.750295629116573,8.457373725263617,2.0015309824358845,-41.328624624605666,-71.62375498930375,-59.29938893970617,-65.18688747857782,-77.3941327576104,-37.018127848695165,-4.712279825819195,103.4409391010147,450.58547594329,614.6237432777398,125.99077650850082,-415.269974375993,-310.04688807992346,-29.99350468007586,-90.10415808551829,-148.3465626985435,-29.404444764425733,0.6753463302253664,-33.52318319806615,3.0964654604979804,16.577416583361394,-10.91412267419625,-4.353832196973515,2.661181845706693,-12.832859378626889,-12.380134550311613,2.192616774470509,13.145342443703075,17.757230408592054,7.048265947331917,-11.88039325790283,-14.055779542267217,2.2984095261541597,12.257534715650245,7.0845456821393515,10.702526558678077,25.295490608725476,12.449428124653451,-19.21112362622565,-9.247614910796333,28.210587166402277,27.265477395481863,9.569684618526491,21.837148729678322,23.834514652244515,-7.223948291257868,-17.353913675779438,0.8013347302752778,3.513458046368568,-2.0964548373923826,3.7212635471856546,1.3329468597326137,-11.358857093463113,-19.38263800928855,-34.6132822963375,-54.81367580021025,-50.31311426203426,-24.011780805184667,-3.5416371902033266,5.766669234156477,8.937033888061187,6.509536567481572,1.6619869276188268,-2.4484322142555315,1.0987965134414255,13.775154850055667,14.627726490846996,-4.186156887393363,-12.787878552676748,2.005346496161553,11.707270746724747,1.5432561746957543,-7.918889410994096,-4.41463052657455,0.9430933872859351,3.971909856277407,6.476283268264518,-5.071974646022978,-28.500210405336944,-30.55025807876281,-10.619752591442618,-4.746548877057231,-9.284549037889374,-1.8319450483163209,2.4079086011339754,1.7464870686360077,17.219277378538948,26.31669952627828,8.384414305508319,-1.6799132144065463,4.715070681947994,-8.822745974185974,-34.34175808364605,-34.058862287863995,-17.219591169321927,-14.027963702239147,-13.474050821758338,10.540370891586974,37.870121069307814,28.496243115179055,-15.256152043349513,-59.05788456084045,-70.7634552846839,-61.575559440179646,-82.57268103972802,-108.54532897238059,-78.86200528241955,2.7717073604622158,249.45717304473064,653.5744841369097,628.7816754094463,-79.21056165819175,-577.7259647269253,-317.68204538969053,-17.2731669843577,-85.47032357972736,-84.69229101385673,40.87464598564077,21.094160145099742,-32.7647301954095,-7.576717594261166,-1.376317251684025,2.123886965488623,33.99082332419522,27.39990800151866,-6.541487628441441,-18.22316303977599,-27.882843668736243,-46.955453749337835,-45.26871667377726,-21.832544280541565,-14.239127474318934,-26.54542400133228,-19.335542429184336,4.903081356361389,1.4908924442250786,-24.25636159883655,-24.050853057228068,10.193121603907992,38.586805747474706,40.021995995744476,38.676070107159404,45.05249512775329,40.3107832961554,33.8507423251652,34.9547172454676,18.383884746123172,0.2306376504030152,10.040913435102137,2.8884066714211762,-36.31152044727287,-44.90468207431914,-25.300073347844837,-24.686924712603023,-25.122712077813866,-16.32546787087493,-27.817417716039635,-46.018475318220574,-34.69448666157169,2.6639758393474184,27.292259591242136,17.04946858549365,14.12231521527423,36.82717450650397,15.816483245089898,-39.40465830059969,-26.310321747691926,23.65151504402857,12.845994715413328,-14.215832285680916,0.1594037218905715,7.785012811244983,-10.649198095286017,-18.53278970413257,-11.321044587271347,-1.9433996781472405,7.876906290275485,17.42529286946983,23.704770742992253,17.92028859200259,5.299288883573496,6.381436001054408,14.87016948353987,11.65565069935004,0.381184751836372,-13.946718971929306,-25.130800953804304,-14.244272795236464,11.225679612048506,13.596983935455393,-16.20879038049093,-42.955547700231406,-43.3667901339811,-36.33264007227124,-35.745899622527546,-32.1973744943728,-28.541886674533696,-18.703264381488573,15.493613391492396,33.6857863630314,-12.09678643745395,-63.269246903090206,-55.90380556989673,-53.13490636411809,-91.35810260330999,-77.498760175548,-11.5394698668619,63.90273887676348,321.61692562409064,656.9178013654155,434.75500080859166,-301.41012881790573,-566.9456459058731,-192.93707354629953,-6.798662491666821,-121.68927202825036,-70.58581018662318,32.000125084716935,-16.800214173958054,-18.41789591171423,41.118738224467705,12.142092505349524,-24.06174856595185,-0.5840883565837212,3.969431903551479,-14.430088347925183,-13.037498435608363,1.5800237243254474,20.057786459012682,26.00718834664792,1.2177238062262852,-25.0168540134699,-23.083978405847834,-15.46419788685282,-21.492814533688748,-26.608699056517278,-22.470607553284438,-5.6125174816264565,29.175426977789485,55.55465481288765,49.937447161736884,39.67844891901445,45.78931035456715,51.53888550857043,50.739539117544794,45.64943988971577,31.050775275664982,14.68313848383227,2.0583439373069394,-13.720651084531701,-28.15795094782058,-38.182783675862325,-51.92379871913363,-60.138718232370195,-41.85509786176947,-3.3764904687053647,20.006056130874775,18.569067439753276,28.42789385944472,46.20540165592708,14.210402325784452,-46.080722808226135,-50.91978305344321,-20.60015079465046,-26.880011209551753,-42.87238993159861,-18.262661492160582,18.178221830884738,25.19532304478706,8.305046842722701,-7.3514765902594,-8.103113847328657,-0.11537141719057242,3.3349784599521763,-5.44936859707761,-19.05159964242663,-10.204737456076113,18.242393404019744,17.100387603071123,-8.281326591194297,0.8491126876850115,22.523839852620075,3.275665038511792,-15.52153208504603,-0.5260780465636363,0.790700877968288,-8.893783134035793,13.041699729388643,27.688582624622313,1.862147178186595,-13.008514134905528,-2.7979726927819493,-4.205423364375287,-5.189094131045286,2.3753073550053814,-10.622591903416964,-26.94638370433666,-23.369366837895758,-18.895475120645184,1.704983709286605,41.7026187860838,35.96093457785241,-16.547307900706556,-47.4087243882575,-53.046297975853406,-64.78124612971581,-79.22513089455391,-73.07588970779096,-48.71959035009077,-20.63633135996868,147.4941235390444,525.0563701950384,629.9351202478579,99.86748802766964,-402.24269338113567,-275.62888731892394,-33.52890112691756,-103.6899997950077,-136.6370279445769,-27.792043189155592,-20.715702470298865,-44.01463299768605,5.923524341188671,17.82352376892002,-1.2418359998065238,19.05620127571995,27.0955103324263,11.003438934454781,23.514895547428686,34.112881978656105,-14.581794210538504,-76.54279068442122,-73.28304707977328,-32.04951638006551,-19.228948354524427,-20.186179980189312,-12.666400821608963,-19.01845727217649,-24.699687010642286,-4.156012359004598,11.947810180828952,5.929515569735894,10.587997342471075,40.31434732752693,67.30067625571849,63.55432629483303,40.235654101177126,34.38568278487551,41.774080009217826,22.186691229724545,-13.312150380532017,-23.002433315458475,-16.571415447215717,-10.265258406210858,7.0138577754717195,6.5992639168377405,-32.78455125532401,-53.558923377854384,-36.85458495437095,-35.41729293543361,-36.43784168411719,-6.88172543226079,12.047898483909698,14.510096824842893,30.108498857115507,20.16854753062131,-13.128245399475611,-2.7359949093049183,15.091584293916423,-11.023317409484918,-14.076486374027786,16.38920715387941,6.526720406981051,-13.721186570801233,7.728879781992649,21.213705201104425,7.0681648040210945,2.0908585269428017,-1.9952663890408486,-7.280067198162144,11.168582484033701,21.291241138839762,-9.612001467641235,-37.96055164726602,-31.43290377950231,-10.77088748978615,12.93123479472698,25.250171186311768,6.2554463884816265,-6.23979577611669,15.484412151289177,16.84566268150028,-14.665643241699849,-21.32217793166668,-10.20778333861118,-13.856365929771796,-12.601845398584608,-11.819147054372026,-19.544862717648293,-0.8927212528407491,20.534857124476403,0.8493046632174348,-16.47327258874529,0.6342013203451025,29.233878944756885,56.75723918575363,38.81957907689855,-49.03791561869222,-109.25470315738221,-80.74547748016363,-56.58271779737542,-93.63888930063669,-107.28691670488563,-64.96182414757047,-38.12199819187873,93.91611123152637,492.3266195584363,706.9286572076002,197.1701605491231,-460.0387115692365,-410.94264950393267,-50.5678536970902,-54.808388321476144,-141.40246037327918,-30.217919189519556,4.793727744057904,-52.75298754213672,-18.048421856076228,13.335796507052532,-15.469390489692866,-21.36129241209336,-26.569598717547958,-23.328021274151865,27.87841307511409,32.45630741558298,-25.68592172794727,-21.191798944708893,22.78410494333852,-1.449178393722617,-38.88122562629211,-14.210455282321686,11.359425776044613,-3.0592319098603054,-8.442404447342383,5.210364478663588,8.884889791815446,17.19294692506974,36.07889705876468,33.10242974368072,22.36387481135361,43.36956009017314,65.66936743970172,47.158200597540045,22.57207314024884,24.288382165565288,8.676228512118968,-42.92311765414056,-64.90100498789607,-38.57775731671157,-28.78158364523915,-38.97812484918495,-28.20974484455952,-24.674238040260434,-37.20221820489346,-22.103336385456355,-5.785487892738281,-17.773232247651638,-9.847309583020845,15.094367345384919,15.50922821071602,17.547555167473945,27.932962898306847,20.2876492019794,19.95930136708961,29.51353239059346,20.1619340024217,12.475107089110065,-1.5934372751274068,-45.64538677999771,-52.53993594117317,-8.699899078262577,-8.905827864435313,-39.78689945166671,-25.53743920844044,-8.76738675843482,-17.06873161849044,-1.2660547727631126,7.924810885269679,-18.82345590976142,-2.9697873607336636,45.529508862035144,17.189705836687253,-43.71070933506818,-29.198221025205896,-1.878991870078977,-26.388186527649232,-26.811762283930115,7.090285680591094,2.355488474600328,-9.434761019795793,18.550623023802522,22.66543800081374,-22.26018917068697,-34.79120134353523,4.327795742660111,6.9167060765860615,-34.64026109665422,-15.861999655617163,41.88985625427423,11.244435403238448,-48.74552469163842,-6.695948498312827,53.45036078433974,23.50541628617751,-31.00929430836124,-56.846566613479695,-88.10646107918988,-119.55918383452146,-102.5913789780613,-53.08910440364064,-4.61393733643456,188.0274579823073,557.4609781369707,578.7545281101827,-26.600699539142852,-498.4031653595411,-302.36398803460713,-39.093700375414684,-95.04401234592522,-90.00207715376716,30.81705384414768,10.992808316108643,-42.242779231093586,-5.897178280794454,11.833905729574575,-6.616989804763637,-25.045389083967954,-51.1667660192859,-30.4509965194665,32.28669705131009,32.93989874392371,-8.918195401751184,-0.02375593981425972,18.340740663278893,-11.909960870336239,-27.12196375556502,-0.6078577569578045,4.711352844835686,0.8956055010890589,29.111746012409508,35.540777452361475,10.234897905864687,20.68223479619277,30.926218834249152,-1.8519878558700986,12.826678308575257,66.88727189702004,29.7357713102203,-33.75410155106695,4.0250247807053565,25.521929775812737,-46.74622476537942,-52.40387782186361,22.967902215961914,6.938513720252132,-73.647930149484,-74.68124296864158,-25.060274141332275,-9.145440928796763,-16.5565908477502,-22.550484460598966,-27.140437035092063,-16.496256416978795,22.42080116485846,51.00607783725802,25.621680506268575,3.338940628556852,31.515842914176247,17.011344558450464,-54.36520077011823,-37.41456058355272,54.59924382516081,60.303831913504055,-11.5671929569383,-60.12017628647597,-82.42772080850096,-66.55018036011677,16.33049561289262,84.4614061306218,53.04796453047983,-20.256673864518806,-42.25284259782397,-16.292335070658797,1.6009667736599962,-14.102175149288543,-35.855285807741026,-13.940271518333365,32.772872711228835,19.560983336872482,-37.12225858843425,-29.756881292308023,18.197364269654784,8.445757246348185,-14.820310194623508,8.163156220247629,7.99350855637653,-24.600556577347795,-3.6049234407927093,42.99600665175468,31.71292256823195,-5.230198270688584,-13.631325330386915,-7.500266383615799,-1.568020271106616,0.30351212358080204,-7.360839295528423,-9.410840064391333,-3.4372675944148217,-14.766824783499183,-41.63747772912068,-44.05834269697495,-3.818424754851365,39.25132184130189,37.41951355027208,-13.459451763489824,-75.67706035354772,-72.60198345155838,4.834087168349734,19.160943987381785,-70.59930004975877,-113.40395260361504,-28.86890638507134,204.7195976097605,497.26378389382677,407.8848801077652,-149.3784185458585,-428.88231761493023,-163.2060427053521,-24.564653201961924,-148.1127699492065,-70.71738423691704,79.88489303611382,24.284297344863774,-13.926523410075994,38.38568608422103,-2.0663769972370645,-59.236432298922836,-30.81852343553066,-6.460104687651192,-2.3669806197807937,0.9372502864594523,-32.60890826280165,-42.53522864223079,14.848500470854503,34.17992564152689,-10.775883511755723,-22.243224526206046,-1.5956292256944984,-10.403082687884558,-33.151792245803335,-38.56325281010888,-14.525906847564064,33.1257511896241,50.10859228876379,26.451568031176812,20.79143576727185,22.536901195719153,4.376213469957342,21.399640999778633,67.89350660193546,62.378579382994495,19.63722161354078,-2.202206463791314,-17.19930886072146,-34.236100118801296,-30.643464315470254,-19.960903948405242,-22.23473804690397,-21.91878140947535,-10.486871738901444,-5.4029756175311565,-13.004584782024146,-20.702430457307955,-20.958183328086363,-15.340717002018863,-11.861464740023933,-14.525596715118468,-3.2591791728409527,26.243171887331307,30.601631611404837,3.5917651002136823,-2.3306924667251243,12.011747363610265,6.405090970867457,-1.81905322209077,5.430083333657821,3.8424522786968236,6.17565930653793,28.55506116529133,15.13552800459186,-47.93879291758397,-68.30998803612972,-16.22902657637366,14.896805564057676,-17.223567332152015,-47.58499861289763,-38.22385515770716,-17.035821091806355,0.36572838406006625,18.544658016317634,24.341897616162615,10.924728285476785,0.34994126280749427,-1.4258485439804822,-17.151076765301873,-36.42064390160968,-21.46107874349179,8.44763969629589,1.8489861637071918,-23.618884732105585,-21.538284020278727,-11.171420760557638,-19.25627515433164,-17.772790776822653,2.3672577108874595,11.059051945651794,1.2190252061270108,-20.881427258801658,-42.245362447680314,-32.85806967009947,-11.43820690783486,-17.628440014975173,-12.012024179177493,29.218890635443792,33.30234082568718,-22.36480769264508,-56.7460821244385,-33.379539829493034,-25.081712986111658,-75.07034194601894,-91.09377992249519,-22.971253056887264,79.1354945166957,301.38518236332817,578.1736886300566,406.82972235652187,-218.97112160430729,-480.1622186558717,-185.45621744764603,-19.648735329595276,-103.6913398723512,-58.38612831958861,18.67931107569413,-40.64635157084195,-51.650881982155994,27.138949713393657,48.52253984035696,11.8045532646545,-10.610917261027915,-4.6836630712540455,6.551832167151839,1.3544386578584051,-1.492226513248937,8.575280162942411,10.734982786734898,13.07416338478003,15.26521084168497,-0.20279270565959795,-1.3741689628181772,14.427176160837295,-9.557637792041328,-48.476520728729284,-35.35373842824211,-5.402364834594714,-4.482396063467305,6.881410480333432,40.37792961508559,46.722561929633585,29.202663355812692,29.079010225131476,31.98884273989837,15.079810179238013,3.839723638871238,7.239429217421929,0.46392616485584703,-18.82619800594684,-37.92719490370078,-50.12509714282678,-46.705366142880806,-30.45277387895531,-8.478064068354541,17.06124462422609,23.88147948610486,2.080935940460627,-12.688674859998242,-5.090769071589273,-0.288234348006025,-3.1656394162435046,0.19723589780926432,8.507347942204134,4.552422625948482,-24.05578786726673,-44.07640190465659,-13.297691769487352,25.464277566474713,12.223316724421169,-12.881480147822419,-1.0898855907186356,12.920839210173689,3.0731228708618463,-10.008557367169075,-20.593651833191565,-21.908948399554866,2.3853906875008377,24.14853955424885,11.20610401380557,-7.182487260961409,-4.843011443651741,-4.227531103774341,-11.61693928169785,-9.531059730370487,-5.890529147474945,-9.884516611367072,-11.850225548313555,-15.270660293922727,-19.609083909681317,-7.087278717796551,9.445956503422273,4.631959349533345,-5.524667454328854,-2.149403191274951,3.8421606117520346,2.4651357292959934,-7.99775253726126,-17.50580102480314,-8.600753773607355,4.921050301950961,2.4552304489577566,-1.2624237525850588,1.395445833793711,4.340334800760747,19.04705070309045,28.889920355386888,-2.06383097232475,-41.47737150797476,-45.87439946823111,-67.83058691543611,-138.73476326686406,-158.01669164262114,-85.3367830369028,20.35387010173241,260.2846795745835,610.5316196429615,543.0244864943293,-104.43235462741748,-523.9381736324694,-276.48919873152056,-7.850883343362369,-83.98183860461694,-120.7435852607827,-17.563709858808657,7.223779812966946,-3.4205759171800425,17.233485694206642,0.911203855071026,-14.080306131136858,11.52344741435816,18.61507136381893,6.763134425882882,-0.4293252843776223,-15.309552820628014,-6.068868834010385,32.292625684669886,26.190803759173427,-26.784463104210168,-48.38946674143559,-24.868429336392392,-0.17713097306183823,2.717700889265854,-10.704749555562298,-9.298370636332288,20.21664554931388,34.472349178303,20.68716750262904,25.465406535050413,37.850645818201315,19.972356832171826,22.262851468400576,65.22276292833688,62.009022137440546,6.983431178949049,-13.820179167443836,-10.162843370598896,-19.70331400097456,-10.708186471305233,-1.5621319349047438,-25.548216443096333,-33.19230033278731,-19.833214309580946,-25.37143458170981,-16.78050584141503,1.8229448585233463,-21.180127507141687,-29.699889709233616,23.295702124112548,52.8349466396194,15.015625379928956,-20.984040088130048,-8.345584503702682,15.444302852925693,-0.31424012103465593,-27.037101094203564,-12.978884532380512,10.46106322664396,18.324258635024435,39.387269419967026,38.736808772182286,-15.38642527338483,-47.13364354209447,-24.947345639768816,-16.100590369085715,-31.028598855111767,-30.669621996813998,-33.895548739031774,-55.038957958077205,-40.27787377581331,20.397821367665784,44.42150013715043,5.165264803303764,-23.737855703447945,-13.889484585581618,-2.489764656513646,4.682493703931241,12.49170244451446,1.785034850094199,-19.996732626747864,-23.968421711911862,-13.584654172698434,-7.321882826223359,0.10772401317186286,9.167818047110032,-5.845316653253963,-38.91104476989576,-43.06814486979375,-16.42281979884137,0.38891689515073224,3.308076131501948,-2.1527512473994754,-33.411975252321525,-62.044597145662934,-48.05046464616535,-43.17732540678453,-74.03422488219188,-64.12791569410032,-23.777698704238304,56.60920316521063,371.5876018340696,707.9329672390377,404.1699709326333,-342.43706545792037,-533.6095503971119,-147.99430779287272,4.333973808470558,-102.08292507579199,-48.394095868748096,32.183019932733316,-19.340612195008806,-31.30378301208355,8.031868422512158,1.0610454956776039,2.3629131806451547,28.097950603053658,20.734469978793076,-0.5574210089493121,-6.847468766985327,-14.3660234300918,-21.845635997884244,-23.258062098629043,-30.76511616083863,-35.8040853030285,-18.414731232261634,5.547664102499498,7.722675322016428,-3.6257115476161816,-3.2555148179764375,13.617282942559214,35.61112746075504,47.66718538414635,45.69510554161542,48.41175125701563,67.38237887570779,79.97383239368612,61.46974118580806,21.381848658023458,-8.236838983391419,-14.614618818388571,-25.211280748023597,-54.71487229403449,-60.69928761907146,-27.898297544695154,-18.217239891486088,-45.38633728932211,-42.43654559071892,-10.129846008725083,-8.833405452261438,-25.752758031228492,-25.33761428937235,-20.72977703357639,-7.131024799158213,21.23538806668833,23.6491731270781,-1.6874699267425068,-11.221966833097198,-6.798129005320351,-6.847158119973729,-9.191843760299921,-16.507130532235653,-8.70570620506141,27.08293336448909,36.400255347645576,0.9080687685861317,-14.459509811703457,1.4885772070134697,4.236778419499052,2.1570782201803564,10.79374332614298,4.934814867662629,-12.469709588326026,-11.705558819027992,1.7018861468379467,7.708913836998101,7.927804498427111,1.8735108297476142,-17.456571315833344,-29.341645307092193,-9.520670496680015,11.898873553215651,-4.80847125571513,-30.157825566560803,-21.464432423704793,-2.4711062240655153,-6.616175666520576,-18.92832437971404,-19.74782267976998,-12.025515883559002,-6.276808664497338,-15.886961472143017,-33.975403794498725,-32.01587378743921,-10.69816664229647,4.791084370176495,11.99849653844774,15.693940325250788,4.182468824870188,-25.99004759774003,-49.34269557074951,-46.3716513921673,-49.389305902496886,-68.79075062899888,-48.34824123309747,-0.1378654136172628,86.56582543999549,361.2824971585375,615.464175334117,310.73882010900894,-312.32847979625063,-426.51258899987675,-122.22100265301026,-62.85200840482233,-151.76612923368577,-64.30843244163673,1.6215937894994994,-43.518205566782,-27.48116603130465,-0.7447026774835592,-23.755422604785487,2.473564746142113,36.14268895359496,1.8763908123746393,-12.057040968617132,18.73885511192031,5.930305798697486,-35.889873735439274,-30.197903281893083,6.120007677495857,15.232855300865555,-4.286786415270695,-22.15897083238934,-22.660333908218654,-6.810686625643634,5.973045344005232,-0.06133103877221657,0.6727333800391495,29.64245275782768,54.19275222626429,51.81049831739215,45.252727237861386,45.295390302565174,43.792176441551234,36.575530822915844,20.099105945797046,8.371077206566586,12.469194558806075,4.832037954618908,-25.48628820083736,-49.072976175493274,-54.10271501320223,-44.10314843431304,-28.97398235987537,-38.52259995259385,-57.627459198944614,-31.97412321268179,16.609230018539176,29.386103186713935,19.15540094288677,12.120535910615153,-1.1387816266066118,-9.765292560087074,1.8177293473658347,12.422080529233014,5.101886256964164,-9.284075047044329,-18.089881457644726,-15.092415417083995,-1.3087895823924534,9.569610421521315,4.07054459051672,-10.64433355427877,-13.74240270214971,-4.014424587080647,1.6419610432145455,4.861137059335827,12.488454600550691,8.221440963856214,-9.234265289076252,-6.670202894211448,28.38838834798611,55.962062049459234,29.29599067837325,-32.06347205717718,-55.389722123202034,-30.486343824884408,-18.642073290210917,-31.279824967623135,-34.90847622416868,-30.91132119805883,-22.057787778895246,-1.068698491166991,10.176359824671454,1.432689689630653,-13.753212744899411,-36.943254056218095,-53.19017624930814,-33.93613993142408,1.857273449232233,20.759618072081636,20.86354132481423,-3.972849109498334,-50.16986860631691,-65.4013880982114,-40.93995249322562,-51.84430212418792,-86.40837451906567,-62.14029135241661,-13.067295024411905,120.71998438821147,486.87465015677196,682.43054349381,179.05141013221333,-463.1133464467973,-408.17087401494575,-53.2319301925841,-55.0502808802199,-134.8244058395489,-27.696488650883374,5.754539281111697,-48.323186847839565,-16.912861220357108,15.357140519023917,-4.2044053747689105,2.3541134000760726,7.007586869290073,-14.032869444910816,-3.610771900399709,20.015503568183135,5.371954692265299,-17.139705733125115,-11.04093267048996,2.6044264759341447,3.2842952016785913,-0.059670037794042896,-2.7416033075843003,-9.8384722063392,-16.432027661908112,-14.40765839796187,-0.9031358724481233,21.469671299435305,36.15112498880863,34.62652555952171,36.260725020852085,47.00534842600632,48.98131209431742,43.41271834637421,37.609740471310296,23.906504724448446,11.029886459408354,14.345961798172524,20.922621648811123,7.481142702188475,-32.20839202519159,-73.42422595048694,-77.78063725022673,-54.48127609555799,-43.8342333382642,-38.53906277704756,-20.882817077960233,-16.809948399774783,-26.080685553465667,-10.153270418600627,19.92564601860932,24.21739388635999,12.421433181060035,11.458136112343325,17.919837148213297,22.327398295194797,17.073249301016915,-3.7425385631547847,-16.00091568324332,-0.8381241244782691,7.041322357060205,-10.999192813099535,-19.702997847619777,-14.045773442061675,-15.688205382998007,-9.297647537459396,2.8030279501604323,-11.86738344955608,-30.55565837707195,-17.91264616706438,-3.8428622030047777,-10.180851948198693,-10.107675336004197,1.6606210940015567,7.340438875517106,7.225987223378409,2.695983465184069,-3.7183765814492844,4.396307708139618,17.799361519129896,6.010869774561996,-17.070309779279945,-15.608143436044998,-2.3938338091829063,-7.208024243437642,-21.575239772691,-26.5556199239195,-24.096966353216885,-22.062002514992,-20.87085553881264,-14.590822764154558,-1.3919244884497424,-2.3986456956979083,-38.2878055156947,-72.17563712006577,-62.88870705822766,-56.91439183506233,-77.8742147730776,-64.50376102957674,-19.74258137167824,111.09826787071096,463.538208262339,682.3131898974964,223.68582849121668,-433.19299459434467,-409.6677904003541,-26.736121086564033,-7.925195436740847,-113.3357770427918,-6.66836010263528,38.69468596670891,-53.21906447308484,-64.09757323210206,-27.875947393278032,-29.1722226371559,-11.360053661270449,6.860020065175707,-12.044987343085133,-19.62259764620576,-2.5114315637073865,3.346927788955666,-13.802977723883153,-37.92666808044186,-37.7044763942803,-6.513516107891737,14.52322756736469,0.38143299625312377,-16.31081296344528,-3.7436206660924274,12.780394824817662,4.727769069172242,9.470920232053826,51.60931198990434,67.67812029012539,30.864885345685792,17.71252040477069,47.81081783627772,47.53274978260388,13.807541552764523,3.1757638074072045,-1.7566038798916583,-32.52860664315645,-47.56148334689693,-23.48100942202062,-7.186375689205462,-26.580608430018493,-48.98381536065422,-39.16853808441704,-10.609765007652921,-3.4231545818616222,-15.904644363772588,-9.833568258381177,6.997954883592616,-2.9622171284173486,-16.5551218802918,5.612664315245345,28.919195988146633,15.368974119309804,-1.4494379067723169,2.7293249433983195,1.6745155672802765,-6.7635634034726255,0.3766269428397333,10.380246795381698,-0.9557084687239339,-18.907250211297757,-15.327717091866152,1.9512052380908238,4.074163425026273,-5.876195725688392,-5.674934973231301,-1.9632844901549733,-4.0595082938639315,0.612418504556171,6.292960574786142,2.2793898798712817,3.9615664850310104,8.060041708784842,5.188982069668043,21.038361697190908,38.97116601825907,8.487690712686138,-26.693937562946427,-9.210899201193557,5.177459188144304,-22.74566882276051,-45.14417201102469,-45.086883114405296,-39.55401453663923,-32.03697825230371,-33.172853517358305,-29.988386650483086,-3.3597394517314463,10.727704833825221,-8.449245942645828,-29.011214148525987,-38.487780436835656,-52.59592058360441,-84.13039637400698,-102.36533006343302,-66.1486302727653,-13.256264881901771,121.89054893137339,465.5334660840011,627.9994398204082,134.28458329624317,-451.2528479660494,-360.56620494059547,-25.340832593381727,-49.667096018081466,-121.02135222326768,-13.612746493866084,0.29944334441595544,-55.59368957235177,-8.91680252501016,28.41398516726176,6.247956377562648,8.590138486777338,6.812905463541684,-10.673019994531128,5.757919916377567,16.06987839848875,-10.811069907997847,-21.919424404214965,-12.960161078430815,-18.738774830773316,-18.557918682058464,-0.89066325461721,0.0364879393592461,-11.26004387312942,-4.618725942484569,5.732573234768155,7.152892375049151,19.213929780743662,35.88004789331733,35.77134103639255,31.009774379283066,37.82035409174421,44.9998563830934,36.55602006606362,15.523857054527742,0.5162560265763609,-2.056989789378135,-6.074032586941159,-14.348117737947756,-17.785396515507657,-23.186651374432113,-34.24838134272638,-31.98594069525411,-16.250805787779136,-17.127982363036118,-30.942344440063987,-17.09634020822674,15.726238784246902,17.76894829083608,-1.5677103667557817,3.0507900099536593,17.945195168742107,7.3267283456192,-12.717918543088151,-9.660068823432276,14.416622401899248,34.31113823167878,32.57630809731138,14.361717827631125,-0.950397296917564,6.108058525981099,29.267754980903494,19.993864622550902,-33.73418442829042,-58.002623100664415,-29.416135969062566,-21.626695308290046,-38.6397420590705,-22.714178844142157,-5.544772272574555,-25.70745560658969,-30.090496451132676,0.7635828616400167,16.09893627575011,6.202544412231497,-3.179882237515466,-7.7460759928244425,-6.798239027130487,-0.7948740352460266,-0.4984456003395543,-4.864025740695073,-5.069264422785311,0.4998412608961571,11.910958489940278,18.665239326535787,8.99318263222661,1.34647824851658,8.406992833416867,-2.0288620412501395,-36.89710910169385,-44.98014312403085,-19.11615201751835,-14.704816612311525,-37.88795246701035,-47.069706381551605,-35.622666025227694,-25.609948141274373,-46.11575752598581,-88.55188059647018,-82.22937941958844,-32.61796049022801,44.12913829090846,299.14065205982774,600.1932296413312,400.9487636091932,-196.67133767855586,-381.6124219740334,-106.97633029123351,-23.59294848940958,-131.15238141381556,-81.55269030423744,-9.750456163852824,-44.67574901111405,-35.684287443546616,4.323868367675484,-9.230727215528955,-10.076395130664913,14.655966466377883,14.322370459711976,11.393934180760354,17.022473387128144,13.259695275919,19.451879803748664,25.183340608384057,-2.911623596682407,-20.67726419807956,4.393554839436696,0.08143924631448485,-52.50238003655992,-63.14465573337051,-24.433466816607826,-12.751766769164412,-18.469857147687968,2.4481632000766163,26.03571963090894,32.17518279081048,32.402085667199295,26.861622042110454,26.046377518961688,38.29043203013845,35.7406063787633,10.294419199745823,-7.2052848549316515,-12.568787489812866,-24.572343517342606,-34.793688998474224,-28.64955919860172,-19.50247515285326,-22.152444217616242,-25.064773361474124,-15.239675239577087,-3.655074126834524,-1.5178095041889348,-0.29619927808392443,4.863380347394403,3.748650468349293,-7.19378981095755,-14.046803180773605,-2.3393568570380836,15.068183758654495,8.054290763826055,-13.141503348448747,-4.8633938819735345,23.08311341499486,17.51311711143709,-12.956240090758483,-13.87911138431239,7.874708878379554,9.541622849027718,4.1386571085647095,13.483202766441337,6.378290512601984,-20.980546802236642,-22.772049245615555,-7.261573686533757,-13.934567116848726,-21.067171471533634,-7.4513213179561255,-0.3916604596850526,-3.494757661712991,-1.4765628899680374,-5.170749612529143,-10.141729050764136,5.116785012212953,24.697458903535427,20.245440275585068,4.632953163812985,4.834354181605361,13.294991594391202,13.507079388915912,13.33357716809946,7.278547807078784,-15.610445668020688,-22.86270069357759,-8.04304430291729,-11.197388350987772,-9.039618360049927,17.66196742760067,-6.676515446105711,-81.31468798805336,-103.49665834300956,-75.0326975329256,-73.18641180844625,-96.54963179043894,-91.92694658935939,-57.6436090702355,-21.055513335671478,148.6914493358115,537.1613153956287,659.3667510919994,87.92059788812699,-504.9110532209248,-375.2748818165635,-23.00991803438083,-40.45773723387715,-108.36609863813857,-19.811292466422287,-14.826857318188345,-48.443174018934045,7.516167618298997,24.17892780512029,-12.929482774835758,-5.912212305983615,1.4950700834105772,-15.050775887952865,-6.6408635632407105,5.827711958486422,0.08741016287363834,2.3920253819724997,8.188969466796568,2.517128329519683,-5.5500458866357025,-12.639411613400473,-16.983332189610948,-18.45912663541741,-22.78939285749922,-11.541726591927615,23.956066545231394,39.74827232945275,18.03687501219107,7.264538680555745,28.967822961697305,49.64203501166658,49.58311961492446,38.35383767324068,25.03497674379219,11.958179395977606,1.0450343582463884,-5.758731669858676,-10.657414111111677,-17.13240421320915,-25.325581711748523,-31.934768652139365,-25.739725674298185,-7.935865334049426,-8.964074328394513,-32.608681980089116,-37.759021952879024,-17.416146930446843,-1.9938093287186014,1.501072405147374,-2.9142550039818715,-5.877536622896038,9.10464077770731,19.047320811057464,6.011597484384042,10.624421437005962,30.97648280676898,15.469423364771115,-11.428590383380676,-3.206460569656665,14.686885123383279,19.03427334724968,7.8480703618867125,-28.616927892110404,-52.019544601350404,-27.361899684757667,-7.1746861510319135,-20.737027397966017,-24.73973424532283,-20.57103665617938,-34.882022250191,-38.600860878631906,-17.091812318317327,-1.2467331040295129,5.030122045055225,13.26359039400063,11.737843778817673,3.265237169918082,4.1306196431313325,1.9954949677366987,-10.64451347087969,-6.647802194591003,20.154174961195903,37.66558224159648,27.677854529173075,-2.1582706648955714,-33.53953562126988,-45.976656633873354,-41.61250332896279,-33.8669066972148,-16.051531070783405,4.9489646302476356,-6.860384528310799,-49.23237273954149,-71.25432740084781,-65.2728958184637,-70.11493690552402,-68.93767238493896,-43.199107706840834,-18.02941858377396,141.68289916930826,508.46121791837453,590.3279211335539,42.21043230794499,-446.3167960346183,-280.9203729296904,2.594949074059312,-44.04160168916011,-86.55074154426171,-13.501965222367396,-38.416462747280434,-72.12973234500761,-22.625270828321025,-3.734790856735195,-3.9530156730521266,20.242114335463445,15.393509226120372,7.458975663361823,29.810507029392618,28.295251815178702,-4.9073884577403595,-32.05926691540728,-37.25526048715851,-13.789020913606704,7.191703772114894,-2.4895055754830255,-4.895055191771663,15.097020060790946,24.25269457675447,26.97498289999086,38.872387272697296,47.14484202475789,44.97785694563476,24.470534017964106,-8.92279916237962,-11.729193413626694,20.6638731897513,37.172379402005916,23.697562111107143,2.725476083921493,-16.009712652813562,-23.213933634616737,-19.37045940554322,-24.45158268320413,-35.71460616211955,-27.649331335598525,-4.629632684341509,-2.509054942149888,-21.88633887247487,-15.12253590627348,17.816154019947266,18.161707578469922,-8.16003778578374,-4.56846869717964,14.749451032349217,7.61414773357354,-12.390315634178807,-18.371003846418304,-5.910311186910622,10.622098558471844,7.0578766768268695,-5.733212516201396,0.7354768234459601,6.255289290998743,-7.378630173279186,-5.350214205209893,16.234239594684027,14.665541001095086,-2.6684523660935198,1.7579373677669383,11.340533684723004,2.3677121865822714,-0.11143044755483889,14.889312813237687,17.60856630367654,-0.7025954701768695,-20.275120130028096,-30.37905776300512,-24.319927801300164,-0.7003317999405718,17.173656436527377,13.290547358838847,9.262142160878536,17.397141969721243,13.2642630530436,-4.620586186601728,-2.925555483372742,9.09596080287152,-7.8720228486742805,-34.32627570838541,-34.07772927999398,-27.740651263400018,-25.62456304599471,-3.8805836794921804,18.990378207549202,6.764590891352519,-30.560243476257362,-56.689182436966085,-53.00433380557121,-48.44945479299713,-58.71636046886299,-43.49153462766279,-6.6417450983554005,100.6294280026737,397.1994392799714,576.2242363149899,172.15912406550115,-378.55068743807726,-337.33134189292076,-37.898527599063684,-65.90196548693896,-142.33686742041482,-22.07909689487496,18.22133963017675,-35.36523087481089,-4.508918378646575,13.361306331536444,-30.53573937761852,-23.221663289564823,8.20635157424323,-5.8310511804278224,-18.137282079934874,-2.464598960756554,2.4223453725491986,-9.787924589568382,-11.502547547043829,-4.03818196382962,-10.930119210508122,-22.50393326478385,-14.966241339121991,-1.7755755530112756,0.6436582107426089,3.1340123403909583,10.617616614608352,20.910370142285696,34.932872318308455,42.30705862115752,40.83086812295629,46.51200477947528,57.63854481108443,54.044957056849036,28.579148052091508,-4.25559657201925,-18.07931665378041,-10.1638142540743,-13.167237644456888,-31.067597037712375,-29.660829153718534,-18.030195836663847,-27.974204763680774,-33.26048137482334,-11.45117201456338,-2.2368319270869055,-14.503284006507455,-8.331935781475812,5.030782156145989,-7.926722751288754,-19.47532929969296,-3.7613544748229146,10.709483905743559,8.00216389322662,1.2374951556220024,-6.4531717992572215,-8.805214339155109,0.43028047620231025,4.4797223551105825,1.219699672956141,9.714141142500843,14.52065077121469,-8.949890217303553,-31.420416590683814,-19.374375313190093,0.34043867220974633,-4.221894116289142,-12.288648760405021,-2.6315660931634977,6.566519960731659,7.206999606706306,11.914197581612166,13.159112798626467,6.264629539324629,7.145335418912156,12.917265451886117,19.55389836737898,35.338042357469405,27.018575491154095,-28.59812069797458,-65.8628511147069,-40.98641456147645,-13.814060193256118,-27.559635225184234,-44.71280660312667,-33.76821795641784,-13.310741902674543,-4.478268291899755,-8.919341591956126,-33.87397830140825,-66.37352185347646,-68.79425330995859,-61.4236945891201,-70.47233685956034,-57.3844474776115,-17.963887668426423,131.10919222095606,505.17838301348394,682.4166697415211,156.54774983913768,-476.0078673634895,-391.2680635693374,-39.232214716234466,-63.06970734886309,-136.84549931494445,-25.77905361761882,-12.54258205648506,-66.48053783864736,-15.841265892964113,21.79555389278415,5.174986015343027,10.114888590747547,0.40656380649255297,-15.744898750103138,8.078305364675836,11.904842544308801,-16.474494403426576,-5.9519483109201685,19.3023500289883,-4.7977672439720624,-40.26476234213701,-34.58323264230268,-17.743233702437355,-14.911710020180637,2.7958931537591862,28.09294184548633,22.819184461348254,12.832613255312959,33.16166388889722,48.49675728949906,35.34752593758061,27.250452183711875,37.345096328280725,41.575682613109706,28.0682043358332,10.291840745728853,4.051305595632199,-1.8450769935655922,-24.39179683341115,-40.49428301329601,-31.24540632358253,-27.755639859222338,-39.68985419820009,-31.513185932551234,-6.71133478450677,0.04376678164786796,-2.569199819941078,5.120617122253986,8.656933859590382,3.8570603379391764,7.668259590319767,16.89332136475524,23.286264280024092,31.741637750709256,25.698636261276356,-13.601119326392034,-50.19472080735073,-41.192833137311816,-14.096076700983987,-14.680760793182184,-25.518092844267915,-13.163926024287743,2.0676143103532745,-0.7226097497282158,3.855459225946573,15.068783039667673,-2.3910399602331687,-25.499612245006617,-12.809723258294646,2.424323479156296,-10.759924262907088,-20.815411616117483,-18.608235337493774,-25.934116702064156,-28.1275001309956,-5.618765873392112,17.42659211816408,13.08383421615201,-5.979843355876309,-13.422847721758785,-13.227829595206728,-17.626562563095924,-14.277576696910279,-2.198449679086645,-4.070137732518582,-16.285385838895216,-14.221560869712535,1.871395061360654,17.207231800351142,19.31283112326998,-9.805078398880724,-55.737350594402734,-68.68713441259104,-61.393391827550076,-76.65380572134143,-75.40698764087169,-47.498902427240594,13.379787518469712,272.96559449242693,599.8690775466284,410.5906057073222,-218.39635413464111,-426.93795487697435,-129.10915030617315,-16.716891193285065,-117.45393979407282,-64.7122640823218,3.42299022511709,-47.14755453398594,-46.19819846010422,-2.4762634058730466,-4.025520848814345,13.216057061001186,39.138326247382864,17.966171790473133,2.310162067228756,19.49560047029342,37.70467736894459,38.22963424413788,-5.79776823064519,-71.5942855794715,-89.96974751302163,-74.20288925125234,-56.00484175918183,-12.482086522268686,19.590782006210436,4.836716577123977,11.775318796021477,43.34064339746237,29.68017910272285,14.61953484173027,42.28473458909515,48.19745106248432,29.18895169642826,33.4344592582556,28.67512721645786,-7.4284809440146375,-36.0483615697354,-38.64512048489951,-19.753873932710192,-1.9700171155477868,-14.528059661949449,-33.87505275999608,-31.841928451243454,-28.949166387783308,-25.218511294681782,-5.3736927141079605,8.919830361879077,7.9346526617820645,2.2475371251534924,-11.188479255683955,-17.202075768859245,-2.317703857581799,6.339143404282624,2.44046182559719,7.748207282364473,9.097574008235345,-7.509992620400123,-21.5147843968017,-22.34701621371208,-13.947406985568232,-2.226179432047963,-0.7005788256726859,1.9612178443831119,21.47226263153518,25.08712225686647,2.1635274565998746,-5.533091627759726,-5.287376202072748,-20.920115348268777,-12.31582962465227,17.515252197867675,5.3130312889393725,-24.711207380547247,-11.859377569430482,9.63138644355492,-2.6799528298065507,-20.1389264494867,-18.518414079275686,-9.52239201509503,-4.718507697138641,-4.623716724045716,-2.9468460906921567,2.758125183058077,8.72779392910735,12.902111371460038,15.176981584954856,24.382124152614193,36.76900136354574,14.318684904008448,-43.79052865801952,-75.06503329920837,-56.50290543631371,-31.239612996463343,-34.579178722197845,-53.118422854891165,-61.615380079976845,-82.35332984659215,-36.65408314377352,273.99994623362534,602.230514589759,346.76702123005487,-267.6144302710248,-396.5896230038486,-114.30866353471438,-64.24635291334717,-139.19710062918443,-39.21336316699309,11.898443785025258,-59.43272942613007,-42.00184162153512,22.853388952842597,21.417777616390385,5.469056293995184,-8.413593641328577,-26.139524519352612,-15.185761001119642,1.7652877427271978,10.67597622757653,30.807546842066547,20.900278275331807,-31.968379249440034,-53.492280271922034,-25.622975975957875,-0.9561637432222643,3.061992819869891,-7.125882227694907,-14.997959877534168,11.727779385509198,45.01351035516016,29.735052730341778,8.71608071624749,35.4854181544679,58.11640336395803,41.28876692527993,24.4993214265441,13.728660063818138,-2.2343184511376197,-1.7442572175744013,5.9182449659871725,-4.667980320812266,-17.3592413513778,-21.42189534405525,-27.072662585812637,-30.047640121697302,-26.298289530795532,-14.587736374770817,1.6279044873265285,-3.992324340439392,-27.60185966834817,-24.072266654802657,2.73313926677354,14.605059537174482,17.12210124290955,20.884206034461585,10.445708355593665,-6.202232342844101,-2.045184411262073,19.02141978660839,27.635748858445222,20.39668381440843,21.253795970429216,22.197082898507766,3.829019774120721,-6.499276868867636,-4.007383880373116,-28.9779182961516,-59.190464468930394,-51.42479299869053,-37.520976038254126,-32.922446734623826,-8.625878501040638,10.41806151975902,-3.8551405086833235,-13.733173663411868,0.3504329149308525,10.135923251710055,2.1104052947841687,-12.1767650654634,-13.894209224648028,4.816326673860108,19.09897449414948,4.154650024416664,-20.050734174570582,-24.570822668016305,-22.44884771542048,-32.52919662801262,-32.7190598064019,-6.805192998758117,19.11812767435506,24.774004808764936,7.163302540793315,-29.06392866324824,-52.87318147546314,-69.19265355926386,-107.05972977491156,-97.56303084945374,-21.074521595686015,36.87509621289797,215.4533309644766,561.2882029740636,515.9723163169717,-109.85797635676653,-468.1834755144193,-183.20583563750853,24.126091920943367,-106.5341552263927,-118.84343674677018,-12.952902782573823,-36.09069048969702,-54.92544405488552,3.847910973416692,3.6209549840839585,-25.967552636035137,-4.824935809870046,14.803029684590115,4.729850823733326,-4.6081379071227015,-2.8288533511132723,6.7328339942805755,6.62224820141714,-11.931195656952555,-18.652267351324287,-7.2331841759079945,-10.68931720145012,-15.586991343870858,9.372162762142805,24.425433819097606,1.5232368075854392,-6.753434693180143,14.65023873664911,22.297367251239514,21.06448045743347,30.6031864748981,41.920854006457596,62.808731192656076,66.90983536537988,5.766742111277125,-55.298225005600976,-39.55494242797994,-17.686009070706938,-40.53535042637127,-42.849173161125066,-25.586652343436405,-44.04243444157987,-54.059571348110644,-14.30658217851362,9.806797514016683,-14.752686471671833,-30.111888025707422,-9.569455129065226,15.09371499739834,26.834964423301173,25.11657604895413,6.562964203006379,-8.829971589185948,-0.0898189027994114,7.072293801739212,-7.667198125601286,-11.672851634118324,5.610392428820113,6.647349879001817,-11.349162255078017,-19.80266310985543,-20.671637562274807,-20.077863507131923,-9.30631592510965,2.846133628504911,8.02967906447235,13.518504400270231,11.938418729833273,-3.5993587726999934,-16.113937536227553,-14.946344919280204,-2.8308787673809013,17.060565228055466,26.6078213958736,12.507010357216512,-4.931680284052993,-12.040795917372975,-19.585042307331868,-19.376115459691388,-0.9188432808994049,6.1245242232507735,-15.277342660947754,-24.101963123524506,2.6286561889302327,24.047700439706215,16.62744996303801,-3.656999249666442,-37.69469272793747,-66.55984165019461,-62.3020254607343,-69.28949414459021,-94.26481668333082,-74.98663314405383,-16.59381979135395,161.92832960650043,514.7769161392773,582.2816170429574,46.46746979106639,-405.6940612373704,-235.4561708044808,-7.566744262025161,-98.09810664957587,-121.45591593969834,-11.532728119069667,-20.007089014661034,-44.04601656402602,21.91023860300435,47.434490117771766,15.417397513327096,-16.08810566220854,-50.3901440588969,-54.40235406402313,-25.902437400696975,-22.19000020608881,-32.03129367587749,-28.34363621443245,-30.542814091719674,-21.648586559265055,9.303161915717318,4.89617772043734,-37.30421473440455,-38.30779035271287,6.939874904130738,29.169579230925503,18.752966026791892,12.091212490619949,17.103087755135725,28.033706009003964,35.72399403480223,31.283351101762676,28.478629911800674,26.789454530291145,8.261394015608387,-0.7611024386148246,15.939620744754137,11.333722025511063,-20.210899808340187,-34.6810308227538,-38.49397855567617,-41.98025192590138,-26.084244639438694,-12.844458790639791,-15.897013352899325,-5.114133168997581,4.661501015553721,-5.301401115870398,-1.2564693053972409,4.323893491350921,-14.379188355219206,-4.6122708889541455,35.97374311957482,30.168221478808608,-4.4008002077842026,-2.1767642120840947,5.268423327014838,-11.277265712859462,-13.607120696755626,-10.39316469166134,-34.598428224944726,-45.16195253738777,-12.669944662788907,9.972788178832428,-7.334081265740036,-25.157782538268,-13.427596266382487,11.267863051363042,12.220826748853478,-15.263679935680383,-22.31903841848749,7.0098912162447915,16.64030320577632,-3.8549993485118113,0.619290998575242,24.1169747081301,13.80668071072422,-15.001342391399964,-10.744492039250094,13.195343309687107,5.96698494280831,-20.188605761490066,-13.537966173180937,11.052834041615576,14.052325090828651,21.550022410054034,38.21879257391592,-3.4131432909652943,-97.74645128428276,-135.73609064759663,-94.27764637128016,-77.88674947085944,-104.39505080385261,-86.46596088550302,-35.59114184032914,91.63140903947941,452.07039860870856,712.301409102175,289.6163185915532,-395.95000305019363,-433.9660369441396,-61.80855873977791,-13.739550975927472,-130.4329622840521,-69.28197757690228,-16.4521137916365,-40.008399533628015,-9.431508076326661,10.708052808126034,-11.119761126457679,-2.5158873239251243,-1.3303657565430225,-21.28924735515481,-6.261319037689455,12.16761709869204,3.313390587316892,0.868053299773031,-6.25463689762814,-29.368437872303943,-26.437205266043534,-2.0372407686752014,0.8000998274101176,-5.802865780845027,1.845649220299416,5.288369089223059,0.7477187112773047,8.645037759920138,15.812594794514276,5.607594813926452,8.635816523677851,38.88316271160002,56.43134908053481,45.29538829599194,29.633378157958152,15.049331705234833,-2.954486969159323,-17.67756169846492,-25.254939222567707,-22.14719260875261,-22.297850414830428,-47.77533107335853,-61.108732206415404,-21.83360335262192,13.564832006701907,0.6187386441440346,-7.705286369903245,9.265466938733027,11.364057799830254,3.884090192162514,6.646588491498203,4.749010953674245,3.8737723157704114,12.66387400613273,7.292558070327084,1.4105977635273188,31.09238844299754,55.045839313590086,18.68702160719651,-39.345144049346686,-61.58286522333738,-51.36485354842423,-31.862388959633495,-20.29110107750943,-21.691284213671423,-16.85693666443065,-3.59354500852233,-0.9932697183462338,-0.9416415921305141,1.0090554078446274,-11.751113839305305,-20.166097449239455,-3.6962766428825926,8.822773110468749,3.9328511577475362,2.8940557877976367,10.395881922015061,19.75536025704642,20.831220219783468,3.867019232247415,-9.508809025703505,-3.617104802393282,-8.43022318085901,-33.179103309674716,-40.42488830946567,-17.60219037672369,8.526842648693998,23.643940034196046,23.21899155370872,-11.63856558211657,-60.00154846360219,-68.46465326012054,-70.14053758951398,-102.75181948942411,-91.95256563940607,-39.86407591439591,46.365055485816995,342.06538142014153,641.1969617289974,351.42838673736543,-270.9528588676997,-366.0323386481722,-71.3669524053454,-42.93391342089696,-129.8472026036822,-44.07758397264436,0.00031979655537384133,-38.152851543872615,-8.913273331436848,4.265752757986213,-38.14573282540594,-39.40243178598582,-12.500956345621162,4.50461518033093,16.51593377476388,3.4930389625472102,-19.564118138358708,-20.313539561085584,-14.421258541204883,-14.29652051485711,-14.47049368344812,-9.877375001443852,1.8043737796756116,2.0741412928972958,-1.9640171653158056,25.286218605973232,56.33885877166216,51.36671574141438,34.393424416491726,9.794248725701737,-26.609751335516123,-22.644785874548063,20.911599281311258,34.89946295136251,16.980377516657605,2.0099314297544906,-11.311224753289345,-19.99995640798838,-27.38990493867119,-44.597200228710506,-42.6152225826243,-15.445153313276261,-5.099194523122984,-7.591962191510545,-2.488779654629001,-9.75839533896636,-17.771889561441878,-6.83806973797299,-12.468576068563628,-24.407943329653673,14.076899634272309,57.47743530225572,30.22165691322839,-15.503646974079352,-6.95698879533815,18.84526055854971,7.298333209306778,-28.086635738363647,-48.23277077024906,-35.344162664723456,-6.330057283946504,9.341398865635885,6.9874172579102485,-6.239712380494282,-19.952297414624116,-8.632458765545307,16.29733665561011,7.291700656366083,-19.594079900709193,-17.65698830894184,-5.209538316732165,-0.8652305120979698,9.974397099591046,7.542387223307007,-11.30283689060959,-2.197153659596995,21.451351816836194,15.241527749171713,3.0551631298439927,6.927377980883028,4.051373921942388,1.348356884765761,10.30583201769419,2.580556742289909,-25.099750681564753,-41.50242822547634,-37.032209203325046,-22.769653899448485,-15.021389964895642,-15.260981274624374,2.2142750498702375,32.073365898977784,30.275977950172713,-6.643194584990177,-40.69491986950182,-48.76865156584964,-43.937599362603336,-46.384696845979946,-36.12612789239893,-21.586597922543667,-8.845949262162492,181.83980614664628,534.7671281963106,483.79014041069,-114.51504183302355,-453.26099096966124,-203.96125309087063,-20.97348928023942,-118.10148992205615,-99.44401181403322,5.081883782204436,-20.113472003182224,-45.58758919983733,-1.0872356218742034,10.142164534992816,-0.45314761095102085,-1.937541683951089,-17.300220817426947,-20.313582379070294,-2.547084130649404,4.258085730551669,5.009753640728281,2.3829336886771895,-12.590980124240513,-18.232821427573604,-13.198730283351807,-19.895329927600667,-23.568021281701668,-15.342231443677267,-17.106008666288155,-12.467842174642806,21.200853132684426,44.76995851929966,35.1334931374343,29.616269063639344,36.8567726918218,32.92861659977706,29.49379170280567,34.676279339786376,24.041492887862137,8.637870922277166,17.30852802887418,19.189675210438182,-14.666583086137202,-42.14947151622728,-39.91955219894549,-44.97410321597794,-56.228170331406375,-35.01518919929608,-1.0081286758845565,1.6718817065315115,-12.043725480518752,-9.96949121113343,0.034543736025836935,4.541290346548331,11.751621061636953,21.207976635970383,15.024762531169744,-6.060521817695298,-15.169626734418229,-3.5144774369017995,4.018979116122163,-6.4278706107248835,-14.896163638476384,-5.351710649869181,5.151124037791636,-2.6557544051080013,-12.617588081599783,-3.940770768569779,5.856137503341598,-2.0829794595467686,-11.03958992780709,-6.5532066842199965,4.543809377572104,15.42491365825889,18.53832454418874,12.311609488594932,10.62114652274198,19.382538799059503,31.2239360108524,35.75677083793805,16.94937837780104,-21.693504808604278,-46.630389054412184,-39.431327580025425,-13.184856839148884,7.821331712625565,0.7877080962063587,-27.64348721857368,-45.20142269642366,-46.950568723936115,-45.006375929608474,-31.299000111688418,-14.741381853242391,-16.005690421734826,-8.997135317543691,21.116703572647012,28.357731646337395,-1.3026181379643038,-34.24249750927863,-52.70669023164402,-45.98593192169042,-39.358249449468325,-66.15867445249233,-72.103449381315,-32.004864487509806,68.56966710956023,357.88465360774,614.0790877816764,293.4230740884389,-331.07864883429295,-410.6332497932591,-82.17692163591971,-29.376874490947003,-124.83725861321703,-46.74943739143659,5.2936795332930515,-38.88571130986173,-21.12211330314197,5.1802862067485265,-10.818725678596703,1.0991615942705053,12.69194527491987,-12.541851449677598,-32.430383576249504,-27.04953424801904,2.6462256945783214,29.238192667027192,11.02155732100428,-16.410068136700357,-9.502286520694515,-3.2888941222597206,-13.515686734378914,-10.73367543644532,0.9998307620750584,0.38817411389020084,-6.505988132924012,3.811201356919593,33.14935036346674,43.85689592157817,27.262333603709305,25.637216618832273,38.32345085085967,37.55368518331774,42.81580411192482,51.83785748244013,30.13720093285941,1.0299967706965827,-5.244101331465867,-3.8676815156175826,3.5072578133090566,5.008676776814756,-30.140473601676465,-66.52660623200751,-58.05079445102085,-39.37781201083,-42.563071690552796,-45.27958286590962,-34.27685839044295,-18.29586227477391,-5.051895914436562,3.5723488435223025,10.430707505725236,7.399115127895897,-9.183715633047715,-15.548485641856665,-2.079446138289475,10.720619859713599,17.228433528258286,21.931826650723803,9.515310426566014,-24.161457302630865,-42.099898345869185,-19.55695777323409,2.1175757787492557,-11.309613879562715,-16.837519508465352,9.517541422428035,20.453249643054917,5.992031352574629,1.940529746199534,0.9435254052321476,-16.909975036440013,-33.05288380989896,-22.79368162350459,9.975872018747786,23.552192848330556,-7.3163162786101275,-33.779765968967375,-15.034908706768299,13.500365972018768,20.600549158247635,14.150392978381785,-0.6210780580700437,-13.029275836846859,-8.586957492067668,2.7815613729496738,2.2855557328030915,-8.423607633896406,-9.470845756185373,0.9348475294861158,2.9148277466493524,3.419531310423936,9.754014899552658,-7.156778443830848,-39.504144092263374,-50.76939316222765,-55.197749117039606,-72.27872967776553,-93.59803495526727,-92.97114716909792,-44.75521682467479,-5.599433135832101,69.56385914956608,397.661662423328,696.4684910958488,320.6228232187651,-370.7180704131151,-415.4002499673445,-26.500922056751165,13.54810975549108,-129.90668680710232,-80.64455656715887,-40.41999417393201,-82.05565344935235,-51.56547548007435,-18.4564448945894,-32.71832236163915,-18.074306846902772,-3.7616022061384538,-11.652942669132406,3.3060028875767387,17.08141542270346,7.680405969467237,2.81635569052343,-1.8136009065095298,-11.741246747662386,-11.381658418897644,-9.220842491873093,-15.646783652525862,-22.267489551510177,-17.838627427039324,1.5756810676231037,13.69193850375613,6.964197230640929,18.18465860158942,47.93097594322711,43.55111293423117,20.25282528196579,34.320119931334915,56.80843079024743,35.602343130210485,1.940418150246237,-2.2846369821079913,-4.68542423193637,-28.07566193174817,-32.92329778235252,-10.987779421679722,-18.648013188997215,-45.496184788291764,-23.21007544338697,14.704685132652102,2.7256949091052913,-14.594576584732216,-6.834418443915341,-18.101486482869788,-24.112775300123655,10.146004672478917,21.350474831192763,-2.4364234078552967,3.6944532603356395,15.500344663878874,-7.585912785913333,-19.775590722592963,-12.848142618485467,-14.820071426858584,-5.981762754540139,0.8001024194132056,-6.528002086676777,30.273381056903848,69.29199542194334,4.945317521835314,-75.16978966637768,-48.58888725090681,7.256045648180362,17.25854005808959,14.287108591317338,-4.46661067345606,-31.557753758553776,-18.138735157700566,9.964538288919455,14.116784121611317,14.0255372011131,3.3016963211621615,-14.435397947173946,12.112660804312902,58.88676305471235,54.1856709296768,13.597252618862523,-17.75978955042758,-38.32752589696224,-46.96922545729079,-46.67393123470372,-49.504524192332966,-43.33747213361318,-26.314376450632057,-19.528079686799433,-17.086947141131656,-4.969928594462964,-0.5540422952341153,-24.89693716375012,-60.04548766734649,-63.53070499899525,-53.412264001741974,-74.98691947531582,-77.7205240280496,-42.04674405525466,5.054501618886746,241.6166068933104,626.1548096702145,523.9093015171728,-158.72789380890586,-494.88089692865583,-191.2924710088025,-2.513287928823523,-124.13028233065691,-117.4692381320314,-12.115636651169503,-5.649242156596344,11.934277244945603,43.68122300083709,4.230712022037217,-11.987510040862972,21.312002180274824,4.661160089740649,-42.75092396820201,-37.51360702343582,12.765940308998552,40.59106470309737,8.886693326472429,-38.08764977215535,-42.268050270090605,-25.395115084148596,-21.49245524079282,-10.027555253364945,8.659770506019633,8.142244692991909,15.241057314729503,53.727934014616174,70.21919093059144,35.80302895935768,7.4886901647506665,15.59638512239446,29.333727068811996,38.064161769065294,39.874890810769884,11.861580783818836,-32.22597819518233,-43.850376498598706,-10.415259821078303,32.930115206121,36.24851392910296,-8.536719916089137,-39.88909748614399,-24.268953034945326,-9.718371137544395,-11.705625929856769,0.06502356635238904,-3.9755826786530477,-45.09835648688074,-58.43730578581281,-25.60614743193488,-10.570090741490382,-18.759477010309602,-8.249127292577189,8.275826785070812,7.212267530453612,4.451204389600642,8.350495737987055,8.104962506617367,1.808743014902971,-8.614320737359474,-18.350719999701084,-15.335149435425013,-5.846085224426886,-10.127841874354159,-17.57123613411708,-5.926119299017797,6.841724327902442,1.1274578406674367,-2.053885324499432,5.120907252158801,2.6316444715111347,-0.8463967016001739,12.20479229079648,21.394003634136123,7.288098613735704,-16.939324370160865,-29.251416918820013,-13.183746629192093,21.30975138669533,29.725831810469128,-3.6323070836172384,-36.3196675142878,-40.41785497110068,-31.02122894443024,-16.65026066028209,1.6913222567575126,6.710811730668401,-16.24349948502929,-55.219919578441456,-67.94629538482415,-43.61464483689727,-41.08606294513125,-60.71530162468015,-41.742267993518546,2.9571131733163583,162.73461915119964,525.4695846991168,620.6866135449619,33.88911648182663,-539.4027203225054,-379.842033043289,-28.454981091724733,-56.31249252063524,-115.77095400152139,-12.065322832871047,5.772926555794733,-24.572593434801227,17.546545318417422,27.7505207594994,2.5683495054826366,9.031729232344937,4.394991655333054,-4.383132218257471,21.4927355406705,39.423709040179034,29.82832911040123,6.989037061995617,-34.24546197103747,-59.25956691463199,-41.97488665889866,-31.75539699413153,-42.413526748591515,-28.02029864792728,-1.1013965269873545,-5.250569853269335,-16.514865088693053,5.941715812269882,42.310273253278766,54.10360868184425,46.391584211022916,45.214263551700164,49.72401908221241,43.295679385815504,23.315660749104616,-1.619181876855047,-16.483397630422246,-12.702165108903454,-10.035804050066924,-25.632089423530545,-41.376513040227394,-43.85336200590278,-42.56253339354574,-35.60192726974461,-20.935164862270305,-15.433514815996881,-19.057359755997837,-12.570621182302514,-1.6145415004588166,-2.690712689247526,-2.5353348358863625,10.54181751320322,14.154828604339071,1.2647129273131599,0.24244497375614493,13.270584909678323,14.574458781414373,7.441571066242092,6.840555727468816,7.140367743362747,6.651054041032206,6.253094780617117,-1.7380573596039728,-10.981040508678852,-16.075090103254,-26.458914274865215,-31.044271471464416,-18.361946006974758,-10.851786883812391,-12.119701938632234,-1.6200763025884424,2.6473364538987436,-15.47195804758852,-20.31905364144084,-2.6414645214387136,-2.0592248558481536,-14.66568960093219,-6.021806598835892,6.545896901138764,2.1929960891555025,7.32365677891948,23.498229981678556,22.08286803976865,14.166625530334896,15.918974648258327,13.232377494234509,6.886825247946312,-2.1262517260583333,-29.33278508930823,-53.80302706847369,-48.0941815904881,-45.71301610747227,-75.46092864103767,-96.00371514337054,-85.77842303329174,-87.14137090339914,-87.5557306912475,-48.39571455961554,-2.5604293423273248,152.40361803334886,518.1487324510332,633.6082396117961,88.3505440719133,-455.5236841326716,-319.15965432719344,-20.5756064840198,-66.80416376395601,-96.97175753061133,24.906110779837952,-1.0427245376793195,-100.95111212040834,-65.74686281522531,5.574379938712836,15.485454239878791,9.930601274026408,5.5056033071035095,-28.867303713326148,-79.03793055061985,-48.43976116802607,62.13750911514066,85.3508940855973,12.808958361778076,6.501500190505755,34.789611758355456,-2.294206728202562,-22.70693665757114,9.043768127715097,13.837009190310157,3.4852508650370453,9.544004460340462,2.0072624803254158,-7.231739043290103,-2.5647715743732054,-1.03707661999972,21.124928240688227,62.347755628491804,64.68325212287256,36.48995573551353,20.451633562274548,1.671921025131458,-21.083886877119447,-21.796867605592638,-11.95790108913968,-2.463994170692727,7.457333780264793,-5.0766214771718605,-34.19174237607219,-41.461874889901814,-26.21093194955495,-5.11260287566127,9.47604648642643,-8.853071912678798,-36.30968941825522,-5.6682004454914825,54.69390595054426,55.40100013014049,12.617420651952251,0.11992592792750578,8.840100693084151,-5.286770106494941,-30.661340818340935,-32.864983256922514,-2.227499627560956,44.333417209829555,73.84143522130519,66.52425208183095,34.33923345580588,8.085743532677224,15.761363474626329,37.66617804970409,10.207961319711998,-58.38110377729849,-76.80718579334874,-36.068248354777936,-15.995214198305256,-20.84444092115627,-5.841357976874054,3.0270402167963635,-18.689106726983916,-27.843195559270207,-8.133321640389552,5.6090962332230205,6.42362078080756,13.514537399358087,24.47227655727307,24.482959112392603,13.361805770480203,5.993069043454466,10.031991885910188,10.691020358411878,-4.099038095519678,-17.0063985381906,-8.696939448599926,4.4076892518019966,-2.0598573886925156,-18.682664373892344,-35.73955610728085,-57.3294295602408,-62.413823962278606,-57.11463478359357,-78.16733018279062,-84.72858994190854,-46.80200018692905,43.946519231928534,339.2183412928484,694.204596932087,471.4842303758978,-268.03748670262553,-540.5195278111943,-183.68916460768062,-4.995367909834599,-113.5733265742328,-71.16613163591371,19.836668650296062,-13.038856401136862,-2.5159252338464917,39.387836917284574,2.0648530217662078,-19.097571390421344,7.444320019672126,6.579858763812476,3.2706929230645825,17.895963524035558,11.588327433750829,-1.6178280207807663,-1.8677835528623712,-6.644576078239157,-9.090844710200782,-1.8742388680072022,-0.08755764684302036,2.478126356047513,8.514356544133516,1.4683570071698817,-2.7522986821056286,15.284416226020653,35.24367491598705,50.3152370378536,71.83335601506998,84.97039458613457,79.01114161519453,58.8038311082727,18.810264575038893,-24.62516348811792,-37.75122182517527,-30.47198231467507,-32.5634748387588,-40.59550916242866,-39.53667995230013,-28.601103484323307,-19.05108286660116,-26.671412296535284,-41.55596510917621,-27.832352965294096,12.51548758282819,31.11384670121616,16.998184726235817,10.929682578507872,19.189629624324432,10.087952865847686,-7.687636878372712,-9.632949577561444,-12.41424091412681,-16.552047150850946,3.183769253499158,15.973331400778495,-7.476701457224389,-14.068431408481665,13.863867879704257,14.415132330595714,-12.222437556205183,-16.199390663854793,-9.537252340271838,-10.197606776023004,-2.6345692793868176,1.4860895772891403,-4.2976867697932635,3.620566826774087,15.159053808553864,10.184481241488108,2.668849766759802,-5.169200757836481,-16.642905384860455,-11.64420914741748,2.9029568984200753,-2.0960235659914446,-17.892101443405135,-21.263087999686363,-10.001928865104679,9.435555473915812,22.331394077246483,17.609655947206214,5.523587740856018,-3.3263508116742297,-5.735878499993257,0.6463251982179719,5.514191772278072,0.344834060604569,-6.018492950388996,-7.366337017748207,-12.69344493951575,-39.057327998885995,-67.54933585623968,-50.983013303180954,-31.44883334248908,-65.82641924698612,-72.8355851780938,-26.274811756113962,62.84634151835449,375.7013184707238,714.798229005939,393.57145137176724,-369.8996751422803,-523.1617764039627,-117.0152135066615,-20.5000093336757,-160.12392783671189,-83.11619682870122,-0.7052872445962208,-51.41758285478859,-22.677190159738302,32.82697752210227,3.890052419280771,7.4931995596139656,45.4366014688916,22.116399293884008,-8.313332034638124,-0.6358008565714748,-10.50253212401536,-37.04241425906485,-34.153195463447695,-15.490480431502153,-12.560349372684163,-18.505648964135478,-21.23942409786323,-21.30266826832721,-13.095621592112554,4.753304391094337,20.716858447392823,29.613588186464966,32.219473352085856,29.748041137978046,32.13652740843397,42.449220250206054,47.75936001409429,42.69655983785022,30.980920248667406,14.743924225850396,3.8488745589927564,3.900585621771497,-0.7514334391798356,-18.926388862452363,-33.80006778927292,-33.91056450432827,-28.430571389679656,-23.7492582519391,-18.73179867893287,-15.360363193249444,-8.390764540555619,5.591041311080056,5.714296270028795,-14.466827069725262,-18.820881730082895,6.6261747547176935,25.040582402841565,14.12555066919938,-4.5224740195792,-3.0052644335413867,12.741681858734587,8.039506841424695,-14.729750333407006,-15.012884462238517,-7.937022012930628,-29.103871057369652,-32.187449209399844,10.102040554289378,24.963119012553424,-6.352095843253466,-11.432075316060255,17.696422158418148,30.074499875869222,18.611782016932004,2.5135809271397833,-1.5997945477528028,17.345933890315404,44.255681955420606,54.87624949681992,29.944892604467057,-29.515114942511666,-60.83065870709296,-21.98192154477857,13.794982881102612,-9.878901316601848,-40.34375676647531,-45.6145659438287,-50.61379485909958,-56.01135405082637,-56.091012823807205,-50.19895978268979,-16.486085833168808,33.90609508539204,48.046330742957714,10.22922459898084,-43.32824807679536,-66.86007503876878,-63.51594298675954,-80.52732138418189,-92.11258444726447,-53.18109921283801,15.06568238809038,235.93673611836965,628.1984202565102,609.6700879575728,-95.08378539664481,-593.7044465162277,-314.6362028159366,4.328706034167293,-80.84739917376166,-105.32496360562985,16.915602991343327,0.7250674328680233,-37.214517274511294,17.130494202234722,21.87817876112508,-9.641464997311054,-1.4634685639768037,-4.463519337985293,-13.583140251738243,3.8873670980719623,6.113850378260821,-10.029484292830936,-11.549127374102095,-10.031445263806722,-14.31901593994506,-12.907799330674578,-9.247092236211895,-8.160055931169381,-6.53325145749562,-2.197567160950891,6.821191613021082,17.266735484327192,24.14044779004244,27.80287522342632,29.899951387294053,37.814408573913774,55.080345557554935,61.31896767929943,41.40243328668149,16.15797810965978,6.638229612154371,4.601211038071401,-1.398331238398675,-7.58485638581973,-11.109421832062772,-16.53044028408835,-18.254789238694965,-7.898373116997822,-5.405867391984181,-31.710154939744648,-61.167470250271656,-65.25461950056072,-58.44190743601192,-50.70572793075167,-30.075949261937616,-5.650084838636552,6.288113786805958,12.67631906422469,18.06354294232817,15.48653984209849,8.829444516699116,4.007070637458543,-3.65389826879791,-10.569979661972262,-6.539110544656513,-1.2914776027882553,-4.768391384659786,-1.5817133153894396,4.983354110888746,-10.062719661507163,-24.907731231884487,-10.080519668954746,0.6335331396635819,-7.987557513522672,1.461157378281512,15.789823581978101,-1.3305877534621828,-15.738258183215859,1.3649170757773161,11.454871138418254,-6.071838749436731,-22.458137891227878,-18.197158359457195,-2.953624330821354,3.417688410447923,-4.460344804202119,-10.84679304868262,-9.980425883222075,-11.358939649818689,-12.823198961670759,-12.002197427844848,-12.540922786444977,-4.634016450598999,11.453565481021663,13.92473494961295,-7.869660938692455,-44.97900460771825,-67.89865122179496,-65.47293559244083,-78.11158094402982,-92.67668955398554,-61.88840890095213,-13.075454398448102,157.05598518921335,529.3120431482839,613.2195482858806,45.34677699657907,-459.51241594493285,-289.6220866940019,-6.855043977875029,-57.702769883687914,-87.6424542576051,1.836369706307451,-20.031269653032595,-55.02022390115592,2.4227740015965242,25.673144166416158,13.475183738129264,30.287494478032162,16.12859867275766,-39.03398816300684,-62.61982138363633,-47.43332113609149,-30.506408578654753,-25.63909152900404,-31.410332413252682,-33.74477848019085,-19.958637020931157,-1.9997210998238861,6.884480815023949,6.530357342188698,-7.370865774041498,-18.73346770210913,9.171320822609147,56.575650122612636,63.7963595835341,38.43550395294882,31.190558799323828,43.98412471371638,49.449711030271146,38.806758278114906,19.467448996042094,5.201392690890263,-4.675057362836471,-25.73410642706522,-46.45630108766531,-42.58563031108028,-32.45924574120106,-39.77861541602833,-42.48122206873941,-32.24663919200798,-36.203899606844104,-36.764542368998036,-1.3601093286737909,24.454809903413555,4.105888400910018,-3.92645260936972,25.679848098130414,32.30353453673176,7.039680214432379,-2.3803927987006617,-2.46688991834652,-14.278256311792946,-11.73859346085795,10.217743798432192,15.799276331448166,-1.8688645114516707,-15.901218181184289,-10.82558203885422,4.0593263453882,7.372564598086392,-2.5605611351218847,-1.2584769165616885,13.95105119649736,18.458571025817484,13.485370974328662,16.639197218331756,15.224531025888183,-6.238347366172935,-26.747595910853367,-23.604386009501404,-11.037910016908423,-14.82556497290592,-27.126149689692042,-16.425518115674034,8.696868489561759,-0.8454951308803835,-37.066300220773165,-29.473847843246425,22.277272641762963,41.931028793709416,20.534456819221703,15.740893837551397,35.57917295678501,49.674093177484885,33.12283953519817,-38.4816521965721,-116.4366998415952,-110.6528346386903,-70.7555031290232,-79.33706797284194,-76.68933249032843,-46.29080853545504,37.50545345653373,351.4792121035009,644.2629115448494,310.86748659029263,-337.651374357869,-405.0792104088473,-68.62246875996304,-34.11475701965989,-131.44728161970724,-40.10718419088161,-0.9375630502101657,-55.627829808577744,-8.981702292792093,32.00683852596247,-8.741615576430739,-2.608384436544335,20.315768890709826,-9.131871171574101,-10.995834955120461,17.80037486858801,8.361674154298298,-8.21610811390274,-2.7821699987948256,-7.773216559095113,-20.132805063577248,-19.05027321133438,-10.880999934024423,-3.921535674997755,-5.013471047909155,-6.215092713570934,12.296078333169678,33.32521575998579,37.54557670877634,45.8423447172575,53.26003882140283,39.285262188111965,34.673703444873226,47.13700672469809,33.05452910256201,5.47940982472352,3.5281950280486356,-0.4145033316269462,-25.063399922308186,-38.08464709281982,-36.45142458414874,-36.05391718624227,-30.774713526939507,-29.106916700669785,-35.196932614336646,-21.916667184386412,3.1068890393145754,2.8825238590958318,-9.498602950052517,-4.88241701998735,3.0751097166385595,1.3578731757114708,0.8788253234548122,-0.24065638485991947,-10.972341954786968,-19.17053337228106,-8.199241420146546,13.381770778837618,18.815230912606562,0.8714224254634191,-13.52761130951193,-4.998770245312112,8.24238096151592,9.478803274190398,9.277269367661386,11.477063377006479,8.467003851985746,8.844747665004387,19.590963913918458,25.705427484798086,15.674704390900674,-5.676458494438499,-31.136278325132768,-50.324305613927194,-46.64685397278709,-19.030371828118476,2.998900907696431,-4.568086658156684,-20.516231551706284,-17.254429242491156,-13.14994248508587,-28.2507567382139,-33.699927852522976,-13.27635053040751,-3.81316451845991,-12.159197571280163,-0.22443264326715617,21.61597949419028,14.10282150559901,-17.880702596823795,-49.555306451143124,-56.24645141931427,-43.75543901834773,-59.69402507852582,-85.09111600430903,-69.11390903401897,12.846262267069292,290.86406754739346,655.768395600643,506.5732302218005,-180.82270802533796,-481.1513927941701,-162.01429981033417,-0.012279920230490404,-138.07669406275988,-114.66005757544923,-11.73603632800112,-45.740893808663415,-61.28810431961488,-22.111750747684304,-18.80822223526532,-3.276938775243229,12.777160743846746,-12.895831655113644,-10.209681434211529,18.220876354330365,7.281198422388713,-8.355078058035211,-1.484507682862441,-6.062960089207193,-15.538063366368394,-15.466225532875498,-17.983480705225954,-9.261872153577375,13.526351815726006,17.198022884380343,10.585592291212276,25.235122154225373,34.95369546847964,20.891760346157167,21.21823018764984,33.291285191378485,23.300511969626896,23.022996105205056,46.33743014409308,39.965043426162374,13.89083602773282,8.738149628230097,-2.9693073118036613,-8.917319539412016,18.255953778529644,-4.5560277114625976,-84.68771366388214,-87.20483543626067,-24.482239849125023,-20.240401648956308,-39.07851867879704,-9.504768717064872,14.16704554212045,-2.0954134448536657,-15.330041611475531,-8.81483820137348,-3.394756809369344,-9.061052064606457,-12.350892186252684,-7.010171008838069,-5.025781715401751,2.3848195643933066,18.70496213969082,14.106016801400191,2.796191562435565,16.224757528942973,10.440380077712245,-30.446810168437928,-39.615291005247485,-14.344954986721763,-4.297041960081399,9.740855972028216,38.07260005479511,25.643914766137925,-25.12543905687518,-42.68486876848636,-15.025879889443093,8.603252909028262,13.564194997323643,14.662112381571534,5.396064047152933,-15.296647641630406,-24.380437090633105,-18.097028621644995,-14.379643857234374,-16.270595382641687,-17.054563244395325,-17.038014076022886,-15.787704527096972,-8.434676236496953,3.1478255226855625,7.327690637390134,-5.722793715550921,-37.99300537051836,-66.07167950047439,-51.827162262021275,-29.877394137168142,-60.2855587276496,-84.36965195644814,-55.256496597092365,20.940820016570797,286.53643807066567,632.962628999217,472.85055760895926,-163.38110268780815,-402.1248685009464,-109.13006640044053,10.361612413768878,-106.49999788501839,-88.74383754222534,-50.988818558970294,-101.40769108092852,-69.2847602814383,-14.225873311348387,-49.18775789066666,-50.856811026681356,8.706045981614935,20.967749479791202,1.3740477791193833,1.6996467581511325,-2.638642999720293,-15.179570840232898,-12.586705442333862,-8.863029909469383,-22.875478988281692,-33.4463055294169,-15.49763304714414,8.233945377393844,4.435519723507044,-2.9126545250742066,21.177823013752807,45.90346004655089,32.65386308253021,7.126313412473822,3.4261174224508153,18.08039123329312,41.374163067218305,55.362748036518184,36.583455618339556,1.6563676164944292,-16.992351918525593,-18.18600750909636,-8.597008551440227,-2.973971792575755,-27.21017358317829,-56.62242036362863,-40.906956873710996,-0.006955257096183942,13.057473264594387,-5.367069422071651,-26.43683139693129,-24.058258039050642,-0.7844127131091359,6.0163785679015325,-10.635307240855239,-13.96701298240173,-1.6364466234708797,2.3426863382617737,5.638862452926438,14.065085181805692,10.066706632470446,-4.022426160708826,-9.406290342862285,-4.30016173997704,-0.105083354216438,-4.8103469585755185,-13.672431984213173,-19.353710222215984,-26.899874315023734,-28.504666562487383,-1.059310641728449,29.53926241688513,5.191066554929877,-47.41305247176471,-39.980574250909015,18.311724570392073,37.12274091557113,12.543909257141765,9.584044639413175,22.43312897791035,13.856299949161862,5.661623126330518,16.70215662236995,28.136329370972753,32.06041912755538,12.00121347055927,-43.42455670919514,-79.37667111811926,-62.24179820503184,-41.59390431136271,-33.55536216251034,-14.224404677144044,-1.3359738335612397,-2.693417282542443,-16.853267137474973,-63.45270011669945,-93.27021647726649,-56.2690952365528,-20.976661818950774,-34.976057898903804,-43.771144843243654,75.69517386536856,416.8704278028829,651.6737419763589,268.5470579016569,-377.3279101361112,-445.4078001107412,-96.56522115998405,-27.937986131720493,-136.9016191789133,-68.30074535152661,8.961349991089186,-27.570756938509106,-15.28741264715034,43.80821966401444,23.64565949782316,-51.74801684903995,-77.31785529748575,-35.66076989683212,6.451705266438304,26.238308917642353,37.37263796966284,11.231964609620064,-25.6169297131546,-6.557006884405776,14.534564338627003,-18.066464581892852,-40.34374001549611,-23.966017736671674,-2.258823151886453,13.035133131675769,-0.6105565984268218,-28.795214072167774,-9.330249650828682,33.00781131345337,41.18596444959147,45.24115684319729,60.088847413308535,47.00266607758787,14.794759868033092,-0.9377312547189103,-0.6798909935798969,-4.784285765402418,-25.461059549567103,-36.49071521456297,-5.114986097915453,27.04601202482067,9.92343856702782,-15.802170806151958,-18.409461271940586,-30.12652603049088,-27.83207062348655,20.735914093557255,43.9487607156528,19.52424841912145,25.54052798004235,29.936055547089985,-38.489132583453724,-91.64758738619334,-63.48203811732374,-30.34498781855632,-14.296063422915074,15.053439465160816,15.833371638333702,-20.671116390519764,-32.23359044263563,-14.068725609007148,-0.11613082718080392,13.278047310646432,17.608637498810147,-11.37084696750275,-38.33143827186508,-19.239577495050902,4.844502762367943,-3.371435054284719,4.973410130702591,35.19038245904797,14.118620306632522,-39.92279738888597,-40.56096449300156,-9.481586646324406,-7.380644209394884,-6.829674344612479,10.809628463962861,9.724736715358935,-4.3747111832458465,-12.79710035058279,-30.23450528776652,-33.34847450365653,-3.126550081705938,5.032693388677326,-22.426366425682886,-34.503177318932856,-34.025692687322504,-41.98095846114474,-50.293533663967594,-62.063459215049726,-66.05172066608651,-47.82994876123935,48.3482145156856,332.9819954014905,579.6896519429637,302.33690528159445,-276.0481590732779,-390.7442995367138,-94.43843542260507,-9.065712737433259,-95.54401155048397,-46.75066718585824,-8.648887009966785,-61.60613705399617,-28.64986122772376,46.704185127639334,32.41942867687189,-11.568760194426993,-41.20423975734658,-72.73644090128913,-55.81253074088947,5.409939013185409,33.27424499402461,31.36080628270967,28.49125740676111,2.4998788266476577,-23.197334687740856,-12.553597656094363,-9.819764757226464,-29.291993402425597,-18.542340010174115,1.0829478226175269,-12.567779973948687,7.528006815670221,85.30720612092011,99.79537822743349,20.902709559780146,-11.974050021666894,33.39834598602655,24.837078703034873,-56.357722046240966,-75.91215437571128,-6.812210500735542,27.724833193759935,-16.893703658581124,-44.518687445759305,-11.724678512626106,-2.6645694014940595,-51.28003560077035,-63.31359734025831,-3.27052920164995,29.12934041212089,-2.8143334528375625,-14.459100126968906,11.669198450883801,14.551549223743871,3.717076831730623,9.66563819944651,0.9293659279617756,-25.48166285290505,-29.565377417988497,-10.852506775198782,10.119056600588728,17.439457277924248,-3.251642004311126,-28.07430328287709,-28.474935884157205,-16.854247470877972,3.3678932264697807,24.647876189355113,8.486341152477403,-26.411858137042085,-20.397186386518776,14.731874520495104,30.184510093088832,10.352665764841438,-21.907902453146058,-14.837676901815732,23.6792219628321,17.752514004439163,-19.382615171621307,-17.725991993090098,-6.13117108327552,-16.223816610032976,-0.3333771880625527,30.816244354804375,13.034141901293983,-34.44045805178369,-45.89248840052009,-9.285875358851206,27.26180364477903,6.7192310339258405,-47.043216894205514,-56.90493218951999,-47.87054204732584,-80.31326207016359,-94.63195512138583,-52.1953139091833,47.927858822024774,314.4375544964048,585.5160593871364,367.72247866756464,-194.1074950678567,-338.7592173281074,-66.26797069845051,-13.07640206186538,-154.77729855396834,-117.53373406150254,-23.722387218092152,-39.25651140262507,-43.459572751719435,-21.25983824828396,-31.53752638153719,-25.938801655746964,-5.123645972166356,-2.560068026636351,9.276651397713467,17.508158351610994,-7.688654759719505,-25.851526834855733,-14.475621541262724,-8.11439756691954,-18.65645640033024,-31.40851234071175,-43.75318081411865,-49.951556858274316,-31.48501253375253,6.486250108895011,25.38128768772887,14.257241947417574,11.210009227093478,29.539017517193052,41.51836878869094,44.80042853706446,51.304185494302075,45.81674168766432,27.727345104278744,20.681950540685197,19.633586453531965,5.932703315942481,-13.472531484235857,-27.274741035570564,-33.637288203685856,-31.755567489989943,-26.222733164787034,-20.380733369614873,-13.962174994547576,-10.60810810936349,-5.629833551468827,4.262946820019081,3.991917248877307,-4.059476623078721,0.21460291622275207,3.6536689328492624,-9.987092902377835,-17.3334277660984,-8.348301580429673,-2.5995942014529696,-0.32671608027496557,4.480046771555665,3.450789680830935,-0.2635258203947348,-5.545312020274061,-20.57786109788487,-22.899501709270844,2.82952260024911,13.755175272728414,-5.977914864878038,-9.10930895849761,1.126428238933526,-18.71525093892273,-34.64440745834883,-4.686393595086034,21.353812545694506,7.964863718494435,-2.506302922337202,5.8641112123193935,-2.072445007234002,-26.107677710460873,-20.446838016789076,19.789780878177964,31.764063633675168,-8.180206444355353,-45.684960543879654,-56.2648331283474,-58.23101682281814,-67.51773052453302,-106.43174097078031,-126.60711111484457,-67.59717249436869,14.132919788536796,199.28847482766497,572.1644908076621,621.2715351534462,-24.010544313677443,-580.6488169728149,-387.41715081598034,-49.824650325159475,-61.87326646903344,-67.80522900088954,34.00145494415634,10.185397287431229,-34.9699853926152,7.173820884204522,14.671416183593266,-8.178810336489585,3.44395773434748,8.59922325727694,8.959063068601381,22.397531443585702,3.5491917285885854,-34.664759735443596,-30.690941948132664,-1.9208896999790106,-2.7242916972645403,-31.724627999711842,-51.88220231642205,-43.54058411429209,-23.584772705397036,-16.800343285088378,-10.090135140631618,13.576524463234621,27.662598180089407,26.47027976269819,42.886813386341586,56.97593901467867,37.899673277735005,27.133045853506623,33.475123332590776,8.94802226691197,-15.288623560049086,5.465399081611785,15.650931357662277,-5.754487604496886,-7.117696723809859,-9.962963487826919,-44.62413931701422,-48.32525767938972,-10.884470472242146,-9.247855313479334,-40.382458779101945,-42.86440757847982,-20.34181725924456,3.054578038726338,21.91527140905208,15.468073619671369,-5.122630993916829,6.760118721755886,32.65456546185803,22.53916124406478,-0.7423569879253158,-2.9999807555640903,-3.071277398790622,-8.139858933406074,-6.997545134520284,-5.6492874156717665,0.7185323348010559,7.897080918602974,-13.158911190630317,-40.20848916972777,-30.16730405549342,-17.02644541429271,-34.480955223056576,-39.944237396539314,-10.764597542706763,14.5687660300291,9.550233755510318,-14.834909723781342,-30.601348338837465,-21.95937370140381,-6.493722779102966,5.0440307686575485,21.08151547072594,12.055830796137261,-38.085534741460464,-63.08410303324938,-48.81209262950617,-62.051295464872304,-72.1858578735998,-36.26877851090286,23.749434480805036,237.02397307244792,563.3501442116296,462.6894665836696,-139.11713903783993,-429.18674341511644,-163.4731238461421,-12.44875440956999,-114.98462774194122,-76.42049874555029,13.62975196275336,-31.142036315235245,-35.61541096887248,16.993035904709913,-6.885589935342715,-22.655376100377218,20.88431261425103,21.370762378941546,-7.686476390320063,5.6302548146733145,18.140333536281318,-11.265785871447875,-37.38637064211993,-28.16288698555612,-9.461028309351748,-6.190112827339792,-11.023715130401328,-9.016289896549573,4.194834146778904,19.995604484679586,22.512975247641247,15.071502849926572,18.242793086817365,32.28935857242831,43.54872004221057,47.96297040533981,43.4441208044605,37.35265237920435,39.560989477590795,36.14342244665464,25.176513558977604,20.45699826931514,-8.924768128731138,-73.35423019289838,-97.78566961729467,-64.25526339046023,-52.50585520436487,-66.21598077684571,-48.02824886829817,-22.99513777727614,-22.621536320221047,-14.324683668397611,-3.4762822182250517,-13.717880398389893,-7.3626195252399125,16.991964839862558,2.8309984546621987,-23.47070440629412,1.8744101660536483,36.76850234941682,26.68920270882161,12.142396009168031,18.07268063337388,10.219907835846737,-2.7060198926369585,2.672087171271164,-10.455413292580372,-47.609634993595336,-44.86504723891673,-3.5958443186950984,2.7901374447295737,-25.653846074808012,-33.26422714859602,-25.63291767639022,-24.09294300481104,-15.049017742047468,-18.61739572126904,-46.474851927380065,-52.873619837082174,-51.69388978112771,-68.50536195853712,-45.63022284029057,12.408146310105764,158.26541433412336,526.5539867210565,714.6801180666625,177.0985946814294,-489.0628093171453,-402.1467837524974,-27.65992932186826,-65.81496627695222,-161.5578506554354,-31.79474498275898,11.987430414760269,-34.52240234575779,9.674208080667839,33.39284868292367,-2.3619061620664823,0.6821911349368435,11.622031518860675,4.730520928591449,10.842424707957697,0.8603711570016084,-24.53131515319557,-15.779022812596036,13.128187431997807,16.14547173648997,-7.5384396927776995,-25.310689268433848,-14.829508728244038,11.380741318653445,27.1882780526309,25.507292551084497,22.48484163218813,35.85849574527008,55.85080787518756,70.6760806433258,88.75141437660717,82.77790416649702,26.342471098732393,-18.913883387358315,-15.220530546969114,-18.99156132343866,-35.66236357430657,-26.86484397548502,-22.028566650266058,-32.458725191063316,-23.292679746799116,-14.03120082704157,-23.948828530959204,-24.60083714637904,-22.326329334971,-33.976089436082596,-34.74100710368698,-17.35379304024086,-3.0457932994892136,-1.4341947032749935,-7.164805268675986,-2.3645163479874522,10.796492181320392,5.433241836972419,-5.916565456973137,-1.3468326209593418,-5.4176917634873085,-13.916182890461506,3.491974451168892,14.11888536411246,-3.428672904151055,-6.8827800862982205,5.391995974083416,9.940987054686913,20.37578717476414,14.881654410836497,-30.300380789820615,-50.15778012405184,-12.836990571721202,9.942554583994976,-7.5247609011167995,-16.905018185250768,-13.677653675442505,-21.481387713236323,-27.5756030336362,-28.79509196737081,-37.12759797585978,-23.670047629430577,5.0684950226563625,-25.78265734906534,-84.6099191672513,-74.9538800836161,-50.484433659317816,-67.24112621566067,-63.94762873525595,-1.9581664795709202,242.80846016188212,653.854253028277,628.5096492562315,-78.48811207409285,-552.114367739035,-274.9713937230355,-4.654772375259622,-116.48570106492987,-129.01997828030332,2.330237978134896,-5.157363236462899,-29.290512497949173,24.0968712111108,21.37108660476236,-6.916667460109052,8.839165504776034,6.693420416829422,-12.887287442296008,-3.9277917497280184,10.260670811223754,7.802178835840831,-4.330589781758561,-14.471205300272889,-7.1911331483685,4.163927500285261,3.624817049155762,5.921596603900847,-5.1601953573937,-44.838870680743035,-49.15738422609866,6.727898659207046,43.929268628497326,39.13638487294978,43.14347859532281,52.464125417874186,46.166267758687695,38.374623412074484,18.798203235068357,-17.768724372874033,-26.1306295303783,5.501793454308091,24.157723316921945,1.5359266883570157,-29.245044170529162,-37.394235255729946,-40.76467398083881,-56.204001971607866,-54.10369436630998,-21.98934263613949,-3.5141945562565056,-18.868952159101372,-28.608073356710708,-7.366409017395124,14.028401245659566,3.972710807288916,-11.517284509477088,4.004630300343168,20.62543998503973,-1.363637814763372,-27.00289698720697,-13.57433982443678,13.561296457826169,11.954932071518606,-22.65443891293445,-53.14286242465925,-32.95056363078763,17.098052147385264,23.44162204389211,-11.083945820794117,-19.881956085612963,-4.273806396148416,-3.822726941864879,-4.418119332395772,5.505051451014236,-4.53462565169896,-28.90032928055925,-24.255553272989616,5.717039225857775,22.286582137519694,18.510203709579002,6.351830010687561,-11.423724606139587,-22.419183214400928,-11.855498660148841,2.98399533471488,-8.833180644150353,-32.03286472543009,-14.758686573870781,36.975583338661195,55.81596279996388,20.8229446109779,-34.66941997280226,-83.33783822170226,-108.71554891776785,-118.15781817894485,-120.16973861839969,-104.58842494228304,-60.16070423458261,141.41541335359673,546.5984819577444,658.451189342537,112.3526123385109,-404.69297114096884,-272.9229946267383,-28.100641700800306,-103.60060119074194,-123.27423482799162,-2.0564668879724977,-12.301140151022238,-49.37216923023105,3.964635277573418,4.988026705155406,-27.207946198411996,-0.9297904464204176,9.718878749342094,