ECG,2.670311288472476,29.62942222636031,59.81918594272199,74.13792491277269,62.935487899011335,27.12279545137669,-19.023299343636154,-34.87003007119219,-17.711327464032593,-18.915415321618152,-45.538255010666475,-57.324072187444976,-49.797399927568385,-36.972589475378285,-15.490556117080153,2.5119366016074203,-1.8158671866374974,-14.155050306708112,-12.271058016795656,-1.9836663949072424,1.3731321674058403,-0.957458174470494,-0.30944828255142554,-0.4285951184186523,-7.812251270262797,-11.843138600295138,-4.468812710289061,-0.06057478555982776,-5.420784471616244,-9.365613778596803,-11.945613591258814,-13.00453966851244,-1.9658179066889616,5.930950272630599,-5.209447451392982,-5.891780986207044,14.174690908682049,17.285951377015113,5.507787952611645,9.900463630873912,12.353986090711775,-3.4950810689931515,-14.227947231973035,-18.73386279869939,-23.560617534649822,-11.400967177205708,1.9598957192338773,-11.836372228067876,-25.5807109832782,-15.620408575832238,-5.413157021617444,-2.1214517146779013,4.78533363378485,4.723441366075562,-4.351334174761998,-7.116943051358119,-2.2736927883485176,2.829679134080422,0.9326579311035985,-12.840181967485309,-22.68363502746329,-16.943069604145784,-19.068177773908232,-32.64743790962099,-18.0946274527166,19.783018120090247,26.59253467674768,-1.3844106005593657,-29.36283860620321,-48.859928290667504,-59.005990894277616,-65.12918928611097,-68.14598982322656,-49.18136426315458,-26.397892366809756,62.20372616352317,361.336275755119,593.762723531865,259.4649246783459,-305.0952414862696,-342.54349251069334,-50.45942776162198,-23.123260522981216,-102.42125931072746,-19.509064040361693,32.70102007781717,-11.598107423352015,-32.428142016794986,-54.07680796319575,-67.57651257690665,-27.333643862745486,-7.5057981771821005,-20.71704486665206,-6.210915706106427,1.495126280777228,-18.578937274725035,-15.698829497109315,0.5403508517992144,-5.708858913805468,-13.343878897995445,-6.397346365835259,-0.6509623436425507,0.5854325863381249,5.282742529105395,14.251843702250826,20.115846801781935,12.084096698297149,-1.1216830647401999,8.458648781423005,35.45080117252862,41.104657221067,28.09928461274606,30.216424557188674,35.03760816170905,18.889241953948765,4.01453811113482,-0.4445100111287146,-16.901006751054183,-33.97440619114341,-30.004219022786636,-22.812779238045966,-22.884365184419153,-16.928961384401624,-13.953231893201803,-23.22501836987081,-21.38582646104686,-0.9757582880380102,12.503006052529265,12.917711874602478,12.314385718332172,4.524075669017858,-12.89422944718905,-19.87114274989527,-5.870624875149279,12.195830272946917,9.22187953844707,-10.15656096375009,-10.22849451039631,5.2473528579651845,-5.129638275478989,-23.858563164216392,-12.267696935800913,2.0774550815393074,2.939381630817043,13.255679225037218,16.072807853225065,8.19162434641048,20.380770982528745,22.16515409861104,0.3597982399175095,11.093016998128657,19.362543729629174,-37.976160815016314,-76.79694844625085,-42.09761353443026,-21.5097063276119,-35.915800188839185,-30.025729945701567,-19.753976945855854,-20.146385670543754,-5.82360709496467,3.9472834781328565,-4.8724352509357445,-1.4282906387131291,6.9150404730950275,-6.235261793363076,-19.126778888334265,-12.887784438064664,-6.050957428378563,-10.61320287551272,-19.16183613587951,-18.32212516980501,-1.3111631242133122,13.758401828680714,2.092025358300333,-34.50379938311498,-66.74928443807723,-67.70413599650885,-62.95890973915478,-83.13994192308382,-78.04492768051908,-36.60814861194007,24.66577533141661,272.8433768520668,639.9174436307393,511.56017616980665,-180.34932755983675,-523.2629231663767,-217.31742397972232,2.9939949152427463,-86.28723539652563,-78.01501215794522,5.334106264423916,-21.21851675171768,-24.622480712639295,24.994565617180328,14.975747407784489,-8.636163185209924,-0.9659200333059479,-5.265506014417603,-4.4683313282813995,17.759796338401586,18.041870373360013,-7.6262392636160135,-21.468432795233305,-15.85305691454512,-10.851524994064143,-14.57826831697508,-15.324225535205757,-8.52708988891149,-2.63337300995215,4.571736337173381,19.23902113118891,32.59099984733784,30.419730140366156,8.784809845919387,-9.472412936629004,9.18303538495214,46.872646030778554,53.30887872683952,36.35026859683252,30.99853515810318,22.984402175364295,3.331679795980003,0.9677356479990182,11.84203228327753,5.550465900851648,-19.63024440099735,-53.806958528357725,-79.15350374593919,-65.58676089012602,-24.368439816186275,-1.8842118845335527,-6.386143867446414,-14.11986530724699,-16.268856310892275,-13.09901875441946,-4.342572000296226,0.9658029853135925,-5.363833349732108,-12.888868075403158,-6.03684875539512,6.429422084166395,4.0012913866639455,-6.779317125499851,-5.820878852701053,0.9950666719999859,-3.2738499218445742,-11.656017366843278,-8.664250990145161,-2.823666581457296,-6.645048056578451,-4.890646154576423,11.07982397593465,18.653614267226324,12.158391698057232,5.730106144607283,-7.468405883016182,-22.875439976785827,-14.984651624799206,3.697442519205246,6.7837375974095995,2.8318023132984322,-3.5438404349167367,-13.913746731370228,-7.559520553996821,8.808072824476614,0.13945151153950697,-19.603632523706235,-15.194822179639885,-4.332270474064577,-11.983540867397998,-17.795255259931007,-9.338317112097286,-9.179111698341648,-16.852347458450975,-5.655415292712356,15.091619149977387,16.9170375037775,0.7121888166182724,-31.664825441250272,-68.60458195985285,-68.37215049188386,-53.24184161803078,-74.26262920228814,-78.26650936500121,-42.88221184296261,25.19140018330353,288.46563895523815,627.0077405852896,442.62241801310114,-212.13676627337983,-452.7221159373172,-148.29728740507608,-7.64691817458074,-105.24681784665158,-58.5166931674745,27.538143380410936,-8.17480716902422,-18.96470674361405,11.210599159144197,7.611185785813613,26.585059682354963,52.046582259939925,11.599633079417858,-40.54055822362462,-49.02640465862086,-42.53245046844037,-31.4057081197596,-14.78018614785672,-15.045143548430346,-25.065071261025647,-20.033165182232462,-6.92072632100171,2.494500794563871,11.074937501939896,11.868125656170914,-0.08331674792970212,-8.322744541878288,2.5676322444816524,27.299415751687388,45.14891205232351,43.07656997312297,36.87898912759775,43.910477575583116,49.82676086328105,38.008268287927436,16.933447166488843,-1.4884633789509127,-14.761143011433747,-24.719156828253354,-34.176043643783316,-37.47312666203428,-29.85515263350105,-24.894060006364423,-29.592901478627397,-25.78832132954815,-6.937675152719337,6.582736065134093,4.314033542642576,-1.1427200548629899,3.721119728701117,18.50441064421537,26.528300561062544,14.260485020333666,-4.125303925795009,-11.579922745111563,-17.163191221863055,-23.02629341609063,-13.360129582552528,0.9983011500022023,-1.7782995095303198,-6.631917459632358,2.0652987254878945,7.206146236376302,1.659692051558653,-3.3011590927888443,-7.912956218812706,-11.89663491353263,-8.876502928719763,-2.156026227538275,5.176816595082958,9.015050481774905,1.4786876859672318,-3.280816961407188,7.501848789754431,10.184056206891716,-2.168820624872695,-0.679340824796002,9.793652278281247,1.8790806940582874,-5.635427553547205,13.991329568966835,29.9744204862865,3.2650578255823888,-39.166158949896605,-46.997752621926374,-30.085501195849453,-26.544489321603983,-30.871726944374053,-24.261693570095076,-18.03648938701668,-23.80323971865527,-28.65701788086772,-13.349844045048044,13.655392266282021,20.152617318180184,1.3484547054038938,-27.626536576887396,-57.42809380571419,-58.661466243685474,-38.52303075583164,-50.00339423222683,-64.52678564311452,-43.03593214308299,25.329146704872997,268.6211510715956,565.3243630237134,388.6309136963256,-189.47396045636827,-379.68431514672136,-114.04532629179948,-27.054381163896537,-121.92616380121133,-60.634389080513394,10.356899946327395,-32.98659017763711,-25.925106760856444,15.13340946582177,3.547130665071119,11.031259964431614,26.724870046060964,-15.034439137897817,-41.07159282852454,-7.601670628625625,8.444914778215214,-11.338959223894186,-16.203755415597897,-8.791746371855654,-14.155102854132059,-19.076968265867922,-12.123136417907153,-3.8673073409476855,1.24615154678437,8.620288663704816,21.224783460047075,29.299244873664726,18.07651434380501,2.8642016485088515,14.050796796221812,38.687482014500816,45.83882372347126,42.72217389568631,38.424769007301634,18.173775877202964,-5.556796697591501,-2.047124794259699,11.384530781284319,-3.5833487260729573,-31.105641412378272,-29.843923493814586,-7.3423121157273625,6.602931662421561,15.403976652572409,15.827078214629893,-18.771726703420203,-61.79406760909925,-52.87084563587909,-8.59377601718267,8.269097527056463,-6.118336187785742,-17.65561287019031,-16.759043798332698,-12.811107244450824,-11.000931062643387,-3.953862095856789,11.160119529882728,15.548332812407715,4.333400972066926,-1.2533375515302545,-2.0643924218334853,-10.480860856269986,-14.100403592604003,-11.961057704089905,-16.969029620160722,-16.120099471235406,-7.555960671600539,-11.220850578752374,-8.566909928730508,16.700254671293578,23.041834263157952,1.0662796216456103,1.5772668029758377,23.131204934131535,20.411849074407876,1.8062368881354836,-9.739689235273303,-25.818266937091963,-34.94418523207105,-17.09435516570587,-4.406465493619038,-15.766875504548985,-15.235829398737131,1.9305207181849386,4.149769079622683,-3.377412697398478,-5.544708337446874,-9.415078989335449,-8.56489310381662,-2.033817197546785,-12.513779756422252,-32.51497504637503,-34.78912822489809,-21.601878667496074,2.468710768201725,29.66980775634427,25.054196273188435,-12.800110232373141,-42.68229534691407,-50.95480512133895,-51.33700609968277,-64.36706458706693,-86.19909291054446,-70.42621364115575,-26.876645569701658,59.78948838610272,330.3637991114353,590.7325830232734,326.16079598484055,-251.3382777885725,-358.65545740078005,-65.7053128995003,4.039492881122467,-74.95263134354867,-18.366594503802787,-13.804996271518007,-106.00721910512286,-80.74745878975908,1.0442423984342994,-1.383333932655006,-15.980130065734862,1.3189004908069384,1.835385033773795,-6.8984494700683,-2.2958447709971566,-2.5295783917649075,-16.667747795943324,-25.736562323400243,-20.09162807848419,-14.367386224031124,-8.735737186152322,7.341114982332422,11.60487656285643,-6.001157660663546,-9.717642485580802,8.421762667382186,20.806341530728584,25.951168113240158,31.96392380117191,36.02946127558826,43.40001864940325,49.36097456928029,40.028596706994264,24.38034901457739,13.67563825170047,2.6034682271367795,-8.500709790321247,-18.70945246095127,-32.482365793205574,-41.10919239467443,-38.48220143501953,-35.13751804153941,-29.35911395415696,-10.71135532636394,7.556808202011134,7.743394512749379,-0.604481185120072,-1.6909459057425247,1.442674956453029,2.716783613934547,5.450509370519391,6.281520722867395,-4.349447714676421,-19.156132592340054,-20.060386379462667,-6.010943229774269,6.431812204297541,4.430220887797807,-7.213195309912656,-12.203782754955217,-4.798913478490974,3.951055269643851,4.652782469754769,-2.1687068081903664,-12.842163822788832,-19.48221718251434,-10.95686462309988,8.721289702372045,15.937266839047041,3.869385690086003,-1.6009852210927473,9.487761252693218,13.596446035426391,4.432006777419842,-2.967444317102683,-10.909231019928766,-21.464411364485933,-18.81834067061658,-4.364106238515754,0.3720732970940759,-6.815319829802885,-7.374409445788199,2.3678775263598366,7.579287717915836,11.276659013351544,26.81790109098043,28.88672812334077,-10.904545520215141,-53.74915768909717,-51.359573739058824,-27.479923279544717,-22.167347159312598,-24.075604845553848,-17.292562863888286,-19.926034467169,-26.19665754566382,0.24705140798959846,36.10528884336052,23.11045273599463,-24.363668528248027,-61.23061409309909,-76.91360549542696,-71.63361141342412,-68.01446292931053,-73.7004704468276,-57.29852128817595,-16.264385419501608,140.58689639873026,480.29436291596335,581.928749898724,83.87740135810635,-407.77579802686205,-283.69078829749543,-19.558829055449564,-71.25738976740803,-111.89561056101283,-7.46723573311516,-2.6454836991457995,-47.88025089797955,-15.538511773480153,2.3378856587566403,-12.197353903113344,1.0163084664894821,8.324721302369726,-4.684682669752135,0.8852383427530892,15.236767001146653,6.337791764499836,-12.130812263452727,-11.94996001815267,-8.895376623404822,-20.87981358614894,-16.492295388983813,6.546943222198436,3.3688722441511976,-12.107261497444465,-0.6347866342212365,15.048646563616796,18.427048868570505,27.706773641649264,32.50026616737027,23.36139041050043,22.243872955818784,33.07241333991513,40.78071225763578,38.42553754033834,21.823355041431384,-0.22792234573832726,-10.959216158553538,-14.907030604293428,-21.38337081214065,-21.624208363648172,-11.439711409780298,-4.62572725373138,-6.952217703376554,1.5322742157562503,25.93249294533092,23.450161936565532,-23.210750958715305,-56.29097068039661,-41.39387662544487,-17.553964319085757,-12.93911889742849,-18.65025970406281,-24.510034359891883,-17.19078549359492,2.913575557415241,10.274279104576745,-0.8155668053092757,-10.447242557787169,-10.484398419379593,-4.817286119103402,2.359875931497325,6.735022556391845,4.349082321869215,-6.823874337602565,-13.368000761998118,-1.2036163771154946,7.315191305531707,-7.898475081248424,-18.42724687208832,-6.155048604992571,2.2577638261675546,-5.635846787376838,-13.410740145660771,-13.841188574597606,-9.998796636966613,-3.4457046228364163,0.9834091952385347,-3.0950363808184207,-14.249387704784278,-22.171082277921418,-19.499103559241927,-7.06500254760388,9.990337569649816,16.78106944327438,4.207663579022551,-6.506505543307858,-0.08196448017363167,5.410937779283482,3.6372405154308196,3.280141395510811,-3.5540262359045407,-11.709702745660682,-6.508150901913464,-7.715378020699262,-27.220739600367107,-34.532821882448005,-14.74353806542591,10.871160933050831,22.447923799390807,11.515359378168567,-21.742740753442746,-53.85839883502737,-57.371502263334484,-58.883156023000495,-86.98448640018648,-86.7834276812905,-40.189794222837705,43.65187728623988,296.89453654052966,601.098255365698,419.5482427637695,-183.1180929823402,-385.65952382728824,-86.34056851433026,33.78873226152488,-89.67735135184421,-85.23400782002179,-37.91969767826953,-74.38920914209564,-55.79886686549814,-7.372247644786565,-24.058263380220687,-27.303759525291483,4.519675958727348,4.952746023649503,-6.89899358279623,-5.035671759572246,-14.370600603183203,-24.97557767717185,-13.738415372719595,1.3473979068610547,2.543982065376972,-2.033790128328633,-5.536430387341836,-8.874478894725524,-10.339659437595284,-6.725099738753522,3.4199169709642225,15.180789256378578,21.334124007099508,25.513057015236928,32.116731606464406,36.2063995473965,39.37684976039017,44.61408399496848,42.34369472812463,28.731069212141783,13.780529879938513,6.957804463558757,4.801342391496403,-12.164741983791027,-42.46041896891967,-47.1361772335396,-20.57881928774876,-4.586585210410003,-5.564977641742217,-2.391441443992676,-7.628170749729138,-28.25626818545664,-35.41405592652096,-19.518698803557303,-2.7480010965560826,3.413503333929972,1.7897523843433767,-5.14463661024735,-5.66177965087624,9.836855990844253,20.705960925775383,9.337661737662271,-0.15415001846094167,4.942629864545285,0.22999602787346873,-9.55632780777945,-0.6960606754681056,5.422196150451882,-10.98780780117722,-22.51336759468156,-12.452703622636268,1.9959309137912653,5.67785577794277,-2.432617104226548,-9.116404150255839,-3.5917023874476204,1.8203902169102388,-1.3077361915800765,-3.879004691408513,-3.980542775213846,1.2878867682344124,16.73037150857947,25.38798840918551,14.819998218840134,-5.790675089063139,-31.614846963070423,-47.055839629362055,-32.1518018818513,-14.350820212353426,-22.758544589104105,-29.21966855796513,-17.64439075855849,-13.483924122513955,-15.051794849166534,-4.72584206047927,5.215746042213489,7.330002147456929,8.43722920645482,-1.4622617834667615,-19.57359824235305,-22.701828114785883,-21.136209022260296,-28.587566860700424,-15.290110598568974,15.314595500441182,13.531841848039253,-14.889251800463825,-31.666046421974432,-36.96122260100006,-43.58294302722548,-66.21146691934426,-88.26560785247418,-64.34246376630114,-10.850640209061709,133.45984581327332,469.00853535026874,620.7137667691236,144.4809725549825,-428.99052406887125,-364.10290453174133,-41.481534408523935,-42.9510822504896,-114.30172333312225,-27.797104298379345,1.432131629541722,-28.559602618193132,4.8438783537929035,17.066103935714874,-14.538598663496996,-15.783768546443937,-7.144320936052773,-5.75735403218253,4.470504247863831,-0.8068654231282952,-13.04637513721677,-0.12052324096860234,11.420767041923632,1.5563994160267658,-3.351644401805103,2.4074882870173173,7.245637244192839,13.081799882526896,9.623157475813196,-10.005821692775898,-19.154439443916274,-2.2959897216197698,20.307522688306012,30.99723881620676,31.241973790184936,36.425487843049716,54.59859054467706,59.519668808016156,42.04068997614669,40.20382026749204,40.96200957583437,-12.024124747485068,-76.41733317082817,-72.9999010405738,-40.931799352760066,-44.0691046352245,-52.42074228417525,-39.215128810057095,-33.68563854894987,-37.77094498097876,-28.023186417613104,-12.478442477945162,-2.149292221392642,9.069973645349783,11.55126144992265,0.5091638770679694,1.2864582943686882,17.71842708464723,21.035611553837867,8.701088892143849,-0.8618456178838478,-7.839625740176746,-12.6569258900123,-5.841543026868977,4.692439160756448,-2.806438487127995,-27.89727742891646,-38.06311180049612,-15.913251507300322,5.641431876535631,-0.8545513508595945,-12.780281365984077,-12.468718239014049,-15.50194027493547,-24.59519591161308,-21.450302894974143,-0.6690685757465644,17.735902726516116,9.617972952647307,-12.174519085407553,-10.809655785781281,8.044267066078682,12.700166291983178,10.40926531759639,14.222198406572014,3.929944853734092,-20.751790609881652,-27.328633883845388,-9.410766708539027,8.076471038002719,11.28792968653013,10.076112959600263,15.501476496042514,15.622110502638078,-1.4393871198311814,-15.58002338164116,-15.87079177633333,-24.28891464035339,-39.825958219602825,-38.5988073417484,-23.40802628877671,-5.617449501247827,12.860969785636001,16.716259227698608,-7.726688027904604,-39.63351849088862,-48.214118899930725,-47.75355273244121,-58.040659269202465,-44.637671381554746,-13.154533312003437,41.19350925140171,276.6189703054833,573.3487073689178,381.89754810958823,-229.07405813437003,-430.2821951921528,-131.67464576174555,-20.88578938307203,-133.51041876970302,-82.58462087098633,6.918808755832153,-27.24033939061198,-31.03906488582918,2.7105318588095244,-5.824518017824573,3.160953007454669,21.962557771894723,1.4881934641226584,-5.3801803251403,12.923433534541916,10.880367287517888,0.3485841839142747,-9.224771692037377,-29.73558416008385,-31.6268551260224,-5.489371297506206,4.147715683373454,-11.200389788035945,-14.87033234464873,-0.6765542812773839,8.415962683504272,10.51216954778109,24.31689362432075,48.3781659568001,54.29886157417315,39.88836904157988,39.831676298923206,51.49445188638924,35.88662247696574,5.045611605683856,-2.8743701719356323,-2.9428646374664407,-17.269894913601043,-24.888958857436258,-16.268661306578892,-13.485731757301156,-24.06186628449425,-31.835107765091166,-22.735230279577387,-3.427834554948751,0.8674174147443239,-18.173100182992673,-32.25477382402164,-18.94073651020176,4.3972878027986155,15.371241257165766,16.560401325303282,10.832549690479626,-4.316962102297273,-14.748319978491917,-13.483447924774516,-14.330368964446595,-10.338381296438914,7.08916991381387,5.220281021676481,-22.928811671187447,-28.81460385449415,-4.552094400334539,11.057341949414878,12.517207664674954,8.38801790595694,-5.489409211021355,-12.281723833144156,2.988381004781927,24.7352027979717,34.90992207048631,17.741674020278264,-26.830651682023873,-56.90177389692974,-46.0450413819144,-22.84971750112933,-10.0381540157328,-4.868641567738333,-9.252190913405766,-17.84433055686074,-17.017877538608616,-7.075442552710742,1.5667275537858405,0.9458644032658228,-1.4341097319265845,5.202880840137507,3.5936103505525576,-12.160800035336885,-6.69617000451448,16.749684430765807,11.90818429479653,-11.28956093379639,-16.657334574534293,-17.827646891310774,-26.528014461961778,-25.170995679003155,-10.687796704723276,10.490741129483444,26.883795134117157,19.72506614490921,-5.064317003219773,-32.20979870720495,-54.656433639408476,-59.37570028620699,-57.78731952241333,-56.949428898079,-36.27392430126946,-11.320250997591756,100.59652868758221,417.878482722292,583.5869894207858,160.10842992887353,-370.0411157721685,-329.1896010767091,-66.04448086153926,-81.23846378368597,-114.93459000127882,-3.3864965766059285,7.582882642575889,-52.09452520736909,-22.881549578272875,9.413789251625964,1.4812253919895149,15.151806237188637,19.945698267555905,-2.268518603063752,-7.679403392374606,-1.8148361126569261,-4.273053279803114,-3.610100340703637,-1.1752867915197691,-5.7334642679927486,-12.076163025530184,-15.457946530654368,-15.04669744984809,-8.591559585515645,1.7954020954147936,6.608439528166852,5.389098645143882,16.88122898746761,44.50431964062942,58.750234430608636,50.377521645330866,46.34287935390267,51.79482451101778,52.38903099318691,54.05873804496141,46.16996605548275,0.17339847393094843,-53.99501444347919,-64.59109482493447,-51.893355214666826,-53.08705083811229,-53.58513396745238,-42.745074161145794,-35.83543544126621,-31.529538593926617,-20.23924335743324,-3.4375907893033855,11.330793267054219,9.655665403206287,-4.70665017054279,-2.7357604145438383,12.585162345121407,11.5418372498734,5.764862408968049,12.591145684250478,4.909808425983648,-16.129512888543868,-9.434155561432322,11.749885398171811,10.038354007830662,0.38872972400696604,-9.056006232100383,-32.92676150111282,-41.70006956270584,-16.249999580100592,0.1372817689754342,-9.929345507492922,-17.447981653774832,-15.198935443677044,-9.247443621724184,-0.36760755994348315,0.9894614505993662,-5.344425424814892,-11.266366461436505,-21.56408688406089,-24.30227110445004,1.6906673357925674,29.883602214992365,18.81757320059949,-12.55396683784009,-17.9717675892668,-1.5346752767599199,2.160991724913142,-6.695980163570104,-6.346860420431264,1.2386971775760527,3.9930962959179386,2.6345986520842937,2.4257751647509114,7.323986880241751,10.998969354374827,1.5632279518217658,-10.21245309994648,-10.911972925321864,-15.778000918599345,-30.27668075129656,-34.06903742733669,-21.46174426062279,-3.1470842558974406,11.228782619692966,10.507814100947318,-10.409798826323595,-38.184480973917026,-48.852891327364674,-50.188276908736206,-68.53680486794823,-69.8030795657269,-31.308968101835887,37.29950047070881,270.0276624645751,617.4010061508777,515.0071890583908,-151.70314225136127,-519.0011284457823,-232.97820392987512,-7.3312888633962245,-105.9871498200545,-104.10208403280114,-2.577887197847623,-20.019506486197756,-31.61331970034575,14.093123205110786,10.460300853062968,2.7232180435580506,21.510696674585297,9.31987261158303,-7.194418653248718,-6.46821623810952,-20.23453534525022,-25.686540878052252,-9.054227103259551,-9.669155072306614,-26.828047269069813,-29.599172284339403,-16.505571739283507,-2.7012402251112295,-2.4682729894173967,-11.293979424302355,-3.459717427535407,21.165310711206278,32.551383585931426,27.177669990985642,31.644321921594063,46.15932595553228,42.910761359123285,27.161221268866846,27.737762434861484,30.675672437496047,14.002817672418317,1.5620305322422556,-0.2165401207901927,-16.228178935572025,-30.175217523734187,-24.02832125040534,-28.042917089015667,-44.012966056853536,-39.59084665290972,-26.09328125936257,-24.248299519934463,-17.93967614327802,-3.598485473660361,4.527107489296494,10.658097903082751,15.273005931972222,10.55860520189639,8.466543258652928,11.235209396498613,-1.029295793608103,-16.564917265679473,-8.747059688731085,4.491553219489108,3.0147732051218794,3.4716414167968854,12.520283773035938,22.583881816102462,26.879132583904195,1.8763563042326226,-40.677780864844365,-43.03072298413152,-18.57153483722997,-28.263669275227933,-46.56763358723593,-31.38607683889102,-18.27598680661515,-20.444786645843585,-3.014500916519914,19.122187885661067,14.260760429892095,6.136601491941412,13.713162728407704,12.155082786485796,-3.538643457246895,-9.514473306219042,-10.07009821154003,-20.072955186215957,-23.34935834947475,-15.203364809493483,-15.022533039603356,-11.030919292414834,8.80940549970184,11.799122076888212,-7.463209605798319,-13.354721673108394,-10.162194267493742,-15.440647489507393,-13.955554990018188,-11.105036869081367,-19.08606440244727,-10.274054500063226,17.203480849960854,19.156839316670315,-17.080088446522563,-55.507043812360415,-59.424977278408065,-47.33664689379958,-60.549786702229525,-66.56337124304693,-40.65778998433527,19.19430161016689,259.1839597463968,604.2164529369919,488.16158644072755,-144.7642711418166,-453.94908576897177,-180.7928145267274,-8.555750456030637,-111.17502704341643,-89.12435236907486,8.281291306242132,-20.456670184670394,-39.37397687617066,-0.9313811803463397,-5.09724046447781,-5.782580370843299,22.053378210900565,10.270459040812145,-11.606944874733403,1.4311987513221949,8.21046328831715,2.237988985476314,6.956411157730625,-3.722683457464294,-27.736291565183627,-19.38648123266301,6.230016409855834,4.593641999414324,-6.746990267180338,4.737712675765605,25.285795220356626,32.951907029276384,40.36027336212105,65.62494169899736,77.93353534326502,40.12374598386542,-3.4613268235295926,4.907339062765981,33.09588900820825,32.89007086228551,6.964966410894582,-33.948773898130796,-64.01202080607541,-50.878426335211095,-22.1439375177876,-19.658584362986375,-31.262306714331057,-40.21127304238263,-47.334794997028176,-42.33019682433837,-23.984728378399367,-4.02207191750281,11.593052207748837,12.196392403915526,1.4452592985033057,4.874742778336355,16.77389258931143,12.61127309441287,3.834402299399157,1.869272346152158,-5.064856732730067,-6.94626182114421,6.76106202211966,12.073388371654824,0.3701371729557881,-5.502894739066795,-1.2451088807061517,-5.52749096576863,-22.985027794225704,-32.28276192596988,-18.860537751493958,-5.082153010054508,-8.340008677043198,-8.69583175880084,-1.9349569522707277,-5.4142293873080085,-8.573343136235753,-4.195914975120852,-10.843646709601435,-19.92272489397132,-9.581627080039544,6.911416855540699,12.577150007993268,9.230372377423945,-2.2000961335421243,-11.663432348674505,-4.157050267271892,8.243383388851147,5.995399457754921,-1.7298793924020668,-0.16496766943506236,2.5536930092396437,-1.8231621992716343,-4.455212739650967,-3.4218133443812215,-7.213810118042497,-9.8292751648635,-4.583671013990378,-4.529829981727394,-9.557666017621518,2.7263442523665544,27.43072358321167,37.36453543567394,33.56822820891361,16.342077935889073,-34.11846975602571,-83.19847016368705,-84.31511952803801,-83.51100889310922,-100.34019332983937,-82.33223743302864,-47.03663247447246,75.34507574147707,409.01660443917535,587.7538802884663,167.93701070913824,-358.11702536625415,-314.9977158102372,-48.13365580949404,-53.084954805903145,-93.34116412313358,-9.556217143471663,-11.764451390305894,-59.781491451371274,-17.243163726116816,16.171730069066754,-4.112255512852986,-3.6417553770249205,6.400785654536627,2.6872079045154393,9.575326189306164,15.174049318709793,-0.08107284155640215,-16.77070766296261,-20.071196970337184,-21.504994908785495,-27.51274195597236,-22.06712886547144,-1.8861398137517105,4.279936951361169,-7.8544630574798715,-2.6439461166704694,22.351639338168923,32.78654457387276,25.663098849178155,19.01276966052022,16.774475647628776,29.77240759802773,57.973210777367655,64.98284122737975,40.71944235972935,18.456244161594224,5.464693514976695,-7.701461093048105,-11.313808261084613,-15.597638067263349,-39.3442306104764,-58.53780277284238,-47.69643105150598,-25.22011746117432,-15.480365166657815,-14.111909437438374,-4.992183662663207,7.904974204500379,7.8984560436115885,2.0061251299510907,7.115125866841497,17.159853348906505,21.61614891337741,20.325649382635042,17.354028734704357,22.381363063382032,31.74162328596833,27.154303321494552,6.792020816321994,-24.00177147242288,-57.516364580657836,-63.79050248565848,-37.459063350252805,-22.936356724436408,-34.72657244694638,-37.5080303352417,-20.83670681688365,-9.501128509174766,-11.598562862518518,-10.276677054260546,-1.5631726930821728,-3.2568484920212875,-12.35060135555071,-5.5292730771286,7.92632711022318,7.058527670475115,3.81161617927979,2.75742107534788,-8.030868465506234,-12.150869280360798,0.031627699942491816,0.8506008484663532,-13.649541426180617,-15.88156422511379,-4.281335121783586,1.8660833494428548,-2.5628527034032764,-7.7450668904154645,-1.7467430328573048,10.32245235769014,9.18185981821127,-3.1510669678536463,-6.823120147313906,-3.606864303999373,-6.9253727510205,-8.671145013429546,-0.6402102782253642,-0.5555698976940189,-18.527086205957033,-33.75142407204551,-25.98364822798572,1.8275054932778323,26.757986708075883,25.81930308158181,4.00559040784106,-27.110962165185114,-61.65409739634997,-68.81063376539824,-51.948986818226935,-58.28175690397198,-59.37718067268389,-24.328726461039928,43.25576711159671,264.2198622111922,544.5236580945469,382.9282134677122,-180.5035926380372,-381.37777886877524,-117.94178964601474,-15.868655616817534,-109.12912027205222,-54.555261072079325,13.94105273932611,-40.35189637170801,-39.83178730208741,10.631447506588021,-6.976580686784374,-17.108940122549818,18.912043957275614,20.334078695140633,-1.5473343351826951,6.846733256038599,21.154419111193608,17.640904858544413,10.500829319862117,-3.5173962723055254,-29.55466610525705,-44.94472171018223,-37.48738420477303,-21.564522301115762,-9.677212486997899,-7.170773693744705,-9.663298631242036,0.46183743495965235,23.40987743273145,38.09294193896995,38.79159828283937,34.83438571883109,30.565814549447275,26.79122958628975,23.696318821373687,22.509604540308445,18.119531961670397,-0.3268875516739471,-19.285511386723186,-20.75468144663053,-26.38203457171454,-41.75332774474202,-30.730582812236058,-6.806162067883413,-15.455866065373076,-32.96282088149339,-22.838526213681842,-8.142468849136982,-2.7434708259003955,8.980357493936161,17.699271661101452,13.105651651457228,11.207586809777547,12.588820409389353,2.521763380551385,-9.652731892892234,-9.78859436621974,-8.185051056557992,-11.311384616206368,-7.522075470635405,1.3304694461081432,0.9538776873323052,-8.691993834563668,-20.44987855704266,-25.176058716357023,-11.805151027606819,6.244626210133298,6.033294316398409,-0.7009750506151082,1.437229352527929,-1.3761212160131073,-8.650602761578533,-2.1111923597178084,6.0874671506469635,-4.500077420598881,-17.935277744514707,-15.332392039100789,-10.917454236295258,-16.36556595013966,-16.36859901611312,-5.841257635022542,-1.0846452467989636,-3.655882055378063,-1.760527328262179,4.096691902328351,9.211370509529122,11.64519895748456,7.064290822167303,-2.685276879102217,-11.653019949256812,-16.19682916195899,-8.709027688347652,8.317159666949216,16.210190357599817,12.840702832899357,10.879840380918312,4.098651207211171,-10.45729405054222,-5.592219672553406,26.674314652366476,40.35516698965448,-2.0696640126842922,-64.42210944081538,-75.50817392296723,-26.35964512360286,16.691706113621038,12.484440288875748,-15.122761467340123,-45.946083389795106,-65.85754647680974,-58.127744830397795,-62.4256979238564,-90.90171678027717,-73.8881156569971,-14.76068045620864,111.95419908019558,408.49338487945545,572.1444333245131,176.11167226514212,-342.33679640707015,-307.7601206541347,-44.91871217233166,-67.5620336591722,-119.867726108614,-13.770733241028385,6.901519878769918,-38.952601353976995,-1.9175783475934827,12.307888853471752,-23.593802065314556,-4.04529102979051,26.64142240459001,9.592212087906384,-1.0543565402521917,6.83847269168464,1.07109244865452,-6.200091185710505,-2.106698351521452,-2.4739040143507793,-13.380744686398158,-18.733916745039593,-9.66759159024142,-3.934272399464011,-9.158208787735363,-4.507271113016888,9.159940846055974,11.23506155891478,11.618040598142878,22.09944402697865,25.065253563124692,18.382513850058807,24.212883816693868,43.854046746232,53.693908245789956,38.45035586512971,9.328730597083865,-10.494348379994976,-13.825564064012838,-13.4321277313948,-21.143586623816276,-25.54977041740724,-6.379217094352109,17.025879205412508,12.414409199814463,2.5070914192883524,2.673306396875283,-28.170461414063904,-72.90304454304655,-59.58699612174826,-12.786775382799888,-3.8181301628730253,-17.956086454072263,-19.672345516439982,-19.25570573348009,-19.154518499735254,-9.977145296037866,-0.8390305506304472,0.015986708868148014,-2.675667329659241,-3.0558565802460045,-2.226757207716865,-6.56004618864424,-13.501997204480027,-12.802507647571826,-5.569306955196522,-2.2807558524499036,-4.872759129398382,-3.176293741101956,5.193659377110342,3.8162468960827187,-9.615140293902954,-12.75691617943078,-6.429382113920131,-10.825652043317454,-15.503024166569254,-3.5779500849337453,10.234033860440274,11.065060208539755,4.262053603075389,-2.228162325842983,-2.8252343987798203,4.195427513403189,12.433645356516056,12.329257395527092,-0.29731922984804626,-14.233880881793297,-13.676510430929827,-5.652049169978281,-8.627332153270267,-18.707240915730257,-15.84586342887977,2.6027161073295053,11.714483407058319,-3.6612101916840185,-15.507392064678784,-0.2400217478000588,13.079295786702977,1.9599361679409864,-8.437091991060527,-11.199104148508113,-22.912740532887014,-17.15261034694894,20.294278411420223,27.95266658129286,-19.854790548341082,-59.59778919172356,-55.2605686536581,-34.58263551355,-33.97596060273372,-57.76504153156003,-59.95180256793488,-28.806168900263934,50.93508990423223,314.057515643718,611.1065023042975,394.7556019759168,-245.73077326155914,-465.07981986892287,-158.77188229760537,-16.723509524249575,-109.17283819204442,-69.90411559393905,-0.9964168178232455,-46.270906528510395,-52.1298726211521,-3.775295101036484,6.3524517673216785,8.992479808028524,15.82145185336609,6.79329096337727,7.113161950088198,14.254881285338021,11.069960491772525,2.371434082808742,-15.958492129569485,-30.206480735825522,-21.518979671984773,-11.404271567972323,-12.008199684270732,-10.286918898525258,-10.669189755247798,-13.378572797741056,-3.987410462496272,13.03744581356717,24.353000556419758,30.14580049071035,36.80204710513313,44.27269598520146,46.77118234390231,48.47733347281034,49.83578604192854,30.592221243373366,-0.6581329986616407,-5.150105365340032,4.024717528235768,-11.249768160070378,-33.094160608356376,-36.22774746249888,-34.705239407363,-34.545485121003864,-28.539949414143727,-24.616524237855536,-26.471406530668112,-21.702970137195152,-7.646509410367631,-0.23248802245515598,-3.933189699660181,-2.0510881734306565,2.4275742696654223,-9.770870786607537,-20.966919695481774,-6.35419131800123,9.280595176990632,0.5432490945877699,-11.502035386653484,-7.175831281733922,-0.21390705910499186,-1.603340460701319,0.8604970923951294,7.76343084616877,-3.9194593805934144,-28.53873317783199,-28.454306429917253,-4.959322912882033,7.703722979028701,5.982579660589401,2.22296027464475,-2.762022357645291,-0.9992669783974173,12.536058323992851,28.630193511622704,39.04597267377335,24.254564688812998,-25.60189703113781,-59.307522050876784,-33.46994524970308,1.0660400336988687,-7.634840121530271,-25.495995814136812,-22.897693304915443,-22.578344236510308,-22.61765997912264,-2.9512712449573417,13.173313466252763,4.825677427957974,-3.871701092406008,2.1027960734283724,7.367464155858186,4.977792186045413,1.0539111996861408,-4.402484804135797,-16.92228815366998,-34.7373094430933,-39.328609144843725,-13.75387217729096,23.87666618637163,35.725778449104446,13.883125467573649,-21.577474911627522,-51.456668247670954,-58.217511305381635,-53.08536201391449,-68.264834033613,-75.40451989341362,-49.00528197660545,-3.718385352456238,195.05604861205657,565.0319876443525,581.2308898557571,-16.111169074305465,-480.0668606915698,-294.5039468693717,-31.97015737253562,-79.35243536875262,-91.56748812034014,3.8134833233641814,-16.87278275856565,-54.5086080058215,-3.2417702572482296,18.407775790373798,5.737908263229215,18.306492662222514,13.413782218156229,-1.1410917268960228,13.348140956026084,14.12864442419569,-10.48421170471099,-16.514570469815236,-7.393557222005573,-2.297870440484882,3.7095332626842668,1.5352093744252153,-15.708704123640384,-30.815734126245857,-27.130497010605453,-1.9447392084160091,23.13151028493724,26.822108254573134,33.93307612102636,64.42728428957814,86.5028833530703,83.41364623572794,65.59846079642182,24.67753245969216,-24.50088121841516,-37.095364472646736,-18.076994518079424,-9.93350618182787,-22.010758544752054,-38.077605587876796,-47.25464793023509,-44.57765189625566,-33.21695401515187,-26.000491712076983,-28.061578915414138,-25.90954061698555,-15.428785531424396,-13.540573334446366,-12.697460518835403,10.279434311374128,29.646324230310174,12.775941562566095,-10.613505059021833,-11.712437863261389,-9.623123854245687,-10.68114253294724,-2.551280471554609,1.026980566666282,-11.23103741248437,-18.5415516910306,-6.8664384133346426,9.724316919780435,15.318923340237502,7.86291094340911,-6.082574585504126,-15.811620804264258,-13.88896289953249,-8.579760171179906,-16.229773754044214,-29.528338113228628,-19.63324683276963,10.481775554338153,19.61281928492537,-1.2542317110292132,-13.63448025763332,-3.214015223037582,4.576558193323118,0.9427390120494499,-2.4292941382206426,-5.403002080568984,-7.346338479737735,-2.5089674641970037,-0.937496932214759,-6.7874910653982585,-1.8030920406919169,13.646831212166196,17.651162049118284,10.089135589340028,2.774080856670655,-3.765986732583513,-6.837824032936266,-7.663059303928456,-12.067088327204658,-7.404377282522769,9.562397736677019,10.166356140470455,-13.242237981533659,-29.04795155543564,-17.27416263533319,6.08425120603637,13.372686639505098,0.24732679148163328,-18.201365522946645,-34.44145241319641,-42.02630561856341,-44.43279442592154,-52.199539976517805,-45.56882957871425,-32.51257972813923,3.8569882679258285,234.58108648061412,572.5405616995417,467.50929415170305,-114.79277561477485,-404.8064879282062,-187.55584640674294,-49.25930987329159,-122.34889157596146,-97.51337466793525,-29.387702016157533,-48.01706475450757,-42.620347564740655,-0.03903198371858174,10.401674732075634,15.82487344017566,18.980022350739777,6.028006977912904,5.929472223412393,4.031531360365246,-15.236026456049203,-14.84076348417663,0.8622464061202475,-4.871572611543213,-21.296702622965032,-23.890759340796297,-13.027860951628902,-0.998219577804655,-1.3876535095702787,-7.867721095874681,-1.7795543548409092,11.319016891559993,18.84931719102309,25.36397377331396,30.48516573859616,30.29595986184247,32.02662441877017,36.2817835240467,36.01457382249929,30.859624085287443,23.007274491743416,19.39543073386535,22.317801717622732,13.152993823390549,-13.07737349678399,-32.50471360782605,-42.63422800691655,-55.302394642261056,-50.42160572679744,-18.333351733667584,2.8038772220567623,-10.102863967169277,-28.623649787311834,-24.092058676889206,-6.950981931569251,-1.7177551386211487,-6.894077806935609,-6.110263000278,-3.3919868300444644,-7.167687558458919,-7.991437827592231,-2.930938762219002,-0.5035193824500901,-1.5886740457351092,-4.840509823196598,-7.21928105477107,-3.83661883648079,0.16267804915036255,4.4691263428632,13.131245112936828,13.417446160935754,8.493085760823273,20.218530627489496,31.433521780304627,18.99580011298555,1.0224445664989226,-20.606716288679202,-52.63615958037905,-56.52448208295576,-24.61246120663188,-9.398358762890645,-17.343189409606527,-15.705594450567713,-14.082747774362257,-21.884088177134046,-15.654863850970928,0.7215356248941269,3.6273678000060183,1.7347757423574883,4.173192059093495,-4.842278263887664,-16.844625552402736,-4.785861116576455,13.513574624387216,5.146028629877573,-10.535549083445698,-5.0341617459096195,1.735550104296042,-11.281863502554357,-23.98570843091163,-20.53124747439865,-15.19008455655595,-9.83572824712456,7.285168774424228,19.457537320716398,7.189096060634925,-18.643218461024194,-45.094286065679846,-61.84410279797925,-64.71879081140726,-68.21413029825312,-68.80375882562065,-54.89649399011472,31.05454006077457,324.85102212805265,644.3307623436316,435.1658006107473,-220.89974383641538,-481.8457539947941,-197.31282897551569,-30.68553075627804,-94.49607443736184,-52.15775853643098,10.08325701555377,-34.72940770531914,-32.854134970555094,13.458847953221333,9.573833327830384,10.15337944210157,13.263717169995772,-21.435778299140434,-21.575305843940576,19.07692781125367,14.283115207078517,-16.856293631674248,-15.344793960462296,-12.779553103293054,-28.689986735799742,-15.28934910790866,28.62617493964256,40.2266580330699,8.885524096189776,-11.360285901311897,-3.190269233241393,6.979475092162467,16.60037424252411,31.4587376359299,37.26265148906885,39.94290874843317,57.23592242263927,66.16903370283296,41.584510890596924,8.592781078264252,-7.550814347781228,-19.27035625755373,-34.81204284096822,-46.7089221940854,-54.30525986597472,-52.19100996598078,-33.40073693169219,-13.524572207024923,-8.901007771695447,-14.110946289733175,-19.0104335509473,-12.184787624876929,10.571565178860244,24.030012010947075,10.364442345796665,-6.0138601596262244,-6.974851705838918,-5.141408434529943,-8.11787933442823,-13.09661621417128,-11.972396157365722,4.743928708525081,18.3288048098422,4.667750913873807,-17.438345863177453,-21.470793831130198,-10.286404846026466,3.1655986143269157,7.3864415710355145,7.208684680133203,14.684343083392298,11.135371629593708,-11.136025378424279,-19.64777432765253,-12.62643366212366,-9.945924343622515,-4.483871405856277,-13.307598627653643,-46.452778098843744,-38.905263312695574,21.546530926962298,42.508732133970625,11.768297206885022,4.408787462725626,5.505602182858087,-25.679042126418317,-23.80773993544698,34.51480191850071,44.33809392027199,-14.388189330942884,-28.415759594531075,11.311825173826861,3.579355414083153,-38.67064822954635,-25.594570324951846,21.426641315738514,29.20433478423047,4.10782305092933,-17.06825563751489,-24.67766313031616,-16.0811793140034,1.3711440960037624,19.920543557410944,38.163191925270176,28.193796275605216,-18.691416034973784,-63.38491114644482,-106.3532743270719,-143.52942652048398,-116.52625274267201,-48.31509081493003,81.01198560725621,398.1490885178931,606.4698153224437,209.56121838619234,-382.87029193861065,-375.25448055053977,-37.15403187147643,-21.959586829616086,-128.8369190305368,-44.99435855325954,9.230893288181626,-37.52401214295424,-18.173252672690555,20.8494491006576,12.112496250302584,17.629814026910985,25.04304276102851,10.385085027060013,15.034614551753158,23.06035374094273,6.879726779481843,-3.8797807538737388,-19.0746682996115,-53.3602538010713,-34.19428669803469,43.60175848585567,38.56640938438691,-60.96374921412632,-67.1216781170352,20.650174952854798,-6.222100874620576,-90.3561802504421,-2.7478647662935956,140.0408495702689,110.6079887516718,29.36789175327392,45.64524071669862,59.4765584524448,23.19154890395625,-0.18246080305902357,-25.7989200847352,-58.51527087841861,-42.046309445586175,13.5861316750964,43.40874346407644,27.986994998726445,10.943820278788218,10.649556448904907,-32.90165992472618,-111.96182059254592,-109.58232273179934,-21.035415095859516,33.52523888018112,13.832727790750019,-22.2201366884294,-5.260731071571026,56.917822637040324,53.78951758299684,-19.66287570163099,-22.884845012960124,33.39236231278036,28.693857852866827,0.9032008427765703,-4.296461700992115,-45.01035335495407,-64.82292774339031,4.671564203895121,20.600487247734343,-83.56707330309195,-109.6933722359951,12.655412329222724,80.86739307167684,16.482891727811154,-33.431792839227896,-8.158014962711047,4.973657617728094,-44.42958947950187,-93.6801227715668,-36.74488465891184,91.6243305344419,110.49926501869696,6.8729073542279195,-50.21696236692601,-36.87417872485616,-14.682671227179775,43.28985535312867,81.86629988518047,1.9916840005356633,-116.88094589433133,-150.7366637946713,-75.82233978253076,65.2946945257407,136.07638594352105,70.05845246353512,11.306698380701722,4.050830839029167,-67.8425797633282,-125.04646530118893,-42.56836330989144,32.335555166729776,-7.520473107835027,-13.148011241015158,62.102359433729895,47.186051549039675,-99.54211508810816,-184.45013913507512,-94.06058216965317,19.205928243879697,3.7587028994924196,20.095789569471975,309.2574371083972,627.3711905393696,415.06123854382747,-215.52357837871193,-477.8546343944274,-208.3808502131185,-17.17002315507379,-83.78700341805067,-90.52800490509125,-20.09395408056136,-25.773393934177776,-68.505072662076,-74.30740134482211,-17.230245299124775,66.95845885848424,79.35262645245496,29.215233529266754,0.14019565925581734,-2.0918524388498,10.599768950845899,14.88759688527044,-26.07859147010949,-49.95304710270945,4.726942618184248,55.82371028435942,14.292494092164155,-73.0302047048708,-76.02978816465898,36.28847860263433,100.99230867622967,18.071594795730498,-47.76108589790769,18.764595397781473,67.68233871921349,13.303350180389177,-2.1686741578854623,70.27065628638042,80.10945163694556,-19.54049824645648,-86.28711109409178,-44.85352865046856,14.86617775238187,9.889004813354973,-24.39959415507259,-29.08148616969463,-27.43288781133592,-49.39174949327879,-47.557220872233685,-0.3872087970642939,28.693290837619188,10.693755129810183,-3.9116524846400447,18.868940634752505,38.679034141514364,4.632404609214561,-42.483941283176875,-32.61915987349779,-11.546136423593222,-38.22171059733312,-40.114379305427384,30.219855958742528,95.90395296263543,105.83938334261639,62.120157476272816,-5.887105784068332,-9.088275875709536,14.765031145770298,-88.6248293286545,-187.28829898418226,-71.17002013636504,38.98446807222541,-32.048431825266526,-21.564531140988798,106.14068971337363,76.29029724252376,-33.89749413769154,-15.159430745507109,15.709633214437062,-32.469087274537614,-41.97159662318365,-2.3463454374007924,-20.326185620378062,-79.65053013039066,-55.55132645788742,49.42208229566741,79.25976518227455,9.093358910789568,-27.480417007702528,-14.958467417545547,-14.266257937714073,1.3040141721658092,25.81960583551067,1.0121341741052028,-49.11039609114211,-65.08948427733017,-29.308051389902325,36.35201161761673,70.8233229549489,45.9568389513568,4.896722382111189,-19.532525719731453,-45.08141452130756,-95.44709962507024,-112.19197620503465,-23.861674614994207,48.2906359337954,65.06224835141008,304.7799580882648,597.4412156923149,269.6436634138412,-423.2838612832158,-516.9376724228398,-134.85550921627106,-27.823560589376562,-95.0556405037518,-29.405307206190322,-9.474353471763834,-33.001891006376724,44.77769805168423,70.60413878839599,-14.023055340237875,-46.93056194792195,-6.807190632121037,32.5624203363611,44.25496772155887,22.505874159482673,3.631733594324821,-0.2100490719917314,-21.121539021022436,-34.93745236994738,-24.197034942737115,-16.12279660226379,8.990515401734829,43.328823917275294,23.037650884173217,-17.991488040463235,-13.640170438090129,-17.239265042473683,-63.805020306668084,-61.67563579829214,33.03601196135641,117.58381634214487,106.59109563168825,54.20471248056152,39.955984003284264,46.40082720712979,21.516768473925403,-26.750321997279556,-51.892900051765544,-38.68280951729632,-15.812508709069915,-2.3899037612603493,6.637618994043038,-0.4588210455364994,-25.01507767175386,-29.820994062399926,-16.474778242257813,-27.269966629417823,-40.78423998782571,-9.312550160796533,29.483691259508184,19.86216228851314,-5.512030062788678,-4.842035442956451,-9.0029726554766,-27.96917459873861,-13.033154455687878,23.67889987057041,19.648036829156027,-0.9670148497487232,22.176566681534887,51.4091484838752,27.219779088707742,-6.518677491849782,9.262357836320955,23.00399927093887,-25.07553808997634,-63.74285373866292,-21.44061612429668,16.984763945761802,-30.012117139926207,-79.68662610077483,-51.22193249572198,-5.6883200616932115,-4.018051335871501,-11.317114829282492,1.9446877387942365,15.009791298508802,17.236437068831492,11.169319227178935,-10.662102901090373,-30.417179106940964,-11.986874801878017,20.43525829681604,10.002345006173764,-19.82692388178888,-14.34457093714314,0.8592062413098298,0.6360127909953857,20.410580136390955,40.85309779610623,2.5860853952330274,-59.33359449460193,-70.52289303447151,-49.99022992812969,-67.52245685064062,-100.48474685611042,-69.24031092179592,-12.277254480803542,71.06576676811729,359.48432028462787,646.9402309100526,343.9655070920214,-327.0425923232183,-469.8034719237097,-130.95476402802342,-36.3767099782675,-131.30239135335492,-43.52522344436834,36.20947360299057,-23.81857759709591,-19.23172817479035,37.69495712795752,22.35498744886605,-12.300072016033694,-35.3148640744386,-43.98059454302819,20.197582288217717,91.6778510677197,55.991073575886425,-16.142124964955627,-20.981249659418076,-4.528598374783259,-20.559084516764248,-31.712115856752074,-12.690844606516892,-1.6948430912606618,-20.541085027809046,-25.480162375849694,6.635588414741539,23.6496854116176,8.935510519160154,16.566936611021767,48.31823425246712,60.97152980798461,60.15892574717196,57.06475300757683,43.48879003452956,37.02317276565777,34.71619028654088,4.965409898979029,-30.86820022737848,-40.39506001729483,-48.909463128666246,-64.16375594489806,-50.96756426886823,-22.69088429445852,-27.159428993083477,-39.0714465928273,1.3591948288108213,49.70916393102814,18.801037499171336,-41.80331186306391,-31.849171008919157,8.481719043852952,4.025571692266613,-12.058655731916755,-7.166514830250279,-5.44692756553939,-8.248355883918286,-13.638351920393111,-25.463693574067086,-7.872647586774646,29.921167322644862,18.10157689601712,-19.235166911830575,-17.9636402811616,-20.380706380189753,-37.54993064113188,-0.5170799428743793,45.3033200244933,22.987864673989044,-8.539145291481251,-17.44640608523919,-31.13320767789872,4.263661802292484,65.60820073892008,21.59917489632594,-63.352589384659915,-29.3237631492706,42.00169273074127,17.625521282364403,-21.844131335077268,-2.4885696001349693,-1.7335215542273126,-40.22726614554989,-44.185737698923774,-8.810151379014364,18.31693711506611,11.870592382810866,-37.61502673626126,-77.34284356937277,-42.92589931285854,0.7827387140985032,-30.918306002256678,-81.16349662551106,-76.54461362520428,-63.142234273655035,-61.27826574570007,116.3862834209515,531.5869740945448,656.3831716148675,92.01262605586435,-479.2821709245783,-347.0042780567652,-15.516258528369502,-62.08495622277272,-134.6423981297087,7.035936831758079,64.12261427703838,7.855669397128715,23.278734815695177,35.91886672347964,-26.47983970272613,-66.3445254283163,-53.501800288902295,-29.873899517518304,1.68037832112093,23.95282734676246,-1.6142517113059078,-42.13552630902997,-26.696906357499945,16.311127738987523,7.287061315506037,-29.11876898003556,-38.130073972286056,-44.067294778310114,-40.581668156069775,10.309842310716627,45.02562908883409,13.005954086735468,-3.0330878326967587,31.074294556593568,35.61759134558094,12.011861569882527,36.67728337857409,74.3284282464453,42.83545227460328,-0.8218201618372554,27.94819447115134,47.03530396996577,-26.233041000080256,-81.44545123397042,-34.86762612904648,10.941070579194022,-7.503797584774091,-32.84980908428157,-39.612828344170744,-27.910580961511805,0.9630977596720491,1.0203531912655954,-21.9664548076392,-8.957479193380468,8.929739185018242,-3.552612052441876,4.826606906564573,22.969063774696725,4.055729726445484,-0.7965244196798387,22.38657363497964,6.920986539885052,-20.854369607043935,-7.946221548182844,-1.8361853912345723,-13.94456651275882,8.31882026107662,31.00508908910831,-0.35184734022275954,-30.187689773032936,-7.107265580747729,12.146183334192378,-17.137769857748236,-40.119373598715164,-10.8414261515215,25.361631826626684,23.696740476304463,13.590954686219968,20.135530786907495,13.60241330651358,-6.563084617516662,10.279748887676774,50.75176750922064,36.064153793487556,-23.48898372301781,-43.923005016001426,-34.11552482655995,-48.451771306321106,-53.45576058840964,-22.07957981246979,-3.4726589004106447,-2.981076557855417,12.180506190103515,3.693491172346004,-61.90430483609767,-110.71141361318189,-79.31264955924232,-43.00067858871603,-67.90289562366786,-63.86801780815952,0.3521409599265297,47.20024537912056,208.14635849125466,509.87642506393536,435.6495169662097,-156.07445931575356,-474.494737811929,-196.7175292418495,15.931443518499265,-63.87165128713359,-44.1830861361585,49.77031490475326,7.959189259609865,-38.0134448616723,-22.567629037843957,-31.87055510155097,-19.084787185842487,19.705038100550667,-6.455987702674438,-43.46051610536471,-3.903393909143192,43.42529548849513,26.677140701717867,-11.73453671942995,-30.019705114519304,-34.67071668816435,-20.51755998090375,4.5353503614919335,8.814316996703557,9.462870792325413,23.944894982434388,12.890822031497045,-11.657257923438866,-4.301922776998287,2.7683122370185878,2.3800621832125053,34.42085341273533,52.73401503558901,33.03840728397184,47.71074681590063,75.88509693981732,43.57747516740676,2.2146641778557896,-2.1569041156072735,-22.786370883208697,-58.07106589753528,-48.1260142910648,-9.257952137764622,-2.514188158166867,-23.162794558335914,-12.546672056419425,37.74696242553053,57.8888768041463,8.909820541417115,-48.91354458558277,-55.88824667695601,-43.78557924966091,-52.59065917961624,-45.72820582652832,-2.2980853746018504,17.067580934758876,-8.604424599386977,-14.268978238171037,12.579763422461072,5.701643024262214,-38.64263555295063,-42.220232202330145,11.761952359337963,40.95316546023643,8.013044982369909,-19.130030649552513,-1.3954801763399312,13.487282812062006,2.4935387588351086,-1.8024885685187844,7.869918907389794,12.288259350032632,10.83206401271389,0.35204525266588327,-27.57601740470561,-40.20278178142206,-9.663827560293322,10.753303587388693,-15.337029492816708,-19.16714649118252,23.817327961724835,25.654467617503435,-26.586996284837383,-39.397280140608736,-8.895273839438879,-15.291500053840466,-41.359083070795705,-14.948678885772384,26.251356553079983,15.04114497018302,-9.142928861438758,-8.591276166900478,-20.76248677497343,-55.55409388790119,-84.347876553028,-84.24080748124186,-55.97277951708699,-6.677347788184804,188.39579421401214,549.499175830548,575.4692761380015,-13.308866168970667,-485.94210154039195,-303.2686109017026,-41.57685256191816,-88.87512973509273,-73.18317512262341,44.70704988172012,-6.471954112557782,-74.3692421056012,-2.0460982393144,39.962337122118484,14.330558237967109,13.05616232843828,-12.410451989839855,-57.158700363119266,-22.69790904718895,39.54863288001266,21.7299679524537,-40.37047654193059,-65.23331981488094,-38.68227765060501,9.476383621094806,35.96796049662015,29.35651814334811,14.309688469315716,0.6513549647940735,-0.2928405366780886,24.45382210044383,39.01827599552584,17.70187113954455,0.9390340504010446,16.344660462121986,43.53573132999125,55.87401261940892,35.31109344374104,-0.6545086453459668,-6.774637169276407,11.471506688516358,5.789411059312562,-28.99542291013921,-58.32361729102885,-64.74969290375786,-50.66131258790775,-21.108669660004523,6.227236874854555,4.342805677600948,-19.11818813075007,-22.44547004257518,-5.172731161276886,-6.714206011173253,-24.035701941688863,-28.882175591960536,-17.930878855716298,15.882669208705027,57.877374601210406,50.95627018068962,3.7928108741448816,-11.218391830411559,7.015573244811979,13.036841121921288,1.0391649422203364,-17.907946821393704,-26.07010058519802,-17.731494719412268,-19.19901649572704,-12.572251424471293,29.64945994393845,37.52376884446214,-14.915737508345389,-22.710570767661757,25.933176285323036,19.91033853875509,-36.88446248061615,-43.82448889552236,-0.6448273583871282,19.804976257580403,17.119180517943537,36.93175079103804,46.744038394371685,-4.638589834827933,-53.3548130785407,-37.18676437253083,-17.831360442247437,-30.655118694263226,-31.140479919915485,-19.9209172145047,-12.79845650004833,2.9734523185376096,8.194523837297535,-11.312932377407762,-35.579745518161474,-52.9661538980784,-54.18370971965304,-50.31704031169196,-51.33755133812035,-36.03164776671238,-19.601707604199802,93.05846486926193,450.14099139382853,653.1714610744056,184.3971054249547,-413.3443871407566,-355.8014582379241,-41.89051925038284,-48.79513989755315,-99.31010593083053,-22.558772496754784,-44.01693189030443,-78.69698350437979,-10.597036296631996,6.049439434119147,-21.125797017476515,0.8523665145523811,-12.290135029933017,-50.79730902627976,-4.869455466940005,50.44874056487287,11.783185275790723,-41.678747915522514,-33.21799014993264,-6.898589268936682,4.126950812776648,1.6108807262259663,-26.353458225969167,-40.48161247103665,7.503041667501105,51.09422770668418,26.841904973602905,-0.017623180616727296,14.154019606191717,17.84122683489894,3.9888972981756297,21.960377529787895,62.20291140877457,69.64252799466723,39.824621034805354,13.647994961047363,4.462170543035452,-0.5449630680972821,-6.115265741523775,-19.541579806881337,-35.40998920825126,-32.69470492964945,-26.86844095837785,-30.012641080823148,-8.517738510510728,15.61897072205907,-16.36486561116119,-55.8954325081818,-35.88353397612313,-7.591024334699526,-18.975883240158854,-28.219176679458705,-7.966012087165177,21.036940585800917,38.573590803019435,32.63075561290529,17.718122348629862,22.98355624597592,25.771291999952943,-7.5509280286153615,-41.012580793914786,-42.63668281788902,-33.48490430209198,-6.5987011644077205,38.11044370173218,39.933284745382885,11.460639465219987,29.901432134371685,47.9274228729991,-7.462061736292338,-57.27854321550771,-40.88241915514513,-23.021063813930716,-19.26002022429621,1.4910690214891495,1.2678858649302853,-21.619034802986533,-5.442516927024332,17.003189925829606,-18.473793177224962,-49.29488160351608,-14.378073508733365,15.994575447563204,-7.461673153795314,-19.701218602082903,5.994703372497689,-1.136294207134835,-41.12642342569439,-14.378196502289653,61.5143961894494,52.45932173772516,-31.13271132577919,-64.5154973925521,-48.28624011080882,-58.31738428426323,-84.55454593592512,-66.33817277056428,-15.787561175725346,-6.63698789815524,71.22063898055774,397.8138974615505,610.5281163795182,206.52266033314936,-349.36146977193596,-328.0010962918748,-56.113643348418606,-66.8926670394709,-126.91457468535995,-49.30469873202743,-11.615528988976905,2.824242880282654,15.069516061272148,-64.15552763774996,-91.02391979949746,14.571298044238022,52.01369161557566,-6.661227312359056,-13.09215554975262,10.781771376132498,1.991680311603698,-7.712658049884487,-19.02526789270693,-33.289369181723345,-9.46294312655659,24.149640600719295,8.672036848033699,-20.70098077157966,-13.527493042154841,-3.8483388031490784,-19.177350384138478,-18.17686999177657,14.060994688218155,37.83522011663381,45.64810306788439,49.44432699963837,27.895905013468365,8.718613294752636,58.85102896728215,107.71467287185179,39.889147433664945,-50.40207782583845,-30.42757785721621,13.954504840258203,-4.229547412280636,-9.268697921939332,13.72736026591489,-12.596661281931858,-66.88652346587378,-82.06548864980803,-65.43312848829933,-40.84532089156649,-18.406341105505064,-10.642986037521139,-0.9592091877020863,20.93364403960585,25.04773406931065,15.448224006372623,15.984088541037742,-2.1282608539723427,-35.658967948143626,-29.691322495943208,-6.1291404805333904,-4.227177149559946,11.578661788756209,25.979635132049086,-5.503640378411385,-20.18022602597219,7.635600993465849,-4.082069561838427,-38.42266394454518,-11.36914692544087,33.97007315629506,23.029477022593348,-6.392255315371738,7.291769024383472,37.85693275906808,18.69322422524411,-32.28443895131302,-34.3600527841295,3.4797277989323607,4.648695596308137,-30.198681018867454,-42.16619498986578,-9.752155084906509,30.30361462296767,21.93654521521468,-23.09480759480507,-32.03970696818064,-1.5230535804592122,5.342288324071646,-20.428152372129,-34.50253486038829,-14.981564654708187,14.760865467051849,19.546815164180764,0.27917117775517664,-27.15704577179475,-58.272869692099,-64.50984462527884,-45.23115992057499,-56.23860404525258,-80.26628891711077,-64.12147708116768,11.110313077948462,262.2398685641132,600.5147792146286,481.0903240236116,-149.6726743095615,-462.3488133435335,-188.93503822480187,-6.886992121150875,-100.42418231366025,-74.40251556347731,31.08566722272771,20.915296597447735,3.744015558169112,0.40269545588745004,-49.0756558955562,-54.627429466630446,-11.733042527204383,-11.260000600481746,-30.097050478233403,-30.94647823136129,-29.394318391264562,-17.76868074676293,2.280395291890425,9.837081345605403,-1.5673235268303394,-27.90065898002841,-34.13822492156959,-2.0047331344796167,12.732141501653157,-9.051085730490374,-11.201315269169168,7.5506510529635325,13.336740124590266,28.257488982432186,53.74754836571584,51.486727692717935,41.391473639446595,54.60806081386722,56.07004600459795,25.386677406233677,-4.403612333995517,-19.11969773980063,-29.847544736005524,-36.897030269611804,-36.905471524301475,-26.607170127747292,-10.684153347386458,-12.774175157836371,-30.43574682775068,-25.462299124890208,-5.730090554223427,-13.553273097353285,-27.2238756594262,-13.461862642576705,-8.536774920987412,-21.516565861116895,-6.065646482252878,21.761300880102112,20.278130411424947,14.43633108775397,18.33710861139716,8.647781764835212,-4.39689143134585,-12.918177227141967,-29.423650114946128,-30.223112523172226,-5.905585019619293,4.285862004601945,-1.3305161498185942,3.718646008578749,5.056828174157198,-4.843583996303858,-3.6283022549142983,5.864971707056736,11.144520439112167,13.75613112857186,2.742867507212686,-15.08688250664741,-6.106261323954277,12.645201192897131,-0.5271003739287021,-18.0159266188273,-1.8676163031161872,22.38164968520404,28.131017034798226,15.847735811973543,-4.134974285482858,5.327932935808029,33.27607636521054,-9.24719191653326,-96.85818131340267,-87.3617361026391,-4.972316515282623,9.986445447210631,-20.888498203540017,-26.049235601415983,-38.896677829212365,-52.113844368380455,-40.53303442286655,-51.925010054172645,-68.47579757418791,-49.60438688803809,27.237739117052342,299.8347542549573,610.7994814811124,391.05537479769794,-241.7205737296394,-435.20905462247345,-146.58951983671932,-43.65084880388646,-116.39649285339364,-42.69986254772839,10.0298719919694,-46.12885748523408,-25.560236191634345,27.23631092748031,6.8810796370378,-13.72333827451051,-10.008074539787852,-7.286874912616783,4.802617287956613,0.71888601701162,-15.251804848944875,-6.40144594869324,-6.997397933926322,-26.655132008902584,-16.767512061083835,1.0957021342428082,-7.40512107452074,-11.453118335524922,-10.04463243508716,-20.595428549140635,-9.187224088092172,28.535966555039852,45.03060771774591,37.5470395612915,38.015606520270765,44.61701163145974,41.425732701816045,31.96442783393815,25.92316471003353,23.068310891844778,14.228856324190156,-6.850164786178895,-31.699922336413977,-37.810566942799674,-13.630646282802424,7.493896452350939,-15.885508869724495,-48.84771660358395,-27.868943145004128,14.671399485463878,9.362448116398388,-19.3357802807761,-15.740724318021828,5.330549424441797,8.333785880424415,0.7663678936946918,8.618866886650737,22.10198287786752,5.595337660328086,-21.322447691422436,-16.433354964699653,-17.17823265554058,-40.98508600387397,-17.12004774483105,32.610497756053675,10.955054190260164,-38.428176929055276,-25.58052927458657,10.359272866138403,7.8216369454384935,-19.579949847475888,-28.52124330626077,-0.18009937779267382,22.829470488924017,8.149276497956073,-1.7853050958430856,-1.0697506589493901,-21.043432716759582,-15.561607439216747,24.24864869987281,14.424495702307055,-27.309771234686416,-26.528607409885627,-23.19533503388533,-31.760627757478424,7.915435711121712,44.13379883526554,8.554422702519602,-22.881345694479784,-6.370081375112027,-4.319791939577684,-20.104150875142956,-21.364028108007496,-29.35847572801087,-35.99095278188182,0.08422300758149603,55.591148964662935,73.3477945982423,32.54488831909748,-44.41963642624519,-89.91315352937296,-68.8361926086553,-49.68582132059802,-68.22123127369541,-76.79741594415181,-64.41375806583102,70.83253402108147,430.75145917884186,602.4502121080334,150.78918081237686,-378.0507700575448,-303.1070101140426,-26.431302610803453,-59.79355223754272,-121.70768286829059,-32.131334371563824,-9.170262013468232,-26.53071164573736,13.249859412359047,12.396191020346693,-12.243535171732363,4.119057068524851,-8.172273495048803,-38.88186099629495,-10.152114912984837,30.559623545239322,18.21161046184975,-11.134234382515794,-4.8474411120973215,17.455100296006215,3.0621013498561,-20.45803474371561,-2.8509910272798433,0.39236548403673943,-33.27791866317442,-16.02738137704609,40.65419868154442,51.38316958122389,50.56364567217601,69.14822980791824,45.65076276332876,-3.1232591224707287,-5.9095961610906,10.663685420662997,-1.3860164921938405,-17.452142825060932,-13.186185240207548,-9.638160927764343,-22.213500801702803,-33.50782328617663,-26.85319774956036,-9.730794433789022,-0.6350022948196887,-13.752036163079296,-36.06295290909517,-32.44338720505416,-7.284807017285239,-0.0677932147363709,-12.185288518786443,-14.964408083863951,1.6377754053519107,18.12160435878568,-1.0841653770061832,-37.8664626648125,-18.13272520783748,44.34722938149549,52.827405848261584,4.722551049401483,-24.671319693378308,-17.01145522517018,5.153439133639738,18.540021375726063,-1.6237344344975675,-29.51178694282272,-12.549230565899474,21.46004833276527,10.691217347222365,-17.46484766187182,-7.569622358433088,10.44883974082963,-5.652257141925967,-21.801147449729672,-12.472140071713913,-11.545224970036443,-19.45230033857345,-1.3990323615383544,18.92840336792175,4.414215238296644,-10.565394375365187,5.210278795937582,13.462112479551449,-7.666751002924482,-18.73704848595348,-2.26244911513888,11.138467482795214,9.495871323452489,8.574918459946277,10.96331770330503,5.805636331727062,-11.592400354180533,-21.540822056946347,6.198397357718887,45.11019873444019,25.438224911957224,-52.38331952729259,-108.66248724188975,-99.56153139402915,-80.89291114987259,-109.4201101453205,-121.55043630385511,-66.78954274823543,18.577221483330874,244.3506259520317,591.4540820538566,514.1792953478555,-129.64057408133027,-489.5049789637316,-212.677906973061,-15.825584118307098,-121.16104166547791,-82.04032244855057,32.31538973941926,-23.669359159673263,-57.729508668062806,-2.7551844864395374,-5.664266838427487,-12.916818006655513,20.147769795672502,16.464235519454487,4.201492785885591,15.266274416087986,7.412990107466751,-2.438470828980856,-7.777032009375805,-42.04257791510384,-49.88365159782988,8.078830647053202,39.485285007871184,0.38529717046452205,-32.7772643637898,-27.67677628201642,-8.795924983325946,24.92126604003718,45.73404192084767,19.75756483901772,10.70016659018114,58.270034075734586,69.63414096774756,15.807166831230003,-1.9538538101023004,26.369881127525943,21.820293266889085,-1.7647566772851508,1.5228337741067728,8.474072759185516,-8.93719717806841,-49.283686120045665,-72.4747141121895,-25.22280042482874,31.922612405262846,-1.0388435812695214,-51.74513586373842,-16.76825915774968,29.324762626186597,9.20632888415319,-19.539506233635905,-9.454780134860167,15.547602918797502,25.42250993353685,9.822572450061342,-7.402169412373343,3.0881834047683063,25.783857467648218,35.92426111586421,27.336167484142067,-13.251143580524719,-67.22652017745386,-70.74776106364898,-22.112827780040345,7.772456512637458,1.645785183696269,-10.051572301257327,-29.75243449486168,-41.731453231481275,-15.306828575843628,4.939951482581494,-12.970212142759165,-13.154855340158212,9.516401114484797,5.872031295151793,-0.5296139880130708,9.99164438519723,-0.11659672185098557,-11.676997141250965,15.232868835662998,40.309950653325565,17.097385167560414,-31.390117182467293,-44.2458100810876,-2.422563603213659,24.547544769135698,-2.0525764704516654,-15.30479630721564,-4.80820267952566,-25.108439412636443,-31.95667295239787,10.397164171048093,21.19923708544959,-24.621658807315953,-65.41264712548951,-73.68067379142992,-54.94758975170418,-45.4463766138625,-59.7059256453443,-47.63167584067603,-22.22512673320017,65.13698072343415,374.52506004975294,600.9425222986999,217.84436287043908,-360.58450611434495,-347.8727770829052,-32.13571196028295,-16.789516889515383,-84.16342457588698,-7.646083035449003,-13.812231855302997,-71.90125251878453,-11.253171749686453,36.18700783611989,-1.4935877332952145,-8.93932051776747,4.559530890947539,-10.075025812669848,-6.592352519874307,7.9551402448482005,-9.082394954514124,-21.89981676594152,-10.116092910264591,-17.038312440287946,-37.71310369131094,-27.935881834223295,-2.753080862117095,4.468992820321535,4.759306151189808,10.848362854802167,20.1523240735083,33.23659500802805,41.9862544124896,47.723608241356644,62.291704014447994,58.05579742561909,14.152205253295755,-16.13281510791483,-1.9262678843989738,4.108486625879605,-17.66918312075458,-27.06924032557358,-23.73264146808533,-27.2582689978357,-18.747871098575303,4.987503778478706,10.494717304181174,-16.515086461599857,-52.45417060097301,-51.285086684251404,0.48312123299000387,34.85436566430042,1.982354687547062,-34.420697706391245,-18.160385582423494,6.070224677228487,3.568470007611312,-1.9386523355317387,-7.228545626254897,-17.786117036566807,-7.121580988053967,20.916472989422804,22.580345681439482,0.6365428431771081,-6.276884497913665,-0.06953866810038045,2.4566019757928235,9.30378065453402,14.330033871516775,-1.3711978645000578,-25.330957116020716,-33.339096223944985,-18.23795971606926,12.56203896757085,27.852275381964933,8.271990039015582,-8.655581643577527,-0.1257374504003188,-4.37268046889278,-24.48573740178236,-12.477460178481385,23.647032619493785,27.35328980503516,-8.555259892347975,-35.31420697468458,-15.325585749452344,26.590342693372648,29.114897188956387,-11.516236335555906,-32.83088602709124,-15.596798606199675,-9.145324708640509,-33.0190529073618,-46.721451642725796,-22.56060296888375,15.342828481945872,29.40389334740455,14.332304248039495,-14.553359352229613,-45.13557906246047,-50.91565227773529,-30.615906323691505,-36.81402029366198,-50.532213120023826,-20.60836538633237,-10.544894323677937,65.02219924308666,388.3711584415088,561.6720115388067,97.49700137292608,-430.2560664989127,-307.3434152543539,-1.4812043291642816,-53.05259006767766,-117.40947071180813,-7.627950904285335,1.3884267556706718,-50.79545645110048,-9.976937096627815,6.710162605897704,-28.924301802046937,-18.896644828972114,1.5205606243557783,-5.198868904705282,2.0534125769583476,15.838063152221874,14.886670124169413,15.822903058132061,12.748820822845422,-13.015959494229147,-40.971873083611946,-38.67246931746339,-18.02379721380698,-13.688971149151712,-11.018772608943117,21.39897739049484,49.222342249946465,36.70393618518365,18.96976439911592,19.357767199727373,20.29048225637652,30.61319231102786,54.04689393664732,56.5119995431318,34.82465568042401,18.43721079062405,7.122507365330602,-13.14949372072559,-28.53345544646551,-19.3945351768197,-8.110878574611048,-32.399987337947536,-64.04930518231707,-51.3408401257677,-20.34378706212474,-7.927320458260482,4.199028156643551,9.578010076999641,-3.669586124250296,1.352261415492067,10.60227955255067,-18.333438335057046,-32.40614128767854,-0.7611084363918312,7.94189692414591,-5.3009409372455085,14.711162412006226,33.1791686880441,21.313046703814283,15.308131356357295,4.346236621768558,-29.30812081438684,-39.355861098814955,-9.54236939101328,19.333195824890872,18.878603622605585,-3.6308507926611266,-1.788122765727528,43.3910052184288,60.086067658549226,8.119143845225606,-46.20085727925204,-61.66939368824433,-55.413499559714325,-27.450403507155908,3.251299939818722,-2.1607060471072472,-22.905905580913316,-21.36435120476611,-6.3485427263885725,12.786577377768843,29.3995002529921,16.42915122666262,-17.448296528158945,-34.43355069628412,-36.54521099913978,-29.542330337747323,-1.7821521495763761,16.020903024364667,-0.7234537627515714,-14.21506180999623,-10.135727320002484,-20.628005448987928,-51.313445247992675,-73.43610266166257,-63.25609577877165,-47.33833047750159,-58.4781428527673,-57.75645953906593,-29.325103442557463,64.74775886661753,365.74140866528177,631.2371259523624,305.4880207895355,-319.8897097946869,-383.6180012026322,-52.79632028706245,-35.71000315247064,-157.93970765145318,-55.65589551413838,20.2755239052048,-37.47311339253807,-21.288939648297834,19.758957432587202,-21.430317296731893,-45.63969510200924,-12.662153900141044,10.791578857504419,4.361096978439036,-10.44120054098207,-3.9170873156599564,22.2142209819415,26.579347466474402,6.56073810802513,-8.154443107243344,-17.09726936345006,-20.59381241792916,-9.643840355488706,0.6278760912375592,-1.0290685477813386,-1.2754995748313291,4.780533732729886,12.533464078545455,24.91388810850834,37.662416829163675,41.00262416076674,40.97837264553638,42.31971335807698,31.34450786640184,12.973719750626154,16.642245118038918,32.53385407495778,16.28095923509577,-25.42391433300895,-37.71116392508614,-5.443117214920706,19.47656282623828,-15.543784256177943,-78.34135480044326,-86.71284257495634,-44.67499760285787,-22.63030495798934,-22.01308738601659,-7.731630744868781,13.502373449935021,30.720487614025995,27.68735505642387,-10.748817421044262,-34.40532529491271,-7.069129853640144,14.191717823536397,0.8444578655624433,-3.6638442877311768,12.843929064742744,31.007754095936882,35.19369136406746,5.254350988578475,-37.70963073505025,-41.63647974359256,-16.220297978009327,-4.0199124818018515,0.13481844706083201,3.8424800735276445,-13.83245339248472,-35.76557805632558,-24.586493101707045,-2.1180271865767155,2.4965095133618096,11.642234851253678,20.068657575230898,-6.889413632532678,-34.93049661914642,-18.33087262108665,13.494454420561441,31.999714413614054,36.76535874812437,11.734710877001147,-22.3498329726471,-23.43188201470767,-21.957038110794635,-39.50264284913099,-20.717231714615718,23.706014150905336,14.67135560315511,-25.37698732351395,-36.84672325325738,-47.71184321373143,-68.22220517821025,-74.03337980325603,-83.38157559955788,-79.20207979545114,-47.68110695223251,11.022514857358061,258.2847843731658,619.3887349771278,498.55502657093245,-142.3065419901016,-429.64460501273135,-154.81158783431198,-25.134822884582746,-140.35681481873385,-86.88676595776762,24.72104299145434,-8.343140642950722,-25.45015836621333,16.690657725379268,20.36155769274236,17.807629069170616,17.418347018793902,-15.771194644872462,-32.41969271191577,-14.773876880975836,-14.261883671044737,-30.40289546488849,-32.35229920789514,-29.60140726158619,-29.508614879570324,-11.522754506390768,14.892510861381377,12.32180748921151,-4.858703517646576,7.117294619087275,32.366240500414904,34.21637734557977,27.293874113986373,29.411475124974167,19.88428926973696,-6.084497208718492,-12.345402667606376,12.990517699627048,28.085815746042016,16.025342977275603,12.142983390343742,16.65159914639822,2.4577281530922352,-2.9596294866865236,16.97366305349237,11.943712025603569,-28.942204835896916,-57.5228050497721,-61.71231523495074,-54.42773364092297,-33.057553103039396,-8.63754999268063,-0.9754768827725027,-1.8621566998743573,21.475155580437445,71.86941465945111,81.50320922222181,11.041346469914577,-52.28160120739129,-39.960407691551744,-20.86716414752359,-35.11662241795847,-19.408820319863093,20.194306548112667,9.36064991888293,-18.489466537300657,12.011061742728504,50.166692466934805,25.719753684872096,-13.45136308398082,-19.129100769007078,-18.520782574515934,-18.029445958617444,-7.9104404494841045,-11.511746374764542,-22.915059134140733,-12.890707894210362,3.1574702853177055,10.116592750512872,24.218649989976168,37.04739180277686,24.840256740857562,2.092612778635033,4.716197886310795,31.97978328548468,34.99896538763618,-11.99275938086247,-61.4855575385312,-66.78131562141945,-46.85938493679589,-23.805025991874132,14.613022631624753,42.716773687657444,9.140181250332343,-45.389772354385,-46.280369610890716,-28.25107390396972,-37.35417324137629,-53.31857490239186,-92.86414647503139,-130.91443618761048,-85.08262767198315,0.421810665318219,153.26275168629184,468.2552044151337,561.0967890997383,85.3002838041908,-358.99621917891193,-239.03196086500384,-50.76428864405881,-136.16939712479174,-133.19377921479997,7.592415327104771,24.515116786870223,-22.31790676928238,-27.83388632061379,-23.591403837924858,23.084769182198983,75.51452899029279,43.181878721367255,-22.454191017188656,-57.3133024900768,-52.11295065239502,0.4300246875159086,19.9765321942592,-36.840366848017915,-46.52980231809547,15.014828986801383,14.228961811266663,-30.03054319669039,12.880278705151795,90.08634729814752,47.70072561813314,-73.44677265529612,-87.04941151406476,16.550981049629122,66.25685747569929,34.205615631410666,42.41615238021361,79.29503998302337,43.042239378303435,-16.38225138478837,13.758811229537919,71.49319199733667,24.50949826569223,-69.23678958043627,-73.4531712386202,-29.256583594552175,-28.44565654258861,-41.21392245784752,-40.49803991415904,-30.589477131404184,16.926050225230494,61.1994268542994,35.61558011289927,-0.6296162861507311,6.994020487606955,0.37718871756726635,-35.755836414443266,-38.34095557139169,-4.449716550606176,5.505214787511335,-2.8807107399832343,37.64112433905933,81.59690476978722,16.752502048980748,-71.70042444612018,-31.353368354877073,41.1479875640879,7.661724764357853,-48.3261782875095,-38.17199136427702,-4.306875684745187,8.657214975992124,-18.0466477679971,-62.59631756322401,-58.646787646813706,-18.5396557453887,-6.102430610839088,2.987100841744529,45.58331809126897,64.19866219507381,10.337735814678163,-52.29880623636745,-49.098198269827165,-12.505368218036368,17.178345257112788,53.260231684017555,38.806467327926384,-56.58722765326604,-95.538531844575,-30.987448253958952,7.798612031770992,6.146626392417954,22.817257792565393,10.843010827942345,-39.985339797253545,-70.47952610342944,-85.66709527776537,-103.03355992659348,-91.64293741211941,-55.68007750806912,-25.686862737117977,124.38740337257254,510.67290735748185,700.0006026847774,189.9493537289598,-462.92085192803734,-423.8701825514428,-69.3460600664283,-63.448183564994835,-132.40637843121743,-1.633639183828052,44.59658223233949,-38.287316423072056,-44.29344862022187,1.3506739951577948,11.948728593825631,-7.952099143993354,-22.06545729604707,23.36148922727172,66.2018071458574,3.2514206202404736,-70.57276031480231,-39.86890368820146,20.826231110571396,34.52940182201731,22.75793708637071,-0.5237123125398613,-21.078556100764146,0.25150582230311436,51.83323149318671,53.77238027795089,-27.432700211363194,-90.96131765761356,-44.945115417184844,24.34150667422794,21.038367079112618,16.110726476480632,46.632715690661634,32.47489286576614,9.431510806848031,57.819347898830095,68.33022681890242,-33.144590021471714,-99.0963547688233,-60.60811012567923,-21.621268760077452,-7.098419994864397,20.18318366663186,31.673548720241957,9.16866266165875,-33.317129076004434,-73.21182432352323,-60.24959862258432,-9.909004176047691,6.457278998605234,24.149530963630443,80.20256535874812,69.38626567232912,-28.51991654082477,-59.28242348297307,1.8807077868838065,11.018326259230296,-42.09835861818653,-41.97242171659004,5.452478143173595,25.531568918604307,31.40011014914961,33.66613776048616,-0.45357911507019644,-33.364401812597976,-19.31064722903365,-6.393082443364539,-18.590718507997376,-3.450183056327247,36.640907553824455,36.73035060309303,-4.733526745707335,-21.686594836302476,-0.990503690769672,1.773974983476105,-12.176648821821525,5.291402137558162,21.701553720869825,6.911229577592019,15.429310511581626,22.385394347174373,-42.33286712778417,-88.46104358998588,-33.06724913603805,15.518128508132937,-17.195879777425606,-50.78781537752572,-24.195800545568424,22.622734118722224,20.326385975637066,-34.98948912131927,-82.53317489675322,-86.77999659667442,-47.90209809327238,-8.513389247612551,30.355760770290928,268.00520480747855,641.210237889293,511.8646528085027,-178.91078905870864,-486.1377994947362,-170.96473595666697,-23.073738967152124,-155.07501413867243,-94.1417813434193,12.72406481529758,-59.6947461272984,-69.69208734808014,14.865175825299254,3.538304952449785,-37.223872454976245,-13.04112326822315,13.561872776157982,18.902220579017783,16.54229733615893,2.2465333611294085,-17.01291561289505,-46.07592925034195,-61.454233580900144,-17.63476015320672,37.38274586551982,35.73194014250174,13.692241349393006,0.4162059328309553,-26.644284493941896,-28.959893394778362,17.108281914630762,29.718265838621555,-9.111538633210182,-3.2433504576977583,62.398482626386865,107.16816132694173,92.10715315178976,29.734654823975593,-26.14177531684482,-10.510309800218836,32.59204029311309,4.910405079551461,-62.235883707772636,-67.51250203333674,-4.809605796558392,51.03343587916472,34.76393845242892,-36.006641666758895,-67.38933674200806,-32.13383740690036,0.3917859901988807,8.389188406055343,14.543016553541339,0.6065514366723121,-29.22515472089201,-31.89267861538443,-2.8587369816570813,40.25763461498667,61.91988741290954,9.269173418970365,-59.360691265852935,-24.528938221505747,47.170519006375144,7.788401808757522,-75.52127292124405,-53.467071963041604,30.98992359541932,50.12148374653344,-0.7414450381454518,-38.48270356960136,-15.114634708734293,43.57770731717623,69.50550282716742,23.782395566036776,-33.688896678843854,-3.0318296319619105,75.23052797667629,51.0805056381751,-58.336924393778844,-87.44096843863858,-32.12759843468878,-16.554769147986253,-39.35349857139433,-30.42817480808465,2.064485226511156,13.85553180690136,-16.89843723131039,-53.43510392648818,-34.33820429724708,0.9120880237594315,-3.1375265093332354,11.450536551508868,31.209764589084052,-31.012745192308923,-83.19143510062052,-53.32918946222256,-73.59091876209403,-121.92753718551899,-48.55324360805549,99.16518955598374,316.90127766799725,578.8545741950554,460.75211405517865,-119.97282634544015,-439.3609516453175,-232.1597261618943,-85.74592586113592,-139.09953545891798,-45.47154911222676,58.746341528102725,-35.776842509319785,-73.29039347295134,33.49727035037374,52.48696275302542,-10.269603498212039,-23.270297099938055,-33.602342917069116,-43.833629928901885,13.64800120222058,57.161012907023206,19.1997981543999,-7.36447325158932,0.7816640162380448,-31.804098068120318,-65.03146393164614,-31.802882704698746,0.5791541782623479,-13.046494409011332,-7.276762779567901,32.18361757337306,45.46268692516722,17.78295547164028,-14.499371494295655,-9.541373299280838,40.760573083104454,79.77384734714056,62.009571951220686,21.717646590632317,1.938862871791601,6.254804531249967,21.774614455984413,18.94458781994396,-12.657290054953132,-34.587888174884405,-30.1149704791245,-23.170324136482254,-13.375672722789005,-3.8528299762589846,-29.528277723848046,-57.439563001864435,-4.095720190496529,81.00740569319453,65.93178590222618,-21.33159293407193,-56.84986519224201,-42.32705734279024,-31.288992526947485,-13.29184432967849,0.6288214270970034,-11.9100638466805,-11.843447108483888,11.130113519452443,12.201350037109503,-6.725719912478702,-21.096599891736716,-38.70430705354006,-44.5827004874721,-11.928872819896775,32.980728152653455,54.97535471642619,51.78216684759419,19.90703364659647,-25.69993041209452,-35.94681408580777,-10.112249099066464,-5.296856510651123,-31.216964893713104,-37.549121920466405,-2.9891226026825963,28.20225044550481,7.495823352412315,-26.960747783800947,-0.5842519688541947,46.6021219081715,32.39951181598741,0.8026188234427272,3.1212610787753263,-16.42622636589773,-59.579326224321264,-53.92670928172446,-17.900628302377726,-10.104801911938093,-16.96232676784515,-20.8371619920844,-26.634481029567148,-25.5209357024294,-46.921681032455545,-110.1705493019648,-120.30069621224428,-36.656916473801104,67.15966100417087,280.41167760797043,602.4804568946935,534.3900768992729,-84.10440143868126,-472.44266478207385,-234.2826380469736,-19.427753102989364,-139.84239410796422,-177.44848856159265,-50.310876030911054,10.146228780581104,38.27959914443112,66.43546268946392,15.862394355055926,-38.70134674465341,-30.70481880717291,-12.10259943053032,19.517956170247956,50.27706201173906,14.22079369420287,-30.272132544729164,-7.342348685051537,6.32659379561284,-34.05723609030568,-55.499150744804965,-50.63914003776051,-54.92925891451125,-25.4408011231983,39.953005693368894,54.62778269380162,7.6141140663134,-26.607767414437305,-18.781113143367875,11.388386502454543,43.48902628219297,53.16937183594103,29.700278317845736,15.906887134869933,67.81615181390673,124.99651506944214,48.46684524068335,-112.00402717658868,-141.4774783761248,-36.38634644865707,10.489254890190182,-18.805363361216493,-11.951378232640362,7.003292327524285,-19.602414087360877,-34.236441574565006,-4.988819922703296,0.8997286241788451,-43.931221301109446,-70.40501374885504,-18.21988863838461,71.12269115058845,93.77048976328297,28.495729268159977,-26.237416171685727,-20.476976971399033,-23.695279581918815,-59.73248976167347,-55.4876783569485,2.27611106502658,35.720121711628764,12.748089089267065,-8.256536956510677,14.552839852549576,27.05333223677536,-23.158117914013012,-64.65643429168048,-17.688273386009413,42.39075598471886,20.505778158654564,-18.19570521975162,2.2745621684323325,13.974398913544485,-26.236591190586715,-36.377268863247494,9.942665069122143,40.993296822108206,38.31740523459263,29.901548844690772,-0.45488867282260514,-66.82202416231955,-103.3903290106851,-25.21164374228644,100.59465877201224,95.61035350345098,-22.82551234545835,-72.24505751467265,-51.392905882312135,-55.61905825878601,-62.395564677350514,-85.03357402285066,-130.65079094563083,-87.8332335312296,25.300332068502627,178.85798823315426,480.26342316249895,614.6967694445957,134.84187649427457,-450.2670609647029,-401.90943602313473,-71.43023382203536,-29.85664418864917,-67.85282380950412,24.05613105707787,32.15373312033915,-81.306836259629,-111.56198765162955,-2.5856845961377584,96.30150481993087,60.02245534240019,-28.226785559225462,-41.239593041187796,-21.958616465713725,-28.71885686606715,-33.59771262898203,-37.69895689167603,-33.96968043810258,10.314814553745558,59.210560551651916,68.2375681071204,35.40408405957882,-33.03429173494199,-79.733982821146,-55.10009333580135,-13.637209397209736,4.379988133402042,23.954196626196218,31.89876892092267,27.312011943413964,59.76746298487747,102.66288715614749,85.41950885821635,34.59573319624822,4.366606735304398,-18.73629861934534,-38.62097840996801,-34.78780698100809,-35.560681117346405,-54.59641269989636,-41.64207242004444,-0.7614068393419551,5.9767814773465915,-12.094309272278677,-16.311163569034772,-25.984892019906642,-46.63357944408392,-37.21094777310084,12.568388895226692,56.19619699969982,44.58707248909821,-3.8676934560758287,-19.18356906905563,9.279680646556626,24.914821798485693,18.67626256675301,30.130640378314226,43.76032561485489,14.40182612989742,-26.857448674717403,-27.270632142819757,-14.65188950194413,-16.757907190757145,-13.95229275299219,-33.230796936084104,-79.42822823797542,-60.512459935067554,17.93075149247204,33.65463055526507,-4.766697913604096,-8.427416462759883,0.14309553208961745,-9.573879355702083,5.3821814998529,41.16323114011318,37.75805231612945,-14.034487700721778,-48.495756995976194,-10.51254720947594,45.64647629886248,23.69893679178728,-49.37515613965671,-70.01174904185223,-31.621648650968012,0.29961209451757,14.243336613312247,27.7878510755666,24.949798328138918,10.515947002627778,8.967802587559232,-16.84048173161901,-80.4766471739023,-105.2244456472875,-84.28686509244238,-75.77744005556758,-68.58538932214879,-39.42998527749218,118.01814392871307,488.45721206988947,637.5564736253068,137.62508104652937,-415.2316727799083,-326.1215236583626,-25.241744935185466,-22.787354691264756,-56.819556376627034,1.1497770071237028,-38.869143716213614,-80.77525028290547,-25.453431740094288,-1.212312521667613,-11.697555533239978,-5.791850149683668,-28.392629442621804,-34.504188803277124,22.34883466441802,42.388136232309506,-7.1081072893005395,-27.441475638639936,-1.1020324007644247,0.7626721296020502,-21.364557005701272,-18.241837071880234,-5.937289435081262,-6.78117606699913,20.087997240568566,57.48365465920075,24.938886754749948,-33.78622200957782,-18.751541536430178,21.947337405955782,15.570110771728455,13.658595864364369,47.92553559574371,64.93824428895846,49.09211964232206,32.03665366802957,23.534746894621385,21.275119297656527,23.996173905457958,13.845188619161982,-21.128060552254126,-54.08622317111653,-59.84957625854554,-59.70988400035119,-66.43427062498893,-54.2088194333369,-27.515258963130563,-14.967497728841415,-11.535204298431552,-11.032995574600038,-8.025191150641401,23.540952924226467,51.39214161068081,11.82270998379937,-50.56765613824924,-55.609759452128024,-24.880234404168345,-1.9313805392710766,17.04952664674786,27.57242866988161,22.100532567030196,11.91882402650156,-1.7495738390645066,-16.044718738689127,-17.469864321983486,-11.758516355938706,-10.40636397588612,-7.93348717883982,0.10317733527234907,5.642499729998352,-8.078257579875192,-40.3155734978929,-46.30285045934915,-2.532657102113637,32.264161107469384,18.090673830805557,10.03618312474461,37.10686888660427,39.62906500914728,3.978815225971106,-6.723304364897963,4.798458489447029,-19.870924888416834,-58.421957103334954,-53.75405476963406,-19.43854364384695,9.296938988835535,21.394152038361906,14.843809788808388,-3.1211161368941873,-40.25100537823631,-79.55979322639186,-50.02872956210889,9.29219693034355,-16.24145386560555,-59.68880424888664,-34.37772799936073,-27.471605849614175,-53.76522184483385,-61.211867921951196,-3.3242300049551545,320.0610284428444,718.8333200000252,461.985599082351,-292.97416684644566,-482.33620365706986,-123.10223394972297,-62.92264003839185,-180.86034519258453,-34.8548423422626,52.28595715797498,-82.01332056911562,-94.37042795860154,33.23234836199084,95.31301815101523,92.94279874742409,31.453344303951578,-73.98044597005088,-96.59956559974843,-40.445924124869244,-29.32684578788169,-63.94894632434076,-62.52025661686022,-10.883431271480585,25.973404216513497,7.471758936351668,-10.36753901024308,5.28719309174991,4.682001516637699,-17.14271386226086,-40.13646121164265,-58.71622812428141,-0.06492242499988521,116.84538719442413,114.61690040937621,12.599986790893368,2.6362161596685425,50.68637512443812,40.448655252777314,27.366280713379638,29.55429716906775,2.011940727041585,-10.162247575068047,-17.559779995309054,-73.62428328029131,-87.14450944681887,-16.704416498412385,7.869126433123446,-32.96666053956302,-32.20946751661444,1.8749365809531433,9.32613905133317,11.853201604509582,22.024303724987526,8.507906660891217,-19.25249171545066,-26.710480062832374,-27.10480302348834,-42.43916151738709,-36.28735859302725,14.319651034931933,49.61678644667487,33.11845564225142,15.995075624927482,22.220822122891875,9.103375215619902,-26.586643645418064,-34.55819897424089,-9.339737816883401,-0.40888519562487424,-19.343799405945475,-16.309286111424836,31.99828086338785,69.62751969669867,39.57439156416268,-20.264727797277665,-35.9087020269082,-11.650641340994605,18.690930600717646,50.2382898650915,37.24355075380081,-40.18428607848201,-75.4690406711256,-27.069239031037583,-6.05548211543843,-35.12975574568047,-35.14317794456645,-18.875623594326086,-21.216333479809443,-13.91083899213955,-4.018034211244832,-11.70551999061017,-5.964784365706044,13.217035671851095,-2.86725430440666,-51.49635267103084,-62.88666155504111,-23.208864325299587,-25.909008876791663,-78.7899383779367,-63.28763060519148,-6.81360635963685,60.021683183516686,335.8504033481857,634.3832265396089,343.51976844868386,-308.44761459825526,-417.38275372736325,-66.54754950052433,-2.474674024563612,-158.87427571517273,-136.23292782170753,-67.35814089692244,-64.65722231284755,1.6789956591052526,62.403109612308356,36.98147944930341,30.72349607898093,39.07717888994105,-4.3364068166233665,-25.197792533142174,3.103575495882731,1.0501323839738124,-23.987088594856697,-20.184002311259928,-7.901994960715896,-15.063611963517964,-30.285630798193885,-24.93269798734855,1.7679608366483215,0.6760363000897689,-12.916808448240314,32.52728344756019,66.4588027145359,5.835666733868829,-22.454156345078125,54.425635724988275,95.29516172870527,38.75206351621064,-27.521839119011684,-29.555605604470188,50.301336250886145,110.44508948033116,43.05154133062587,-34.61651971304549,-11.420930810190043,-14.493731280834794,-89.81241070668521,-98.46616542699869,-32.87118295877806,6.880249533894078,19.75539999805445,25.078106204616173,5.930851985977458,-10.835772097476154,4.036857505031557,15.658109842844716,-8.358270213751517,-33.692770451700916,-23.522384843475955,-10.673267977117627,-22.997158002050657,-18.21302513650517,12.592146837804535,13.675646431837913,-10.59368827400986,-8.46346900089268,6.935821245653662,-3.053942543475859,-30.41149610677891,-47.13189296152831,-35.367822057273216,-5.433480470028796,12.251893851480151,19.960497454148886,31.41841041376677,26.89215939879959,9.947569001352566,3.9742549883357547,-15.756191721725928,-46.64825555349152,-28.36607159904392,19.586722536590134,26.456939468047054,8.722537724146392,-5.20243450397221,-35.15980459943209,-45.866654720874116,4.615320840727959,44.677778791925576,5.800589074735459,-50.041441999502595,-45.509111182875266,-5.094284910305278,13.327506477520592,-0.5564418717788122,-25.851250720740563,-29.742438843983077,11.469441938777337,52.971325539910346,20.502235963628802,-48.85938072563833,-52.72896647515653,-28.555753239321866,-71.99024225486092,-106.44000448229461,-59.537420963612746,4.097438742287892,199.8627810299385,570.6447330571286,561.3498844079129,-84.13151388505261,-539.7390236020952,-300.13951951884775,-18.453851170205816,-75.80599388861856,-97.08301077266954,-10.961452356114648,-13.093312394687018,-17.886605664506526,20.131356009492297,9.788151037924571,-9.764560910765464,-6.143357656790958,-0.9800519685530054,40.21272345106385,69.73793754239297,8.672827809496575,-56.08358788011393,-43.26774043249689,-22.689568362334377,-38.34569637956034,-49.81170117211292,-38.299000710986405,-17.58407307974289,-10.819026883089956,-24.84559768026063,-17.56691440487533,26.671152394795477,49.009436146647396,29.604925729608087,17.433854082050985,26.381133508767782,36.53027844737275,41.98301167222867,37.02225509303656,33.73819935146709,44.76639849691262,26.685733134700815,-34.67799525065911,-61.08366365650967,-32.90062005751032,-32.58222365177069,-58.625651267580196,-29.01718698057583,22.020043057850437,12.942026769202496,-9.58168545029601,-8.605380421835752,-41.77576111608434,-61.57256727743829,8.173431348105042,48.64924574582671,-9.87590902493607,-23.890249235688533,23.768288429948477,4.260907928522895,-29.04393038609755,17.827693860953364,50.3324156328049,17.82374928963575,6.373716344949123,17.588783400395176,-6.25268045796048,-31.437300962373335,-18.551188245046085,-6.654037214136633,-18.64483391651929,-12.331215521716945,17.09029206109459,3.6475267704996135,-41.687915238588324,-20.63314992258161,42.83293083076565,29.97108745430348,-47.18062077418641,-92.37132196375978,-70.12117851481001,10.227498440008327,82.7249877790585,63.360477640234166,-6.972310213925926,-28.626567226202713,-0.8868885252802645,30.21576468561853,42.47833456239902,14.412639402142212,-43.14826364767927,-66.75144533860596,-24.526688176891142,24.70058546928308,16.80396842704849,-24.838575768687235,-61.86490147547226,-90.51930989232991,-80.35720519971905,-47.3414475363934,-64.58789393013119,-88.52685960529485,-50.58416983386186,64.55973634122034,360.8520311078414,645.5901768218007,357.1955120189547,-317.273254208768,-483.93100960614737,-149.26894176211587,-32.053175601872255,-119.78689065459724,-67.44436815207476,-0.41944850902957853,-3.568237012891146,28.865894677082803,35.68316588342175,4.97503547872013,21.745526260284002,17.709688956665932,-41.31148638905938,-53.0769064538906,-15.367581935367081,0.31700556771189436,-2.2159214760126904,4.173804347600371,20.61753683871287,32.89106246790483,21.777394738368145,-2.3444803480205936,-11.664073456139274,-8.594286404159384,-8.009604352327816,-1.8463584217663582,13.336832916263939,9.472540577008239,-17.53416255847549,-16.055445458928375,25.112816911881644,48.37950737175639,50.05875987383361,62.637812069591135,39.240912194033285,-28.596005816360027,-28.840635085335006,40.44806383996253,37.32208613464252,-32.533010762382574,-44.52791812497999,-24.428930436734646,-49.82401977581446,-63.01484203042264,-21.182282165241226,6.060781152221399,-7.874926359348902,-10.400339299349978,9.415421691460596,12.62886537207939,-0.5674211350470078,11.360065878496306,38.096861882801406,20.47775815610109,-26.246157963896962,-36.08731597611747,-19.93937861742433,-2.6690865744270145,38.75571372486359,65.99378057672081,30.44611253091441,0.019180736178249447,17.179413994506866,15.202845667697733,-18.502552698465223,-39.13278748532167,-52.0895371049843,-45.83633969911452,11.546515631695465,55.3510370546024,9.686172152508693,-57.788859432313394,-50.58073996708229,-15.027434729361985,-34.271830406718976,-64.29084126695638,-22.89774038069377,63.63501341878154,88.21411280945743,-14.94145178971824,-139.41531261756498,-84.05490003412919,97.16452833976646,124.20323060049799,-0.4130508679865157,-18.88669062910857,55.58941555838709,23.196168640482846,-65.79637262614246,-46.616877517440734,30.599073840687062,22.838705893655415,-42.05542957247788,-44.04619617257265,-16.070661878883485,-56.37137669639391,-97.5212078688812,-70.04912404692774,-62.559979915249045,-94.25349044706142,-57.68083170895234,133.71163692001699,466.7650519766157,607.0431825603699,178.22029487442973,-413.0199841300149,-440.6801439689485,-99.04124310416495,-4.5193776778741395,-88.0186758034481,-55.93531175570779,5.041448134134292,7.328088066503771,12.675463464981409,22.393151056856937,32.446401943946604,41.666914262364884,-0.9182648822167403,-58.27006463149804,-31.63834428761295,30.381219629653664,16.561280999533484,-27.00966910352779,-9.985269508575247,16.547011094548044,-8.688845011565908,-27.37641991879258,6.725094034291905,34.489086469166324,-4.401015351026807,-57.71431881997331,-28.834411357468976,54.73698304048875,98.87404878539611,104.45117762106774,73.53889956802743,-18.652548015545882,-65.41345807032013,3.039861306150131,33.62647759880798,-43.16145456364581,-72.67322414370696,-7.265809071041421,24.98186563298799,-4.447768678616692,-1.1351796714661182,34.39848698998528,6.440437615825537,-64.1249849314019,-67.09831165270688,-22.962118065984765,-16.56556026856838,-28.92965598456429,-21.051823363538045,14.870470276897896,68.9591647512359,52.335906175058255,-39.26048858937317,-37.36810723247156,37.6696605025421,-11.0249977923017,-93.51091062233124,-24.918704381371324,57.88647587772634,23.976771016832874,-9.67144954554239,-10.897541552155486,-40.275318465432,-24.44189318626634,48.038262336862545,43.957443277349036,-13.0360088837705,2.5873883521638517,20.671871989413386,-45.115164321034506,-73.46119030732869,-6.317376131100874,25.530960864317667,-9.716210235612744,-19.898102507718434,-6.193846725506049,-5.880604139202271,3.2947029588411487,14.686604103856201,11.084348460780213,14.75025439889589,13.665232691738701,-5.572348538549061,-9.480304604653133,-10.534665560817821,-27.64254370196179,-18.189670414998275,-1.6255959406298217,-20.05365299130058,-15.463855477755903,19.058322330204227,10.988434858951958,-35.62614207150755,-94.47543872802923,-118.42764751237206,-40.309242076421924,24.831776671967326,-20.890062263922957,-42.16119137340248,-26.414098722597124,59.00172503658729,454.9772107368012,751.6825144592706,232.15476757920072,-519.919272495815,-506.8398101940912,-135.39043079753543,-91.74221228925875,-86.84593222392371,72.57003621579453,80.65098179492178,-47.60084845974868,-76.5839418342036,-14.589767139235427,22.565663085684363,6.1729635044343745,-0.6108835932272854,20.536199581060508,-2.769623468392222,-31.061893825108974,16.598426932798265,26.816265375022176,-74.16815106101481,-111.87260709067806,5.221642810996195,82.23961749172202,-10.412700662335446,-81.09091034551545,16.56505735164166,78.75879693381114,-26.284132967290027,-71.04054317696482,54.011228946714525,124.40260536092144,38.5380163009208,-33.9644514833161,5.351526718970742,69.63325607948211,72.6809663615778,29.954570403760233,7.462446683012114,23.127383482890025,10.885502391823394,-55.98591949937371,-82.94116233225182,-29.508330262573303,1.559640435532474,-27.536884324988762,-39.896853185394846,-20.60772210772717,-8.443362955187618,-6.08378424280038,-3.9543451608979283,9.436123585063381,18.078791493413057,-15.49409191116361,-41.25324979346035,-1.940165834804593,28.18531679005576,7.545527622541718,6.625706762301895,20.875517692032016,2.558157178102025,2.7074078978304215,53.01199203562895,78.89438722780174,27.811784055748785,-49.982248973079905,-66.74422193036662,-10.565486930512527,33.84966042440413,13.655650692039513,-14.219138866249647,6.215246419462669,20.51751314173635,-33.66669968674917,-75.11323815614365,-26.99411509600892,-6.40180019228076,-68.51838766159223,-45.63175210138786,70.19039186806293,82.46250021619541,15.119103549000794,1.4231734816133628,-10.771823244469273,-30.242517193050723,7.822286763681995,9.167962767257405,-51.35742352744957,-28.919526215886425,38.04947421539505,13.204314194276943,-37.80789067535555,-39.8439959343223,-27.35620435968389,-2.6450747014853295,-0.6217382427208733,-52.2748153526979,-53.188954018171046,10.525670890507865,5.417725879458832,-47.11950279541713,-41.733575175979354,-27.505055602372245,-66.86021025260769,-49.88457582310423,204.04740885114705,554.9784126116773,471.25572976144696,-102.25577103459032,-426.2501855585299,-217.73753625884632,-43.52214141380749,-97.95796314755002,-63.489636460299096,26.97580460823041,1.2485517552617367,-32.680183972028814,-15.84240280273914,-7.085337328131045,10.643136620253177,38.10552008859679,37.92936390314691,4.3865360939147635,-44.81279956265758,-43.89511512280462,20.104609179961322,39.0854317016484,-1.8942492903438488,-14.425799263075335,-23.414602986882436,-55.025734607378595,-28.15602718871832,31.863990113583593,17.648012664224538,-27.580359346943556,-5.6618510940793545,56.112383217409274,72.22777602799601,23.46813593940948,-5.536636371672792,48.27811845591394,89.32076018844201,54.968105567869365,51.13078083825771,72.88890865001821,2.6229193290839925,-69.68546173040362,-34.154750604665395,-18.661419200489107,-74.58369591764995,-76.13614263108651,-34.931815552336246,-41.917139327382145,-57.83099137221616,-33.27915052514769,10.802624979491695,39.84786576418726,10.281102360126207,-49.5083611193724,-36.35449582112401,29.59848989757079,30.684991657390352,-22.225906118671993,-39.968872175806915,-18.55222873541865,8.28058857500982,29.54486105384224,34.14716623517731,27.48027507827446,25.428925629588676,20.216780941787512,6.492623277734355,-3.2575687003842138,-9.377471982770683,-25.549163719126682,-46.81685385202698,-47.646075773036664,-30.789576657501712,-26.05672118431203,-20.825329441089536,5.264008867537922,22.144981817008663,23.301003138686767,19.549686432874932,-7.935880299673472,-12.764933483651248,31.139546247485026,1.9686125184533552,-89.89960477560727,-50.346889725496574,70.63323129946546,66.39300081417117,-3.061969170644156,-2.064440564344512,17.11441974749178,7.168562600484227,-11.817860296055933,-51.34810048084656,-89.56507881543787,-76.30644204691676,-18.295178343266986,41.02593449902982,53.01782674690319,13.784341383569423,-16.045290910118112,-28.548060896527364,-73.65935195544556,-116.44048341096996,-81.48693910453224,-13.843667236013927,5.201837182403125,101.63162649794347,417.3988238334453,601.3831890261579,213.3182924398122,-342.9960268043385,-393.84340127088876,-153.54112688577993,-102.41377061080775,-102.60255434673411,-19.50522111549764,-27.35236426068097,-63.21094554563011,-1.7265989323973283,23.61796004321006,-14.543027526649873,-0.8497354698533162,21.73664666532985,1.3085182366707926,-3.1628733160805407,-2.3941807722649884,-27.546544731448186,-15.369343909087963,39.952056708903214,43.563931615053406,-11.27928734789062,-38.081130939034466,-30.94394895552442,-38.86841805332648,-37.98670654253664,-3.9497668866607487,21.278449890278395,34.84499402149898,55.33323166568345,36.48833809493455,-8.344804153776714,10.411133245496202,56.40031602758641,39.046840842281426,7.709414149086804,19.173842522239056,30.916801528987826,21.58819347527048,0.3751417905357073,-24.340551527974704,-18.675608652589816,-0.26127349758935914,-26.20080185167086,-65.21998726114441,-62.53938779903491,-31.034275635305104,7.127831395368668,24.782458298742643,2.4151603671445034,-15.958662906267762,-4.684033059241287,5.881393672806871,16.13954631803425,22.83057377464459,-0.9495372945214235,-15.209855443122738,12.751016797853275,21.095784570749586,-7.236004115072939,-7.215432710872406,16.623162111164334,3.7849776147773717,-33.64723603902004,-41.57753290701667,-20.00407095983535,-3.9591031208190373,0.43809431149178835,6.196324195525772,11.954107865620085,9.118641420824611,-11.016319594330854,-35.29317732745496,-16.87281800972081,33.415985962186646,38.73189777216542,13.378533156240644,23.39058582017666,28.67422582290985,0.39936576205140284,-9.389855134045696,-29.790842003422945,-89.06778286153809,-84.28672851158366,-3.706010188706818,23.832378962365123,-7.617404373656051,-8.184345837731298,10.228254353858159,-6.3787906500249285,-37.856636020587594,-28.13166027998217,13.536550701097795,13.311956945231167,-29.851571167929325,-49.63224316398338,-56.28295995615457,-74.71828665374807,-62.0804608499874,-22.620083002170816,-21.413634323262045,-40.262604796505954,88.34941779297543,426.8304798377149,560.1876238767913,106.76538933156331,-403.4544825787625,-303.9808445084503,3.956313913411986,-34.713902371403165,-117.9486037495911,-21.021703557059084,-20.97876991976902,-75.0241084319612,22.142631083478616,89.10375075570498,16.788715386585153,-19.189628027258237,2.81280329818445,-5.334001813447111,-10.334835586225301,-3.222240404378793,-19.241744644370712,-24.5438116553914,-7.8764195237082,-5.155074372907096,2.0905604103302897,28.192953413982956,22.12297691668462,-15.161083167588393,-21.70603262297465,-21.241440591495333,-52.17132888334933,-27.57666640145174,64.57736280152342,69.99230705184637,-4.0209382877025295,7.1042419430458175,70.69131310396179,79.3440657263919,76.7217604762298,63.085568908709405,-1.5238704136015508,-33.78843668654268,-11.674792458652929,-12.338787682423806,-13.11089996635138,6.99576732931506,-5.477465734101017,-34.37434361182509,-51.39809159752034,-66.04893178908968,-46.65169991664829,-10.831005896432844,-15.22173014511607,-18.287613865893185,0.30696222676894713,-7.528346180300204,-13.962129841030055,-1.6160708333513103,-14.532342653646143,-14.776918377732528,24.845047174968308,31.49521257108876,7.946827882391041,10.63710515357307,1.1297061573514267,-33.961224907589866,-22.38116619437556,23.66176043050558,18.28392474439284,-25.270748692087864,-36.647862443362364,-24.78407516998995,-14.72394747715093,17.903089934378833,49.21704638921574,28.076855911624534,-5.488595436978896,-9.893351364520859,-24.604865684210463,-47.27364012917401,-23.77233874263021,28.819952717821103,46.6910560974716,18.275810943667846,-5.736476514865736,5.162159592573046,0.02972743270523459,-34.120767566580355,-8.538455629442879,60.38285358272088,44.94453300995834,-31.854059674393966,-69.82243603736168,-83.35936499552705,-66.81433351763008,13.289808901842985,64.99451377654502,31.885175596595598,3.3113157222074454,2.6827689637022036,-34.58445804500528,-89.8521737080583,-101.63935500772162,-76.36666523152243,-47.30244012032575,-29.522817796684876,-24.245180053414522,68.32535114964244,361.497912407724,566.1979703343657,229.95080831233906,-326.2897057752591,-368.1421499054127,-55.5957269282638,-2.753416368525146,-89.24549005622183,-16.512158261560582,17.00972458375586,-47.888864047002805,-7.758538781229815,61.79637398466127,23.38107645344873,-20.59901741729941,-19.61328673109146,-34.475749082152085,-44.451800300239995,-26.463200956328805,-15.18823855376013,-8.165763712441416,2.1672491027540115,-9.45827374208356,-26.238864170324703,-13.455235508044801,7.862934926807027,11.797156665353054,2.6380249662420145,-16.330199733233748,-23.05006216689607,0.5142708263476621,14.35296751091974,5.521072272754404,29.38649911240572,77.05394104312326,76.16810292892553,36.91930901479404,19.943694447652245,22.2524542394047,17.87538054436098,8.238572216478355,-13.320469670115166,-36.319947656892936,-16.835173714052587,11.194699997133279,-38.10883800681406,-98.02528414589655,-40.28265758732455,52.62207875529473,42.299620045412,-5.187525814237398,-7.1442977025686005,-15.288953348869844,-33.97215672551747,-12.32772357065084,11.30487521221543,-8.101741182757562,-22.391434357701193,13.240011848568276,47.63638323971726,7.333697799908798,-60.44901650752952,-48.04282713118862,10.478049116806815,16.51250422137025,-0.11931858094599601,5.785942189129694,0.34688487415155134,-1.0099151405343187,26.396201767270668,23.911655211028588,-12.978413305929488,-15.698417545587464,-3.7983888436487963,-31.462067274644674,-53.88300747774017,-23.52570747337938,11.453236241725865,15.482200770604074,29.15301389496021,57.054542962307586,55.42261569391942,42.10414742890669,36.71633652180316,-7.9136057362295595,-70.30381042449719,-75.97051213891002,-58.34056131990263,-57.0520790476554,-28.141193030019654,2.950104665272402,-20.968451011090828,-40.169651665478085,-9.545958467271952,9.671710084382102,0.11552067012232037,3.0454782485963543,-2.8317433543323602,-47.70395555020957,-81.84519511497619,-73.42800341928921,-56.219522817401305,-36.53770203737897,-19.69087781369523,25.674735148875627,261.45139820503516,560.3252137056584,378.17689778020747,-224.32694459153373,-426.1764989383197,-109.34237043069379,33.57528171851465,-95.77075634121557,-95.53811969745863,-3.841638389763041,0.548079151693436,-0.6791207701732151,20.552046363314947,-2.6736520411761333,-51.27469430375734,-60.53655481662618,6.276653448807343,75.22532714780918,38.50808914363933,-26.227428374758073,-10.590102620367759,-3.6254399469814977,-53.28664701583572,-38.202178101320854,40.19628672018609,26.96991165840089,-66.64135700734799,-62.65185415353941,45.173775547061915,77.17368605680429,7.942583863910105,-16.20211753431831,29.99387709835519,54.436438807963235,32.42186689725501,-6.2371826637912395,-19.791768923958966,29.219227212482984,88.74894832608503,73.85737429451942,17.27351215981985,-5.648130385857892,-12.505479371231072,-29.604339162599928,-24.806654455318892,-13.935456931761479,-39.184760048716775,-41.964777504217196,17.95389537609179,41.97909599643492,-9.70215401389775,-40.25838623339702,-24.795274763310864,-22.89480368920819,-32.36068330695693,-27.293685786147563,-18.51912274398876,-10.585002538811544,2.342143941801406,18.335662586244105,27.046063277548132,12.48215753452092,-6.52459225664361,6.643527679207045,11.898356468281655,-40.52307181544303,-64.4864121536122,9.920101579616226,49.02197027252404,-31.849273436360576,-71.63496690074417,8.111748721166977,57.49859146247268,27.263588157164225,3.984578712724961,-16.999348315920955,-35.137620053542264,15.414775206815555,73.14751848336063,28.221987590795248,-61.125261184564735,-74.48299050166418,-3.5680861609059527,59.02849806608809,27.598981345042617,-48.08997682176934,-48.186100538490074,3.0952782927003444,6.124933455667535,-15.884807575466558,-10.564165678207775,-4.496794353252522,-10.971342380832699,-19.122595450108022,-31.65065768977009,-23.384104186842038,14.582291305200576,26.807887382816055,-13.59410737452064,-57.979613992967224,-63.20973139031496,-54.332016611745225,-59.716195460685675,-42.76162551834877,-11.862666974999883,24.155579042638095,239.34791847410105,550.9752651624394,388.69312680161227,-224.65660980364578,-435.73826458883565,-121.03012355171137,6.316280613987306,-101.32134531594524,-45.38624690357705,30.676408548611242,-30.76787656691051,-32.386647580261496,23.163527204120197,5.783250984351742,-20.113023218448447,-12.984541817716961,-3.6886054611106243,26.361294995042485,45.026213967451795,8.41136384644022,-23.378290289318972,-6.842152492104324,14.369525037406643,13.626404147665008,7.483066780684082,-6.09465513124184,-43.69585924146752,-71.8025382947736,-33.06044472388159,34.55555951108884,38.88034371802519,1.106941108288618,-4.687545961684972,-2.5818780164322694,-6.455173701851354,44.191380730675306,101.4194744143934,62.90054117006388,6.746560745826256,24.198186907913062,8.173665109242672,-83.74480889643755,-100.74212587265332,-9.490531750177794,50.33481429651985,24.95949849242873,-21.424447364588715,-28.15319597123619,0.8573261646448014,-5.06384283764929,-47.669883822083015,-37.64234137235637,-8.653208315937153,-39.42264022201556,-26.72055020486122,68.95986755218716,71.67626307516315,-28.243417885790954,-38.548344730507836,31.051104653788485,20.047456042790017,-58.58940544842666,-73.94260437803084,1.3489859860674445,69.2591356071756,54.397774209335,7.665128626392627,-5.933580159926038,-14.856416176356653,-35.05797380260107,-31.054242804201234,-19.686081051356197,-30.59619643026894,-24.719909720015572,14.310458021485308,29.891437126351377,6.453650412383239,0.024585374135505766,24.685402916097615,32.08276116621984,7.9203552005702775,-15.59837828795698,-19.786057787237645,-1.9111314994208222,27.558368470143943,26.95553960617066,-22.85786749525409,-65.38859344565545,-46.8723168577114,-4.650007647933659,1.0961059185995925,-13.228536267406586,-6.349795899211879,14.49363115426489,31.655408350693605,20.703550991738183,-48.42029301720952,-109.50570313064044,-86.48669514473582,-65.36685742974653,-96.57532717328756,-83.75566911044221,-12.652722615307724,161.5434897625659,502.2687139902905,589.1232659469078,49.69746903922895,-480.2739883021972,-346.1002268185736,-26.28203393940429,-35.71634811187049,-84.98073630345422,-3.074200290373355,-5.358768678812169,-59.559569267307985,-29.5073505069517,8.792702785263605,13.592033218282449,25.427114391910134,9.073767968268076,-37.103193553721205,-34.225111716364765,17.696493561718825,37.404594299191984,2.9273210874116558,-29.445668240383196,-16.822418103683138,16.309719514074022,16.91396374958886,-19.498209472331855,-42.789780297195385,-27.383952668702253,-7.369731653891422,-7.396029602165875,-1.0630855983486125,25.972064618394917,48.590643198688376,63.46196704537656,82.0446073629318,73.56492436795861,23.429529131818384,-8.357731272950385,11.84709746438474,27.66716771268095,5.770368813468508,-12.07957782516627,-14.824471386106435,-37.273494178895696,-61.54698537758418,-44.90743231886765,-12.122748286998977,-9.286501121061388,-27.201763843925185,-29.328924744672797,-6.312627057850163,11.843604823909786,-1.5138397342886005,-19.331539105546938,-4.773749025461818,23.654104368105838,36.350255682379355,36.34065677485182,24.75898742763153,10.61494621320332,24.96093410779993,43.16706380034998,4.982802438219183,-44.46711200492418,-22.85127827374138,10.544034804730554,-27.609437022337314,-70.9974084283924,-49.35336994647107,-13.660267996756348,-2.295927913518522,5.578612532174098,-3.59498561873227,-38.52630959046411,-43.86263202382459,-3.872997258782423,16.230268707210353,2.2370780774235683,7.003563324706471,21.604239045278277,9.128231494573384,2.644570026039541,15.347762784035364,3.183549764659272,-19.877397824666758,-15.980079083905247,-10.652215851886929,-17.97700137725873,-20.160504716398535,-24.78314734821825,-27.237210740741315,-12.498807064503556,0.3133961571208026,11.565526181457582,32.328949546279134,7.366076251133231,-84.51732410462552,-122.55420364543365,-36.6330684990066,25.56233960459834,-35.69708339038728,-84.50726622089589,-48.99693652705301,49.73043710934252,329.94665088069416,612.4799964204407,352.19165590167984,-272.95624567313644,-444.04831946669316,-170.25484673973003,-68.89841654448401,-105.5400793318939,-5.7363073011275425,59.93694758885515,3.6882413809788943,-10.403620843916599,19.36561104639784,5.579765739515366,-43.3153158664619,-62.56362452637457,-1.67495891694446,40.814909423519296,-29.003619709993455,-53.58210054540195,38.71410399202627,56.27176236685526,-4.6413586891484115,14.937886300564319,48.682214487569624,3.7864670321059624,-42.683113438818495,-35.70786665259588,14.297101806198224,17.470162243178258,-105.94653654506536,-136.19236989027968,97.18905835027664,252.8437418297068,110.03608484247462,-14.874318684364987,20.58044893912282,19.19758807336496,-16.161895250470902,2.8254699363248115,-4.328821355459738,-50.84923189152665,-65.98722450167772,-67.19915719740361,-67.05255718832488,-32.67966787509664,11.158888418917941,17.939786926887884,-0.16779586729756346,-10.510868453540253,-17.16475667925215,-24.887435981653788,-8.428240831714916,17.180400910931183,8.496585259639902,-3.2565698730941195,16.78546044138244,22.812516291356868,4.653608083055235,2.436617988668255,-1.1467728254807392,-17.275361332368316,-9.841656550455369,-1.7031935005914747,-21.550584209176577,-3.469099006204676,62.85320610474264,59.81081714506671,-25.089624217708042,-54.874860183825355,-19.46329532252264,-29.96207847949591,-48.78859622997366,13.195760721514304,65.9806314916463,22.21256581033333,-31.631045849214495,-25.806936282751174,-4.123918195579124,-5.097304396650825,-29.044469974204098,-57.83399055469096,-48.811978285734384,17.766695732764102,91.085855528377,95.20730133609965,32.689865211947094,-14.977740517994494,-24.238059674875153,-39.02521233695496,-44.78902922373665,-11.500950872274364,12.388914828929476,-17.15996167845711,-68.90937565656658,-79.78849802259421,-23.479185259196896,42.26840423671896,38.46826495482579,-28.377277393647578,-77.39268174971282,-62.86779151451852,-26.638553860621457,79.24861679830157,379.12928814449884,557.4670343924438,129.2902595910578,-450.86140555480387,-370.8809974230051,12.068859090656106,-10.969279060059428,-148.1246125146422,-57.19049909615673,-27.0627586096343,-71.50538423424251,26.693909872395377,89.9950898678473,13.899885731454226,-11.336605198771563,5.465367956838251,-26.622503003749333,-17.198626289709367,31.363211373680258,16.878045692832988,-17.86736818659432,-11.02335734139447,0.1270960490871449,-10.130072967910396,-40.730314301993985,-61.17239343129607,-13.130560307113871,56.961373768383766,49.98402097008217,8.254381010265888,10.644555773201787,19.389140377109296,9.142005054879961,22.77561468817059,44.531043802751896,31.45708478265403,18.88568842185961,29.122457099901567,8.71966528079256,-27.949159586848303,-5.209384466100927,30.78483251980077,5.372676553490653,-18.938061942259257,-8.339941259817461,-23.342862078037957,-37.135066179793455,-8.932606676372153,-3.2278178902632284,-23.55208176657139,-4.942387734474204,21.997746456027592,9.442657601153389,-20.023312396937555,-45.766693181106575,-40.508905801968794,15.972387955733087,58.19905376493149,31.537537621366504,-10.169965303319636,-17.5612044537028,-13.804424121716714,-10.121434795629701,13.00774641681998,30.59278236979807,-1.834976966880749,-36.31781635507836,3.9896742120270936,65.16622956182877,58.53879036912045,14.285647698533545,-23.443922727624667,-58.72092626308431,-65.1082983245131,-46.442737922179944,-51.8975047110121,-48.05577885440671,5.362292443950886,38.850245338327845,16.406965486375828,-2.519979023721774,0.2567314755664789,0.83800839017246,2.3803790978990906,0.7787054022922018,-6.430831948449495,6.1048227819225716,26.014176604901028,11.898418705769128,-16.54009405242831,-19.589629408192245,-16.09997680814537,-23.04700140849308,-18.71614054422532,-9.059747063049683,-9.847413478353676,-3.762138952237261,-8.276481738138038,-49.96812881476518,-75.19473412352434,-61.06514477365931,-59.08126762502897,-58.298987003531565,-42.4256681666819,21.240082036431275,288.9842151079407,587.3179320523677,356.2460978383011,-251.9104222326131,-399.3128429551234,-90.1325968410255,-14.309001072311496,-134.9139080282127,-68.6560443998227,22.0184742563928,-15.039632312151408,-6.99445135647269,36.59095116572794,12.259632901415472,1.0658330052090568,23.88058270666536,1.97056037135685,-29.8616201599352,-16.85916582127412,-3.039562200814075,-21.10171083793057,-39.89972391142537,-28.36168791820524,5.584624969547896,21.267695496450237,2.5017219208949695,-9.425005400851619,3.877012174631154,2.8206979344275136,-14.746303696614095,-11.207991505180841,4.314601676453753,21.912325238853857,70.61616828114153,122.8236183993819,109.46149233054089,45.49260967217118,0.6596072732718703,-9.209225758459256,-12.619751849161513,-20.627872235753625,-25.96680647396066,-32.9184496205182,-46.086408933683195,-50.77214458580241,-42.35404198168294,-32.673114744723776,-17.379470200126406,3.3525476919807744,6.080359982946863,-11.84671424064504,-24.23397997893914,-15.154098815726718,5.914135522195423,13.243859092288172,-1.8594175960306139,-11.219050847821197,3.589452821496134,17.861320523976566,11.599504991033669,4.5720378506175745,9.259237375520106,4.484152471338196,-5.857233310471926,4.250834900630081,5.174986610616391,-28.43210798306347,-36.75748703762617,1.4129854476316481,17.038842139570132,0.763501626587058,0.9694246056269509,7.8005185818162275,0.11575379646181982,-5.532870713269435,-4.086410350335424,