ECG,-4.863781275432033,11.653941510187273,29.93061630247773,34.62879577684191,23.19523454691442,6.195830710242778,-15.011728836445101,-29.69941697516516,-22.305249292059337,-8.875895395764733,-16.211338106474145,-45.46391317673633,-70.2756834816112,-53.66002882172786,4.749406860077194,99.18630863645197,258.3281349317955,345.78375736448146,92.3752306958744,-343.99029564350866,-439.5580776877203,-172.29701214356635,4.016200624558097,-3.4620395997285556,16.307293981937818,54.57295699803502,41.35353629760385,36.65297990727482,43.0305668103448,21.066476069352387,1.0152546704264553,0.7878931059192453,2.093912630832785,-0.48633466757099697,-9.880994471041204,-18.179700088075585,-11.205366705876806,-2.009801660419128,-2.9582925473021775,-5.5302141768292605,-9.061289423739403,-14.246332454765392,-11.766508555035621,-2.536275981251764,4.165608019283598,4.021640181472441,-1.6948425327143468,-3.5102321632008238,5.4202383221947095,18.18076042243741,27.56714780550932,31.90196868520367,31.007313664388143,31.78972300101413,40.85380206539661,52.71869345644495,55.723702630701474,40.55736916177856,12.530495588785135,-6.813010592452736,-10.45788890015156,-16.042022147348742,-32.75254573610589,-47.74020525381117,-47.60349793256733,-35.48794920625355,-21.525029718101994,-6.352100351591686,6.667563768639393,8.243244325533121,6.558444675706969,4.906445086511113,-11.34463801510525,-23.028832673016588,-6.839684988934753,2.8252463091275413,-8.715088777675833,-3.394789283328703,17.962957105148345,29.929874046117668,31.477718459485562,9.805517066185228,-26.36095718540028,-31.13712418446307,-14.528969310053279,-13.613928067897978,-11.92824916949224,-2.5259252646771735,-3.990283554159685,-3.8801721087424745,3.475419358154941,4.798531005684055,4.671844942121492,-5.52773432187449,-33.4985973559735,-43.972099011362204,-25.511542270246682,-13.367826961151444,-15.63126637685523,-18.244048817421003,-20.823493967759884,-17.546642805173246,-6.551324163790859,-2.9067990334384533,-8.410540883692871,-11.982430275658285,-12.07912902995313,-8.748190376706852,-1.1068052154566654,2.4733027631360667,-4.356602285639546,-13.853969111428654,-17.062025846938685,-14.005061533273715,-6.59000530209695,-0.8981954252278967,-5.26679358001477,-9.086667262727708,1.2828724447276771,13.341936233692664,20.745874551105814,30.51035418121,22.500456796959845,-7.750054191423654,-18.480365276677556,-8.487054282266325,-17.446418405218765,-36.950152565511914,-41.0353361543905,-34.20845965610432,-22.972217337315726,-13.822810071065584,-2.1296705351810656,31.989516479930074,100.17231709724086,239.01054280607315,379.5282227342095,223.4191914196153,-259.55159190871916,-531.5782337053673,-320.5091226046555,-57.970203850716345,-20.89531401621099,-4.5405569071977965,54.656957089047154,45.69621334606419,21.22269431695356,31.93211898088584,26.372051545910633,16.654959203697327,25.613583677971356,19.768124099139015,2.5956852215628077,-0.8896155294418964,2.5244156250171725,9.51517795336066,17.834804117477866,15.086454018872093,6.427943814701971,-0.4656651628891515,-4.547631907547333,7.6997730743710235,22.622398708435412,-0.7606514660005246,-41.103447661622525,-43.134220909313406,-23.94659542278085,-19.11005555650476,-9.06847011263861,11.268138375450855,16.41043567199452,16.070951380073133,28.77938715153943,41.0311008301836,42.26984139668699,36.828766890399685,25.703392344977253,10.823689295295724,-3.2924441365931907,-13.591025376540784,-18.569660569128565,-21.61527217307741,-25.462946090670183,-26.90482972764586,-23.595306356112758,-17.273743182153524,-11.247564823090439,-4.069325822606153,8.168148401413447,14.121713876147783,2.059292762454425,-8.050285799122666,1.3811082324277684,7.594991382028575,-3.305314435283785,-6.1254581505489,7.848455454796678,16.916093583629525,19.109521686855196,23.75103391167491,19.896013635044895,9.489595841727928,5.731019510676708,-12.465291853982624,-49.207913980625136,-57.03461777706754,-36.290544955551994,-36.061296945262605,-42.717093751778926,-25.53561615705562,-13.320925630467606,-17.141541458255283,-13.044029211990118,-7.884654425516052,-7.021541635323022,1.9996488860541763,3.7256053823832502,-9.046909522805798,-11.32293275871458,-0.747039234503255,7.538065663914874,10.83003309608314,4.673278013783943,-5.88383586774691,-4.268198779413304,9.370195667765477,22.752018733303487,16.45402166238229,-15.605190079444666,-33.179913142603446,-18.46666281617702,-15.506799589084807,-29.968421451610368,-31.603612354353917,-34.0451070158864,-40.03805347100743,-28.738361912172948,-20.168521740404813,-25.09379175109591,-21.80048388298272,-10.119860949494317,12.983006811762884,73.76746117627752,206.91326242455023,374.65702311290977,324.1564102230911,-109.82349827580634,-521.7027680935662,-438.9513509288092,-105.39896881658227,21.37924274306338,6.522852316017465,46.08018983041479,69.25568587605511,36.64447023027955,21.6784538107746,19.638229803434516,9.750132830101913,14.714219419489979,21.92625908128002,14.631738596227594,10.533971345554209,6.087570813932505,-8.60848072396846,-7.510927054456986,13.609079720511623,18.665986525664206,7.397608709995465,3.4217062881439615,-8.982454571573632,-32.62047917872817,-29.774296388209073,-8.895796071294104,-10.943377987741048,-17.600460549872217,0.6766621162926985,18.01042454518032,18.936087253256254,26.92757166944203,39.69355603845216,36.32442006005884,31.08751209178184,42.51161919293261,51.863955188785894,40.999332750069485,18.79000529234489,-6.933604705206615,-30.624279082666433,-36.087822205613705,-25.310878672728826,-23.02823389546171,-29.823249471454815,-23.098469616306172,-7.9136893202672995,-5.390553962848384,-2.151982648494869,18.32221386068124,22.771050633957213,-13.282893648423723,-45.76784796306086,-36.92148922559826,-14.702950077774403,-7.286139622450683,-3.5261661907156956,3.2353661934021476,3.423406082665112,1.5515689752570738,8.780172493432268,13.48557533646902,4.6355394711953775,2.794126591302229,13.344652502864626,9.99009881004088,3.4079479606086878,14.168126836213187,6.9253255406351855,-23.658026551118503,-26.287840341608387,-12.747061944621127,-24.440333653130644,-35.36876645334826,-30.79312727918864,-35.15949367236607,-33.06578722437928,-13.378425326874797,-7.453292559105336,-12.352273617641398,-2.783472914900937,5.658650019491997,-2.895644223653246,-10.443693345392337,-2.2296612054885845,13.699329971561575,18.817690945683548,1.0892041566382744,-28.791210584462444,-37.4348802844464,-7.998681265862958,17.37265387982537,-4.1384053074162175,-33.00974770960676,-25.20622387198997,-13.004079978867315,-16.791642233464934,-20.606188045336523,-35.95793165914792,-47.48702820002191,-19.644071673342253,4.953441689401972,-2.2244769838726963,15.567562391432837,90.87698749617923,241.26360913483398,400.28636078857187,268.91699945811496,-228.45862178710956,-558.5673510425678,-368.14918851636315,-65.26010138281916,-6.64974336777988,-3.5418598003975212,61.86124720610938,60.94813147931897,19.157792104182697,26.979840323381154,37.4677070323617,31.295552232851115,38.99351871948001,31.5228145796396,10.092395980981452,13.056043357142059,15.368526621024472,10.475620564304771,29.588979761002733,19.488355947463162,-48.28929996905866,-69.84695010233577,-20.09846534606758,-2.4476610331748745,-21.567574970963296,-11.385328316626667,1.2095973062584129,-15.5954624768732,-19.333903623632324,4.75755151685251,19.494249356012393,14.684634118698318,15.01981074796089,28.275053839592378,38.002762285480216,43.11265117978497,53.6686424950332,52.70949947118238,26.50957175655453,1.1868533627674145,-4.687161007718292,-5.227446553587331,-8.90876163307412,-13.96377878466475,-21.981029744164722,-28.768574941109584,-33.121524280261625,-41.35537924536914,-45.24123095155813,-34.223464306865395,-22.26887504359645,-19.18150189794847,-9.020724087781865,7.787704259966958,7.737522358077991,-2.791012025545254,2.6568468713486806,18.325861873581502,24.141535710136118,17.135984332338065,0.16006456231744792,-15.293838753412386,-14.308586077270007,-6.262931757975247,-4.881679487788855,-0.25649645554355227,13.473190223125643,18.57002137408167,3.0991609897425567,-11.701825042906153,-2.459345568806029,9.423137533926063,0.9065269099360131,-2.644928925420931,8.363877249392637,5.793033540888404,-6.332212579036845,-12.579020811080976,-23.763480941912768,-29.360852671665512,-15.810876249894722,-7.228090511997792,-10.484645168786244,-6.315930635497757,1.2616473156897783,2.6018270362254405,5.239933809533614,16.063830082174103,25.51102653069533,8.8721159011583,-28.75124147018974,-43.6185643234525,-29.5796774964588,-15.971879131489631,-6.916499188544794,-9.965307756137957,-33.2524574615739,-43.927274777119834,-33.41058991992208,-33.128395750579585,-36.49461281014236,-30.830167963754953,-30.176363555888436,-23.78081796793357,-9.242714568080547,-5.998773751825338,11.754984477411266,83.98500354485878,233.92285825212832,408.0285254231694,335.9197235337887,-131.45797298589542,-542.4985050933409,-432.3872126626737,-96.65819088120503,7.548896928122478,-18.204532922271447,22.426356108080007,47.151784430304815,26.320437956765602,31.974930507132786,41.27939646488794,28.46324207862662,21.903919658154493,12.805522397313112,-8.504092963766933,-14.026535621148875,-3.2957988031720156,-1.0604288335652852,-7.150814950192355,-11.664480179432516,-15.023753822639518,-14.364122701208622,-7.019172947182003,-0.2468442195224665,-0.8226763959639711,-7.919006908774174,-12.996092637103981,-5.6819930733108635,8.648071524840981,16.08853442657996,18.49463713577329,20.79714837774139,20.818494400122216,28.3810553211866,46.82739718640316,53.338868021501725,42.38733796910141,34.907193303074074,30.115475793872065,17.456549652812374,8.139054066314543,3.3112054044235837,-8.787502533172493,-17.320316690981397,-15.574326617376833,-18.587947983722565,-17.613001387167028,-0.2337429917829823,-2.2677263163074493,-41.83717456971587,-65.72865194039045,-43.87925554895516,-18.688407322751118,-16.68536262963112,-18.14833804213742,-13.402477196384988,-6.571948762438579,3.592858761951984,11.838430973810276,12.946004183672954,10.393262198441956,6.026812835477305,4.997854420353541,11.088362893091992,15.667237219768419,16.80811272982193,13.775924039548883,-7.211125723706175,-31.380671493099342,-24.411713197436697,-2.963608760351619,-0.756930686099059,-4.072226230956686,2.9721729113797526,12.111098475219528,23.186767216977294,25.216706358486434,0.11587664567896105,-25.957756648263903,-20.347455003151037,-1.191146437553705,7.995190883017356,9.873052248901288,2.007006577984356,-16.157252989288175,-28.448681420687087,-27.367967667840993,-18.64883574759935,-10.633299989722783,-14.746544608320384,-26.865168588071402,-28.903873933544684,-21.97713606865366,-14.77300002117919,-4.807037895185436,1.0661985259092397,1.367266165655927,11.885869318132285,21.179483939886516,8.650836636332317,-6.63663455334564,-14.921184431068347,-30.766332455879038,-36.92575425845142,-23.565554430176427,-16.302851220019303,-10.791497391268319,-1.629638032716061,-13.946630028732617,-24.234688908268794,18.14984407415011,140.1180958629279,326.3843742876998,358.580333001347,-0.723187865856886,-444.6078250918017,-442.1158739378171,-128.88473630415683,11.789373147866137,-12.777747231765844,14.513174104758399,43.64677839969363,27.41493820450443,38.74291365020225,55.602191007908274,35.80364462081447,22.851312599699867,32.041207045679435,38.84333616106858,46.362050383090306,45.921325733397325,10.386176435507124,-40.97814119386767,-63.03647083636739,-53.31641172995849,-37.742916248639716,-28.532202168838065,-27.033593141960242,-25.73232893818469,-12.832718016516267,1.710462447262585,-0.012625500508536724,-9.808771014986451,-11.22362485728359,-3.6932866987470194,8.98213015557625,24.314426788108754,36.25330397243326,39.66872103021227,35.930921803397844,33.06709081793503,36.03760242621145,37.432171537061365,27.74566119395321,8.02811853785181,-12.931953309212822,-26.55866030376919,-30.876697485126442,-28.847439781338586,-23.716187282975195,-22.220147210609944,-26.500831710291727,-25.076343061320248,-13.375519161351514,-1.9455332378339794,4.679960521245095,6.5045319568589015,1.8642015955621631,0.1468811116991866,8.614840518137163,17.857980721693874,21.70181772056433,17.977813885965947,0.22220440507771677,-19.007820361143356,-17.68689594977442,-4.707668825310733,-0.7807818329228056,-3.742184278586885,-7.304905040036216,-10.84236800994527,-6.673368225241145,3.086400625001855,3.310214508525481,-4.285337987567433,-7.601633534207309,-6.593619257535067,-1.5042881597799074,7.144446989993454,9.48713901142092,6.432100611721555,8.016993964538555,13.47525804911146,23.900654235113326,38.66736314718395,43.3773021119803,38.094462857372406,29.36666239924902,9.590765162711927,-1.613981544252254,12.610984390560144,4.074093992975357,-40.64551997621717,-53.98618638736966,-34.37305698946454,-43.32808146118969,-63.544530822721875,-53.88475756504577,-41.16740523574613,-40.37504486788521,-24.512171713135196,2.33259319071205,15.20265529298008,16.294232482537147,11.528959462816399,-4.290254238918084,-19.263502665416464,-19.711391291966557,-18.810415023507964,-24.703195369301007,-28.04929252494163,-29.13283059002689,-25.774799940600815,-15.719127689300642,-12.088407564137515,-5.985543072147836,34.658764913756755,145.4511382129446,315.27780397494666,331.2034870904487,-16.327559250278597,-420.51657039768986,-399.1781633806417,-108.10554997332036,13.83895123072248,2.4046506750823298,40.23697181979187,52.5840251309846,14.884104998347429,14.31417372763274,26.325295383058673,14.634117131601514,11.88293375713991,14.245495892754919,4.762618257082536,-1.9939797721326933,-2.9009510316541687,-3.7941792877501124,-4.654179852850971,-6.92607456425166,-6.838184645049929,-4.459879730910141,-6.062686251376707,-8.454700179953987,-8.686217950318616,-7.913802475060466,-2.6989919198018537,4.591705779495783,10.334231890818558,18.025055542192483,25.507717424098324,34.76687065167163,52.112939631573816,58.40081721694024,38.41028426732731,21.832565279550288,33.21787757147361,51.74120854133258,53.073118737279984,37.924900888957346,12.724530602919918,-24.79702827303084,-68.18716789694774,-87.57034204960883,-70.10612591048518,-48.49388355275639,-44.25422755032319,-39.50699943239192,-27.76170466064984,-19.97516552336512,-12.313862445099197,-1.6463928618210577,1.7888683890010437,-2.88603185359986,-3.867519538958738,3.8150252552380297,11.785482787149885,11.964872918295306,6.899812221194887,0.6855497298410977,-4.2207998744531,-1.90336103645545,5.333441448360347,6.559143584233096,1.556073980460674,-3.198950335747357,-5.271844424866176,-1.0575259927896143,7.997869411765509,13.702736400182001,14.524414669238366,10.596080071368323,2.23067693037674,0.19715631649190546,5.333105367342691,0.5138471526276396,-11.699607190499247,-9.58723992558194,4.948452284534101,11.847107295096022,6.470112853404714,-3.759755083815202,-13.881536181193596,-20.59083586558406,-23.631122102986012,-23.897652750540317,-18.204754678199034,-11.475682502575161,-17.0429872635655,-27.894008274959006,-23.937189523790956,-11.31139672613706,-7.55650357923739,-6.43678693209446,2.0526429136497484,11.624506933171181,21.191594474758098,36.60599754054267,41.97209600417699,12.826550954952964,-31.694479889048733,-45.76966381538391,-30.721839342361026,-22.764838357765225,-29.591361904975177,-37.37053986479788,-36.20917866050107,-24.703862566331505,-10.590353229767452,13.550200638082833,66.75090160085574,165.43868156708228,300.38399496784695,302.9014430506519,-27.57423974463468,-444.6298409990311,-465.9023880315052,-175.44053631002606,-19.89414636793822,-20.075182377341665,22.045510941836262,57.95955964960779,38.41385964267867,34.68819453606938,35.00456422519827,16.826520969634707,17.59376070775188,25.028412701417277,15.658088548189305,7.152457673780375,0.6124765460748867,-5.5541920319178635,-0.8533716262993263,4.265892326197646,3.9669553118165037,3.7045153048324724,-7.617638171499031,-25.407696743212263,-21.991529841426903,-1.4883227827281238,4.7775884810216755,-6.545723591815134,-11.35292173636915,-2.085055333030681,9.273218647112358,20.292444778700677,29.301403714288313,26.594264840292517,22.6525707609282,32.52608929921187,44.11026112933369,47.7442873566437,41.88112808676491,16.85934255269888,-9.351584068461655,-10.772549205825717,-8.661894537807559,-18.8910131361054,-22.884740506049624,-25.767539687523666,-32.90544931919207,-21.39853372283214,0.35315398542062626,9.430048180185645,17.037916333281984,18.48631381980012,-5.962832461714084,-30.67393835078218,-28.807411158975945,-20.395256681722323,-20.93828668612331,-19.1091038277993,-12.124581624733509,-7.6070370225099575,-3.632119375119639,3.5098730251249664,5.519602645693748,-0.6438004349263364,-0.6309498179837882,9.71242282656197,19.676634703418813,28.169079785599607,30.716570774879962,16.516998131648933,0.29413241375728294,6.614970393893799,31.07993826794297,40.187391777580316,4.361094184105038,-46.492628313779434,-50.71374220639208,-25.249367719596428,-26.583763966858893,-37.017608337011374,-30.48528857985754,-30.497606713935397,-30.59510042976693,-12.541522909273638,-3.872663064434896,-14.788225678062744,-24.5186349178707,-29.496413155235523,-22.78249164877213,0.006815335159700453,15.664400423373657,17.138054954192956,12.104480411309938,-7.292191071036129,-25.414104597364197,-20.49950115349239,-16.21369535364097,-24.665384197774927,-25.717527591070365,-24.819673212581304,-27.059236211206617,-20.718024093757084,-15.242738791960493,-4.1664437356075545,44.093376480898456,154.40024116658265,324.8270901724342,370.64455744873464,36.45127055479148,-439.96166250526164,-498.8767761742223,-182.7534541657378,7.972830496805109,11.60933886962922,45.48178618633798,77.46473664908534,58.48429605335055,53.03251703837015,31.22722253916965,-14.950384465613695,-10.907457781896628,11.804639025884388,-4.561393556468588,-16.024099893762386,-3.1910198914081924,0.520060087566871,-2.944443209036446,-2.0251573440003017,-2.4425346177167553,-5.902272688144188,-11.226087325927917,-11.30026134881036,-4.454682386955188,-3.2759926282518315,-4.616451092901912,0.6073177257247107,3.9029394687552372,8.63296504329066,24.23197806023091,36.57805691882194,38.3112594305081,44.952497495959896,62.6413884283411,72.75460185973297,52.03743682670398,14.168563645296038,-2.4023148927165714,-2.9914692292899274,-15.620190086160225,-29.797849494093377,-35.21709054018008,-42.48221704408871,-44.74196953296825,-37.793895209846596,-31.478956396812155,-22.545522023441904,-15.015507246057666,-17.922856967253527,-15.690558400582407,-3.1291177137541775,3.0824533124524045,2.193968367385053,-1.2022668425626888,-5.590768079371205,-0.9886217173666485,6.500843333635777,3.4061895940584357,-0.11237627001387951,0.9545775015348344,-2.153883286742463,-2.075485189876799,5.994791799489581,9.226513695490816,4.356658389568356,1.0528624119989773,6.221233978829268,16.978325291824802,23.663895578499805,27.484354128003524,32.78708154738141,28.890135580191977,17.17297591783719,12.959564746802393,5.894657166024553,-16.461918101417687,-34.57169078501739,-35.28974238748685,-30.369415213586116,-28.77159829006436,-31.959852396402535,-36.184968120887646,-32.8834212393528,-24.935370394240255,-21.68624792335158,-18.54111327751593,-9.3323720990861,-6.114019101266273,-18.314134871881496,-25.657137753229804,-8.586208906957724,13.1615330852509,17.400297805129007,13.467451810636828,5.7363751054539325,-10.351724826741455,-18.7977587619135,-13.34345820770616,-12.455453099234598,-19.688052869621988,-25.31905574819969,-23.57978808497179,-8.895115938168356,6.364496045521659,6.003487848437124,8.520663119035458,59.51721170602464,208.88120866032455,383.07941067630856,294.11123604246086,-151.46508912974656,-503.71007793579054,-395.6503010724043,-118.20220901330596,-21.438776323243836,-8.17613109348327,32.53136464298291,27.88253395456063,4.759842132982945,24.559108639794964,37.12004549071888,25.8346997506587,22.794432175541484,12.927667495243718,-4.618134059016226,-2.5414990553136545,7.957791039661032,8.73830136327695,4.380130488996825,-3.880259063404806,-10.291615629776231,-5.240358370975642,4.702738738294907,10.215491917638973,9.047513842609114,4.082726469301205,3.299237738946921,4.158258712722359,4.0943441267441205,13.654229144918443,18.866767025958698,-0.7029304028865493,-13.289856458610595,8.021522099699556,31.839855583939034,37.81943014460882,37.63539579504309,29.720621581115736,14.912467517703803,6.5393409459969885,2.7060484938354845,-5.870351930429596,-20.705446283743036,-35.65173077061627,-38.531468468682604,-29.75106797359323,-21.247469129123704,-15.064640539238837,-13.061767813351722,-17.29833927506803,-14.62313034039195,-0.3126822201350148,11.595448304853,15.301543525039515,12.818112311228028,6.087034547088138,5.106910869642516,14.868112183444946,22.62542223208093,12.703286442888157,-11.926288942434665,-26.255765803431544,-17.66690868736464,-5.290197118265533,-0.8017334265579834,1.2704314633223013,-4.029596334959752,-12.507382919615178,-6.6468234776800195,7.762715482873293,17.29219782709596,21.574489523879834,17.96974693456142,14.554221028180933,23.293259654881446,32.06838962304869,32.05074211121835,20.270306269243726,-14.865845450881242,-44.30093755268618,-30.496291237830896,-9.077844371482168,-13.22534101936793,-18.400663830153945,-23.348202037938517,-35.80313293160054,-28.706916466532007,-7.953129273378945,-2.412702565085919,-2.746315802956609,-6.559457692766781,-23.526960873438732,-27.51928547270795,-3.285223730658829,22.975042337658508,30.017958836413666,10.866748280976676,-24.421890413531457,-40.535860453556296,-30.32340544533986,-26.779347860888876,-34.709911482004635,-36.08757835856332,-36.43908834800749,-32.95097578938736,-14.985388015236586,-7.12254355095879,-14.52437065453881,4.080075606305009,78.47685441425875,231.141247651066,370.64119846123043,215.51657097508013,-240.25899708964243,-486.16058876555576,-277.0016343355069,-21.082134238056717,15.232298437624028,15.659761805205582,52.418587599558066,39.965168368811796,25.37518542104327,42.63040347440441,32.57446767012918,5.262877571082631,-0.9164122653184155,-3.5917752056070023,-10.206386994328385,-7.3402661753522,-1.1438083857933208,-1.3688837554176372,-6.1397353262090695,-10.256043689950431,-10.24645782221113,-6.307186118145992,-2.392197675446303,-3.6128919929204435,-8.759189729348108,-10.466306585562478,-5.777982139967595,3.811937659087313,14.442188855804586,21.418867088072933,28.136299785592037,36.35644227381701,42.18151841764426,54.81960395134919,69.97480751183026,53.64210193213519,13.715162745079706,0.9666883975795297,11.043910516661938,5.364697017839541,-5.776585635982817,-7.253330011247559,-20.20791798577821,-42.61354610202762,-44.65951854820199,-26.213216177834145,-9.778488424740171,-7.441288355791269,-22.63163323495646,-42.89776084122647,-41.58620186705606,-21.089132356299842,-11.729626077940063,-14.136758008419271,-7.423376978102185,1.5407209899234395,1.1060519574883347,1.3307383089902398,3.597373246468845,1.719556902940587,2.618537462687362,6.125828095839045,4.623415089460064,2.4603973081893096,1.0895905866992637,-2.5016806211497196,-2.0102317938773684,1.6607160058640038,1.1395768389539815,1.7179299543641717,6.242270261245908,8.595185874300324,10.984933324822714,14.649141065201624,10.458470373447506,-1.676012889136412,-7.012731095249382,0.055295132540633674,2.756161537420282,-8.13659586714785,-11.804802065639729,1.6981563206223305,9.787628727355507,4.8962194489034045,2.3012709420837467,0.9591583646501931,-7.624719279179306,-19.508939440535016,-29.129531793159565,-30.935567931833923,-25.121311404934758,-23.497490037063855,-24.751414120330182,-15.6172833476468,-2.272594764087847,4.121955860800092,9.55860048260754,13.166031069364815,2.5924934994376283,-16.98031354363446,-27.630554030970153,-24.410904289993418,-15.537646247504336,-12.066761164005824,-14.23958334085625,-6.974846528409248,4.815216048938051,-0.38808603377245987,2.058467342907935,49.14760364358353,138.66507116555206,273.2880072426485,345.47422477973896,102.837503293128,-365.3234250422895,-533.6391812939208,-272.759987664296,-41.26299553656138,-29.35908919602994,-14.228454936715607,41.93635234863397,35.11236011160816,16.68555984460052,27.89480810611129,23.92425666808669,14.71478815667626,20.31174340673698,15.907244648121642,1.5737539171243373,-3.1020401780022713,-0.9690302515316471,2.131079597639856,7.4018796125180275,9.97373742372101,2.941731143615515,-8.602413035832411,-9.09106148692943,3.1654718127809023,7.123775808830263,-9.549438972097628,-28.212587099651955,-25.613107271166434,-7.4697658109342004,5.634332294812268,12.424288859183125,20.6233564991402,24.0064747138537,22.708959835277014,30.6560445476121,44.39494953745361,47.89073827504812,39.80387356610249,23.9412514835297,4.193337971925633,-6.524671447764977,-8.41521204255104,-19.854576529874624,-37.85555449793415,-40.61861066670567,-31.844236850486887,-28.059231701479217,-21.368184139321357,-7.428799113204718,-7.186468977295201,-18.889835900044375,-13.965678282019834,3.9576567339477995,12.693826197307947,18.869436402382945,26.90648635616922,22.135403343041588,11.399025707583263,13.050835650188558,27.016682259792283,42.11556929894184,30.471434588936297,-17.660445519417515,-42.85456616949049,-14.761457432427246,-5.48904556611944,-40.839302277744466,-51.74758306152335,-33.81368304705275,-35.90053591706553,-35.34117629113441,-8.053717840916155,5.62982216978501,-4.074151709774631,-4.112207221540808,3.6138276281556956,6.725595168917861,18.177036924760678,26.144400668116404,4.3172375962162555,-18.390345443256376,-4.899782102453274,16.889944539759473,18.698899152252725,14.845243284813062,3.7899337417713195,-16.79510602081511,-17.533934872375106,-1.1965532279044986,-1.5136449443148692,-15.16968662289889,-26.20010106880676,-36.52919459211539,-42.37080610472044,-40.64596822662847,-31.852591122891,-19.518488805161255,-24.570118406905294,-39.99354827359649,-30.79662604556389,-13.864056317586469,-8.799486972671417,21.42230136110239,101.47297549366431,248.072391468489,386.23942205065936,231.1975541506211,-258.37802479139236,-556.8993618500488,-357.63628117854716,-66.03551916227914,1.9549380008652868,17.510998478723128,67.44538964233004,56.79771096469737,23.48427403221283,22.912906266807056,23.00387061744829,30.32011096909296,47.61509937243773,34.20152076413952,0.7182973651446964,-15.870403863390878,-15.201332377872184,-4.191429328711832,8.25741224852565,9.557684890261196,4.8445771639983235,0.5337368614731908,1.3212802024773076,13.855167882984807,13.220978072658308,-18.383604908352673,-35.846368058198536,-14.139751762847446,7.223237946248094,16.32418298472322,25.417332697403324,13.228369542505261,-12.91906233580423,-9.801099333203005,14.493313059631546,28.28835044269769,35.576391777749,38.24775641547468,25.903017624075172,4.517060276892452,-13.772451211241572,-19.416326037692667,-14.2774977564295,-17.075805947036287,-26.907768616438805,-27.82205044064463,-30.876768388118762,-39.014470240286045,-29.345644704019804,-14.9662726858914,-22.051973956370357,-25.5716465979445,-5.444157937583229,10.069527845602686,6.76135372425582,0.09327344371128454,-3.339145955651789,-1.5657927112995669,5.885112843566624,8.735343823330108,5.592404139094658,4.7986879950658095,3.6843584010985744,-0.7228181175782069,-3.4211567601571677,-4.523430071534293,-4.755743049045863,-3.333924393844811,-6.023120940320908,-9.160152845945843,-0.2793343466872893,10.52049847567686,6.274857327593827,-1.704460003751072,0.4798439335351685,6.672679096547242,14.534747766562806,24.02213114895446,21.082042348192306,0.5234396140112372,-16.728009630434368,-10.430761581026214,7.62650289976259,10.015303643605316,0.34272635145165875,0.1381804427818043,0.4800764326324547,-8.086159361875232,-4.751221577248946,7.551139794248539,0.21884567826980472,-20.071256545177718,-30.231127637391936,-30.828323191192673,-29.6238770575098,-32.370044279870925,-37.67719028415173,-36.436255704296165,-34.03467835944824,-31.30924669160331,-16.86233201455114,-6.066817000014947,-2.9928468024125703,30.296496693140824,126.58644439021265,303.86884576164147,436.9969979242498,217.18471542116473,-314.2497348658096,-574.8266307491953,-335.08829473718833,-63.317072747312224,-26.98270397114451,-17.84904007570986,32.27243562584258,29.542321242073967,19.1999595013154,35.06582281409343,29.639650388509423,18.254448021872857,23.70596221981447,19.394178554726707,6.850126262893503,5.66630041765759,5.896128079519363,-3.5516650487346277,-10.875338136808823,-4.168187288101407,3.535152931878416,-4.179947037907758,-14.166492616059452,-11.699245502220196,-7.192070393031877,-5.064077131761132,1.3255612926012832,3.5672786723304757,-3.122288022305348,-0.8931120206297152,18.498236804118115,37.8781349460015,45.59017931349971,45.559388390044916,38.12769365785415,28.775744487228984,34.08044250066524,45.17321295392566,32.72868076922284,3.29679745854546,-14.681571502970526,-21.851512002414143,-24.94789205061812,-17.444912131091904,-11.715931504803283,-19.28641886091244,-18.88774938981701,-6.7526936582953105,-12.734361361729098,-32.1987517403097,-32.19461080010969,-20.167143592572575,-20.197889166514283,-21.294283903928722,-8.665457432741599,6.404469265383863,10.138014282785523,3.725677930240801,0.7507015015807645,9.52046757615451,17.93080103730177,17.907364660607037,18.325422381553604,18.69021509745022,15.45563504769597,14.616268003900329,11.774413535354093,6.959832482689959,8.480902283872972,-5.801427112240949,-43.398152566744024,-53.60924512393569,-24.167810409228984,-8.710781155318347,-17.6348335185357,-19.21603589114614,-13.829127934246777,-9.265563517633716,2.194810840382782,15.003525059850219,18.145500063049553,11.129474821973858,-0.8586046199616035,-5.1557185089079365,4.521287062920509,14.150089666690583,11.963308572221496,3.2733479550815954,-5.047714077638403,-11.0737522571716,-12.85380951429069,-12.280527999944834,-14.128898154508489,-14.10974897027383,-4.069119602839942,9.676677705426302,14.100856553159588,5.545885663466995,-17.383251970134435,-47.26592402612134,-57.675502627029545,-43.112092499004156,-32.03319312263324,-29.683716570458813,-24.101953891247092,-27.998444335781357,-29.84602973844034,7.750962424233748,94.24820674307838,250.97314755784055,402.51960229730537,261.6171495083236,-204.5236305867004,-486.3350786050253,-307.37618537437345,-62.48679258539971,-31.14870783093197,-29.19570721732191,22.76317184577272,26.533661685307766,18.67544628025484,37.67103742426942,28.281474636844994,5.493652073128131,10.351060173974062,18.50515741759863,17.862817281191038,17.24940626095863,8.935161560368563,-1.4408785250938667,-7.3388153602987,-17.71616622199036,-22.814065308636035,-15.119342257563323,-14.211504819881938,-20.368577933946955,-14.819777493117465,-2.584031698603309,6.395749427202114,13.175253514510405,13.816010616153132,13.411166816891258,24.557033876416554,43.881820844332935,60.98381354115804,59.29685427733861,26.68295261903713,-2.6874027841057018,8.400591085181437,28.97358381927478,20.596517716834544,-1.2440600377291116,-18.593621313075147,-32.71133904338329,-36.25178773376358,-28.0261184369405,-22.16921814054574,-23.300323499094894,-24.104907191744953,-19.195071491522175,-7.80727472168609,3.891336752858887,3.607074262162584,-10.900892027753663,-22.50736305892445,-18.01243915434709,-6.761441063260227,1.1606531352844782,7.327247847246888,7.802207630974208,0.017684052360702474,-2.933663632182239,5.386249827379219,13.3208483885804,14.85537734029925,13.751869610745974,8.585954315148397,3.4459681638478923,11.394137326441655,20.797904111226938,2.9995286371785674,-28.53846420254757,-34.67916816180391,-20.96712202395399,-14.755786856557744,-11.296430591203297,-3.364994184430481,-2.7917619580455852,-7.356415981037682,-2.8557789476120856,9.20000910129463,18.784632383229734,24.14965267905358,25.109205194309332,13.497701379917634,-8.379479020308395,-17.115657308144314,-6.351497519405419,2.305948547951745,1.9331438730478094,-1.6220519460060823,-10.074384396984694,-13.911229212381219,-10.186863097569468,-18.576043989720347,-31.207708816745246,-22.792869383014708,-6.554652409903067,2.6806904494965975,15.74332539751432,23.887624915156017,12.770020770837256,-2.9451334021207405,-8.745930740080036,-4.5041300490936305,-3.4636969116840746,-31.261209562175864,-69.31800002652223,-64.6513011107013,-36.336975356648544,-31.723174488953532,-20.041120565403208,34.11394162572208,145.3848644491611,318.2208299389666,350.3989475301569,3.7483292581445227,-425.46641255920173,-424.2187424571236,-128.8897625529503,0.2929717064547148,-17.59974345838848,18.224509553672586,42.44684903492147,15.48793920299893,19.65801631177048,32.95219646341687,19.409102356556666,18.15743193511508,23.384136789035153,12.994331640290916,8.043787396312151,8.150879139751801,5.202844855035938,9.802417269668364,3.0521641742759003,-24.30874410666327,-32.93258054397815,-16.975262678447656,-11.584585011106796,-15.080372401365732,-11.485138494950933,-8.768180587403648,-4.998355262359993,6.1688011334109865,13.504038657621741,17.676128220141607,28.5289043764108,34.121054658858085,25.30840446765363,19.92522851898098,29.724243134849207,39.83108251383708,37.54704139299044,28.93353078557105,17.987630754949627,1.9515145239617553,-13.64232332035356,-25.163989532402084,-35.924524002884134,-38.87919527864753,-30.333874824482585,-23.566994615250273,-21.97481184000145,-18.518246634036164,-15.81396556102066,-11.232058562079086,2.196314473211319,13.791178059705565,12.86798739844798,7.634937250155761,8.21069950502351,14.11317125482031,21.143599473104096,29.39007654484775,31.505904949041184,7.51087644580757,-30.254725970770657,-33.95538102719639,-6.974362232970753,-3.221943551532238,-25.272742281583106,-34.04598657624085,-27.146546536148747,-19.891904372727733,-11.570222756365837,-5.891783319200783,-7.279491943028862,-9.105686867194002,-8.962068992995539,-5.028514831613615,5.784928876069443,10.32658648722511,1.3345976433249742,-1.311236416614717,10.830931103285954,22.52214094884305,27.551960587325432,24.952357304364348,14.612406036606979,9.685396928994992,8.027238265957122,-6.714327918366191,-19.5441946914542,-15.92179557333781,-18.63422423569183,-32.3752217091235,-33.87915711208249,-24.12584998397981,-14.316059304090807,-2.0161336994448966,8.313102872479028,7.987628130374855,-4.27946549167261,-21.55751934192572,-28.355829838031042,-28.79565436168817,-39.94156755764221,-44.147002189296344,-29.207111156832063,-22.264377931791593,-23.007056944491538,-18.061398471775167,-23.137430047783397,-18.939767788429897,32.3001279783284,146.69416851007128,322.115869756453,365.5439451400806,20.861392357910148,-443.5990638573541,-474.5753566609176,-159.67586338097777,8.16828698254183,-2.033672129070542,22.731481603800027,49.39015026364965,31.907851361519146,37.03757599305291,52.78199586170407,42.195506730579254,30.453869903893313,28.917438011275014,30.35398903872932,36.422000281161786,31.044926296127425,-5.322755281992851,-51.28439044304532,-61.66124586255713,-36.87164069166971,-21.310192223246634,-25.18650214397919,-27.8016427570427,-28.34270463631473,-23.65562967821768,-7.018845033990269,2.8844124655733703,0.3371750597357952,3.951809641609097,12.413031711900642,18.241488801898775,30.394207003346654,48.52691918558499,57.90575608291259,50.949806647290195,42.57297468261966,52.2326881746591,56.89633132465762,22.036325021712333,-23.918092019211034,-40.01498864695088,-42.3150413693765,-47.61971485380565,-42.859518072578325,-29.55024229103461,-19.080471518354052,-16.037267052462653,-25.345336809857717,-33.854554956250865,-21.250569829412136,-0.32045409569650474,3.8156469893923877,-8.199802402430414,-17.92202219609862,-10.276770770196208,8.77659120851071,18.24286047277216,14.165489695284913,6.41203448291224,-3.4936634648551497,-10.305579949264775,-4.626145330741519,6.252441267266177,9.067068452499043,2.416520714581113,-6.900600962176054,-8.14918963424226,1.2140599565284644,6.407751408544996,-0.0573517423457468,-4.169919770403871,0.09938398756736189,3.2997106751429452,10.220064623793252,25.834688525709808,26.02797890928997,4.949230313603155,-0.8803190036064992,11.258709583904862,6.736837565241155,-6.426422691750748,-8.553720738419079,-17.00445309790124,-27.516240261545473,-21.11160483950254,-20.903792136555648,-34.22515510185386,-29.043819589074825,-10.223940962084136,-1.6772016599057178,6.213217516447983,13.094098398981432,1.9479238578000402,-15.034581079217226,-20.100961431357405,-17.16632583661609,-9.711559864888397,-0.7181167698463824,-2.599135599747754,-22.74875171477808,-44.27339862618888,-30.949511772687217,33.600813092322916,154.69726666564384,319.65905378643873,344.6904589825756,3.96664943088561,-459.6179013943336,-515.1789106540632,-196.9687285912995,4.114424363674942,-4.176681519572334,7.481126532468522,43.52464681029118,30.695791762558343,26.198619777395603,39.045300269837355,29.887751347027915,19.868441681164285,19.50340482858328,12.268978453448742,5.264228224931991,1.580631504756317,-5.4797043080233,-11.040459272154655,-11.019861060720816,-4.820957497943109,1.334255987156421,-4.797489326417022,-13.958980050688785,-10.269215844976,-4.5680993284614,-6.091552826039156,-4.934092895027754,0.7457911217167359,7.531382024922539,17.161199757328905,25.743389889732093,32.55272305669496,42.26286073906944,49.7671400081791,52.17168002346873,52.23210161380961,41.36961807953227,18.290457039737507,-0.14820902254739465,-10.440072920405964,-22.46274239694893,-33.637821325539186,-36.211227983217995,-31.40939046081991,-27.379338478874374,-29.997268113506085,-31.198992330700474,-21.222239138018885,-9.175993531155388,-6.627182585944461,-8.137916825169828,-5.041880159165504,1.2979052655558627,5.841378186175991,8.332484835118514,9.80299660282709,8.003572050645765,6.081964087263181,9.899749922051605,15.359691072593334,18.333327315539673,16.574691816913962,2.0529864095593693,-16.692755437107433,-19.255217365179593,-9.696518470180877,-1.0512063590667418,4.115764111585973,0.8588265913542852,-4.119063154757596,3.3854916006202416,16.539820984973936,24.65832613364404,19.13475548121182,-8.808353430160858,-31.35161363333568,-21.040559445972722,-9.381530656672773,-16.818715385060646,-16.144122914193062,-4.537465553398537,0.5160583261783174,1.8704434935256469,-0.7280395363991072,-9.45862957931374,-15.663698001470026,-19.469205817132977,-21.757764001900178,-18.9284741039175,-18.28962766434885,-19.467185981847223,-13.169036372854336,-6.33017365005373,-0.6221890209955561,14.192148021860387,23.03916743454355,6.36199979729757,-17.85822617783584,-24.059031083600125,-16.883543246042215,-19.381466783482626,-38.280064551687225,-48.12788143147968,-38.22054360497775,-35.17750375333027,-31.60859816889792,9.439590372159337,98.1682212304159,254.58316326158962,387.56865205155,209.46823966001756,-265.0314807274162,-500.0640783868417,-273.92704606911616,-27.670870813395126,-9.753088327492929,-6.190867774888133,46.69749061883724,41.63158618069019,24.08922107416184,36.95015250893301,29.373888909526173,16.358865641448006,28.039728695586795,33.4325725757118,25.74739535164072,22.095996239838968,9.542983837758076,-16.73623722086198,-28.68718150102458,-13.867595058724905,-1.9225857286907155,-13.586977689989304,-23.261435830997193,-12.624690519325462,1.3003270834119185,12.77074710881962,17.961879099041465,-5.553800158734186,-39.142681601841616,-34.136697692640894,-1.0590409792075146,17.525823159970834,20.27483707949095,21.590105037632682,24.224634324707736,33.54912646498567,46.05784625911553,45.801445714869764,28.099584728468553,4.0701494034537795,-12.268506872552262,-17.540790404692082,-20.147824503595988,-24.497560730416073,-28.93396976693711,-31.999320612211488,-28.529827994509915,-17.242489621998363,-5.2769894436403995,2.492377373586553,2.943340090568902,-0.6824782887003922,2.7148873130721096,7.060295948213878,-0.3025306322553707,-7.755475692767037,-7.566142446651194,-10.372656973132923,-11.284081535756064,-1.8173301780397977,6.809143655638282,6.960744733890063,1.0841428646298663,-6.978136125251862,-8.019011148175657,-0.7075185042016805,5.600349463141415,6.905268247630994,0.6899105685447309,-9.768494829361202,-9.741905342355736,1.5765320334801576,10.913738969449977,13.844699640014136,9.933702777880116,4.838511112138184,11.533973647348077,24.069060824077134,25.666104986567177,19.388661164633305,17.20082059544883,18.5907883165187,11.576488822788598,-7.203948526356998,-19.276754215464603,-19.217111530859945,-28.710662801927462,-44.38103683067476,-40.29633101302791,-22.08294506493283,-11.31672400983379,-10.927972366581372,-13.88433196365611,-12.557967788626469,-4.354260685982516,10.36076383284794,26.58063775242966,18.85660638651112,-16.40953087060356,-31.627076120454777,-16.07166311089248,-14.066216463892646,-28.022826092373915,-33.11432420243927,-36.25308092579104,-39.694631998917615,-33.07100039362999,-19.881814454779942,-9.705591032330151,-12.8640796348025,-17.733062085393346,9.932749563682876,98.54163753702053,264.790348433825,379.50940798075044,168.91685695346195,-283.9177236770977,-461.307688345351,-231.0882533218623,-19.840882526408368,-5.5923674684162705,0.28560681436093915,29.035892623480798,14.44219275314438,11.788778342172971,33.25986208852902,28.33195418373846,13.179495581648087,9.053102924161552,3.0616100138642657,2.272536136343374,9.051024093175991,5.528582840334946,-5.890362889907153,-11.193820463165654,-10.186862950415414,-5.486198981164432,0.08015800466965839,-1.523232826199319,-8.527582983973023,-8.752231192214092,-1.4307989932629006,5.505235994625004,12.16877402495843,20.187879199379033,28.358259462550528,38.21019634240041,43.65909307377131,33.070943289403345,13.54576166396885,5.007960490833058,10.238109560445103,15.535974151358115,14.600588695899694,12.038668640398631,6.95268609635635,-6.6346162669648585,-23.408789031407604,-32.14851184830097,-32.23913995840895,-29.57991692340713,-27.17334868636214,-23.78552816068459,-18.170623848328567,-15.20731570192693,-14.847613595216057,-7.303939495092662,4.2719087822773725,10.017522588008639,14.786479851508457,19.300248884060647,21.149402165171896,28.332161615385946,24.550273259015324,-10.675502940538784,-39.62403201909101,-26.665938636771116,-5.349100403150446,-4.570714523660293,-4.887487776183206,1.827796760660899,-2.8003879798114966,-21.183098367532352,-29.801779767376555,-16.74303286315901,-4.636123367847585,-8.42258839326649,-9.54423060102459,-1.2330980003239667,3.3926518293875016,5.85333595909248,8.695237739960184,6.094564036586794,3.0104723346622366,2.4055731516064647,1.2279823875923066,4.82847659594948,8.96319410595651,2.5331102255008666,-5.381905974085321,-7.139705725321711,-13.04115219951551,-23.271135673551356,-27.448620368213994,-24.739609603491566,-20.135830517951618,-17.581978088883062,-15.247729422005847,-7.10238555973166,4.130120719469739,15.027170456373007,29.01344786591846,34.76458048718797,13.86056468284507,-24.62355626938468,-51.681782361290004,-51.05587911020423,-37.50415515106779,-39.285723920132455,-47.7499966824447,-35.63400453565588,-20.16584629098086,-14.661186433641872,10.075064769088211,68.24012637423155,190.26151079808483,351.1607117996207,283.036034612151,-152.25544249073744,-502.41136199616267,-364.9018282944591,-65.17932837611852,11.027269013967215,4.595270669407675,58.005303919370064,70.57499708275179,50.85754115547737,58.00602405911498,34.581647750624356,-12.085893513408356,-11.911843985687451,5.480808402689685,-0.8255047739308736,-4.168556463541217,-0.7459655282759314,-11.165483720243902,-23.279657416326863,-21.848390702155346,-15.64744424569815,-16.143779276628084,-22.717351584828663,-22.693584535783494,-9.763318499398885,0.17457421856996902,-3.837652686027464,-7.2806634414090174,-0.005371612105863122,8.58496111540293,13.604526339578026,20.996918984878985,31.350844267720277,36.27645954490308,31.823684116385138,30.213590565558356,41.5516068359415,48.39393245992798,32.67947071850661,9.086820457614213,-5.288135443665581,-15.274513572211845,-22.431998016927327,-22.70613766407064,-21.88684667321005,-22.819347359287285,-20.08304606405763,-9.182237946708362,8.572208925561107,16.338296582561846,1.8675472558570672,-14.661383074539945,-20.18790363851135,-28.978011761623613,-32.18568281665834,-16.003185179081143,-8.820001016353912,-20.84070223678354,-17.764076659176396,2.168702027269714,11.192330180801703,9.247043601605366,2.678648944757658,-7.945692088554234,-9.85722150537877,-3.813023824268843,-0.6411770607798832,5.180618073226809,6.381192607680111,-8.67656392604089,-16.555109489249084,-4.534150582111863,6.240610490794145,12.144820669504346,17.25016317824568,11.712045516576095,5.29136904394822,10.690364564320694,13.0273663555651,6.948144593783888,7.303265892340207,10.269953394634841,-2.5901132135506533,-21.53570121953573,-16.75259000058406,-1.0635475977544075,-13.059641677074607,-32.781481539976944,-20.63095995286392,7.128314584873591,29.84686851562627,36.56855222747124,-3.282705185787382,-63.00282939113819,-73.28061358725579,-48.89051904498433,-40.20249122996658,-39.547707398077264,-35.28711312245812,-36.52431852926024,-39.02407170503964,-28.368171979484135,10.568590772466337,93.3139131867552,246.4394409062202,399.29348649712193,272.543891543195,-208.19538077132063,-542.9271653868811,-368.4245844378611,-62.791789697543,5.9379568986093325,10.759916029263639,76.02977507265396,76.37933535334142,31.382230052444253,32.14476022865558,30.544044773043254,-5.371683612017442,-22.849011781933783,-7.900583618674752,-0.5443621483416692,-17.24502981303107,-26.693281625074505,-11.601854827775501,-0.025137930236702744,-3.2167732344660553,-5.879869486817073,-11.120391626878678,-17.799357935585004,-11.994524254540128,-1.7949122202811476,1.3246227297580981,-0.11617976330429114,-5.538928310883202,-6.290303903533266,7.463243729233245,24.940923741012078,35.926842427110785,39.32939165478638,33.071492908829114,31.35727760939288,47.78704290543709,61.17181390161572,52.532432238897485,33.233548536211856,7.828971280271348,-24.667507667666953,-42.47419371943721,-36.05526574308738,-31.91631028841349,-42.10053833466992,-44.7275675409233,-30.467608455098983,-14.500187327530572,-5.408592361469708,-0.5644379850900281,2.0420536029148533,3.7422705949427892,7.341827465474472,19.262417358920665,34.78147350048363,24.665323741745663,-17.507082554452552,-44.23047411803851,-28.901641103061962,-7.240716125637036,-5.097126348553615,-8.789082155101866,-8.95069905634492,-6.477403211820583,-1.3931237562952137,1.1104983302864113,1.7996495841677649,7.5453272282595885,13.746962251523605,14.321171180191438,11.969927131735359,7.54526578420405,3.0952147357705844,4.861160417043731,11.950873100627138,17.23959295933924,11.76695760903466,-9.765276908736888,-30.132749447057495,-25.564955105221756,-9.225933602567936,-7.434716689059375,-10.488168142175253,-3.51012441793905,0.16531271955967775,-7.134727676451849,-16.670401067916202,-23.741038511867934,-22.88787245615537,-16.535148162893528,-18.732892921683536,-21.858627847694187,-11.823790625114135,-0.8400705850554591,7.1894556379832055,16.745558041730856,8.167122994629919,-15.72259955272424,-22.87136493697505,-19.96148355787929,-26.204244472999285,-27.421622422687683,-17.80510030273095,-12.496372805822011,-21.685574852336373,-34.64937593646291,-15.655993276804164,55.63573252774361,191.7050718564373,363.0699211539066,329.9726939668577,-87.99617358569462,-493.96403823459787,-410.88775951657635,-95.5767471851447,4.659005368613666,-9.239184980072189,40.932514013855936,55.38383768023018,26.29339652386776,39.73748322387313,53.542752894337035,37.34284761434861,34.029541224909636,39.56379156911844,23.174709149878083,-13.98132099069442,-41.768869378204585,-33.42413247920042,-12.935451275398366,-14.05066009678835,-19.810874891013906,-11.975723917143291,-2.0177934850388346,3.165560551588094,0.2478576804675381,-10.955501188423243,-15.13844110550073,-6.067830587069832,6.750988344491791,21.23940102216397,33.70567370955666,28.46323635578596,6.689130864389421,-3.189609089543853,12.402923478901398,30.495234625763466,32.60344899393106,27.237360102093632,20.000063193926373,8.378323605629625,-1.570764009235555,-8.477341120450824,-18.672508005998537,-29.147803917475475,-34.55526730239879,-33.56337319311023,-24.35154056165235,-14.384232680065995,-12.702212311177012,-12.973185838827238,-10.501661372482996,-8.31794329665675,-1.5867831907676915,8.98481664624968,13.2321643697963,13.337194170605372,11.445052781175292,0.7148290152488594,-8.019264882878838,-1.3875396795083454,4.363053186631665,-4.130844082330901,-11.299870896227109,-6.93415285313454,0.1543967570713709,4.063134028932096,2.818863452026677,-5.163783012678422,-11.293843988127525,-6.823697654834858,1.641431724399617,5.571419457207437,6.019233024580939,3.4395536310030557,-0.6293678820533399,3.564973035193841,17.522991311586285,25.235585686015988,16.577770801630997,4.744202964877588,7.380404077718846,20.748968626043883,31.0731008179484,37.83087362256593,34.295029253510805,0.9359192793192754,-43.39333800435747,-53.55186878226968,-39.639179058593214,-41.41219505245702,-50.40525340328654,-46.98707131011672,-40.171887280268066,-27.823792516274516,-4.495538561367864,14.20963289729412,25.106112391484217,27.244779678892726,2.2610429085331774,-31.103740525319296,-33.35203708921145,-23.747725135125865,-34.592373637279195,-47.22176440904757,-42.2942159639174,-27.557370773098803,-14.90799458465996,-12.541611875061042,-7.774397544476565,30.073572982709834,142.2617382486469,324.7263697843347,362.696142185515,21.71474720682626,-418.0986605152581,-439.33265707583587,-140.85133800509954,12.442122674642237,4.455683619286258,35.34684300913857,51.64664561923483,12.660193767931766,8.802441124400028,27.059248375528977,21.713600040980502,19.59013951405985,15.995967966294401,-1.9651395060532533,-5.376658708069121,3.432783688778234,3.2439235345102757,0.3509502143597014,-5.495217914423213,-15.033709006992362,-13.335827120968393,-5.13182549347171,-3.478050948102478,-3.8429745569880125,-6.377474764015921,-12.00876741532677,-9.111612803187118,2.987981055532609,14.305955959804834,20.770105553734933,20.816270369220174,21.190090954215073,31.644736263952588,45.678938398017365,53.71669369845553,54.99227467907989,48.753608792587144,38.18867576936297,25.930191271278286,8.13966386987772,-9.878393021066923,-19.911665758147635,-25.223112831450383,-26.610090773560906,-18.42279815870116,0.66994440049849,17.62218551363683,6.589481142510273,-27.448025671957442,-44.13159664387947,-40.21599039309506,-40.774067229627,-35.46771902853492,-19.9460924485192,-19.07143449228851,-23.237902731672065,-9.131357035810744,6.039072020126869,6.67753234288104,2.6966471923777213,-1.8133734754573343,-3.6722174738582307,3.7983691425017647,12.106296930177876,10.904040970066298,4.630414754010216,-0.7000786550849476,-3.5143560817646637,-0.05924081100377898,9.242809488796885,11.830165975849347,-0.6780055670388867,-14.241963102582558,-12.381122117436155,-1.3132498234286736,5.119646394246127,5.044867988357636,3.927554647544932,5.421394691634073,5.815027853223963,1.5772787229483576,0.10455503157377466,4.936846649262604,7.599790334827176,5.270566858506816,1.4279984479014893,-2.2383583976243004,-4.267003750504138,-10.264836432137814,-23.727411396677834,-31.95122887623779,-29.489978510550408,-23.673760447996838,-11.541273686593879,4.225946894174159,9.198379802910102,8.660465420768253,12.686791798017552,10.56023219966718,-1.1714538338827092,-10.576976302914078,-15.405222127264695,-22.585524775631622,-35.83383181214416,-44.65095229912824,-34.5174066283107,-21.48168224809138,-22.19339681635758,-10.245765311386807,40.82315270502316,156.74901192051507,329.23225143915363,348.3517568951346,12.90770555360858,-384.2029485924362,-385.26207543541994,-116.73042667929224,1.811765405983948,-35.28461473899476,-30.85538779911124,-1.5762384763615316,-2.148082287601685,4.085988439738158,13.325886453624438,7.127641768503107,6.960590264182458,11.156965364606037,6.436008283936488,4.133223351747795,4.701019747234158,-0.0711950737291458,-2.5173010989269335,0.7036838543426089,3.4206058947230247,0.8796301574154684,-10.318217610649238,-19.27291898306277,-13.528261656693555,-7.594828513885037,-11.403703216795959,-9.586443859705014,-1.4795272185331463,1.7858024432430861,6.807198864489214,17.679804885842213,27.57447917175975,34.21571790015663,35.33688715093345,35.06644187049375,42.44651082021549,46.49284951491125,34.97316498290303,18.755514093832417,4.022755010600901,-12.155081522498898,-21.747726397126424,-24.21097878123486,-30.237561418755853,-34.805977932999,-28.407288765233197,-19.49026739826572,-15.224812555930685,-7.455072727027428,3.187792926665152,3.2211092130144006,-1.3380178005673296,4.180784611345284,5.207382959477554,-8.153794520140753,-11.927122194909332,-4.307870749250873,-7.9971286156562345,-9.9648580553959,5.229568159568787,13.125573745576293,5.262362313537022,2.13012959633934,4.156281146890922,6.291726771678707,15.41359686321724,16.349827601728002,-9.404427048163488,-36.51944463527448,-33.64071686148781,-15.358835562861277,-7.13971228051126,-4.658072448510147,0.494544483967446,4.514451441035355,12.156289977636852,27.550193605867612,36.90197826705765,31.622840819941306,15.105263428506445,-12.516859816910863,-33.608011858264575,-20.667127454085403,4.655294736974206,-1.7387276948042718,-27.525099695566862,-40.931256019508126,-49.00694763806345,-50.510681652623,-28.26232283227845,-5.470026900038473,-4.882285115622995,-2.8582825664660234,5.3489894677778835,-2.5810470924446633,-16.584188026722497,-26.46145881634473,-40.73227124819554,-41.60063074990361,-25.304240593540325,-21.256216050762443,-21.200974693267987,-11.772457728494551,-13.255572348593084,-8.078962029720875,45.393219610819784,172.97194716821548,344.01128694458373,323.4185775951406,-76.6933664236454,-487.9891221364958,-428.0883410161299,-106.77759126047323,22.44629573381342,6.842284311713929,37.55750944736113,55.101334583389274,25.572745912000553,17.99814504718497,25.99818376980705,19.37257121869439,8.753019184108378,0.7244766247717616,-0.5241635135699556,5.546326232415292,6.430044766389985,-0.26323689283112284,-6.5764294229708025,-5.9734233314710465,1.5064369150731842,6.308811905076837,8.555342849904488,11.136860178660083,-3.3454300148663734,-31.519012564194703,-35.045468156003956,-11.75007784339676,1.8901187779093793,0.17219724176926032,-0.014913054967998107,3.8246862146508835,17.23101826527677,42.09629312060475,52.580417906867496,38.972574200593684,32.76582745541742,43.104385716199204,43.2386885887274,31.911618859543786,19.81233329901019,-8.40194770370923,-44.073273960731306,-46.59838501901648,-17.92872590224191,2.527259863028018,-3.1904223065835673,-29.86346152940593,-56.39909996280483,-55.71406302553643,-31.818168360843682,-12.48343595670535,-8.206575619794652,-10.660772333519649,-11.363572341079728,-9.864987294356897,-6.217862958607026,6.283040229616486,18.76887355339392,10.136646270907121,-7.768202098885296,-6.972605489390006,6.207066103900221,10.972254797620185,4.412122588058924,-5.166658429604762,-7.156325861985481,-0.6790369904923412,5.805030604448071,12.917558112693245,19.035826345542215,11.609856074265142,-5.178116350755549,-11.768205435991527,-2.9420597560793267,8.166555514225848,3.286794990681779,-16.29022353454971,-22.209466607772924,-4.566462965664979,12.35704191664814,15.530380527608537,7.693192006967786,-9.411879106302976,-18.976048109487497,-12.065440585731595,-4.876622899163987,7.667899317407234,26.550137737479695,7.517587076274552,-43.4632195141241,-58.11922962942471,-42.692503275888456,-47.14313591233049,-53.22026419407932,-40.93823596912466,-32.586564048115605,-27.583947609653887,-13.644838504449925,8.229916082325728,59.7177023844368,190.0619792717021,373.2290851721578,364.40291014518084,-45.245268349851315,-510.07350480896406,-493.8850873296964,-157.52561910199097,-9.023353926279881,-16.57508676974331,47.48530653080441,78.59211669600012,30.40870698510284,35.018719089262476,59.0043850119779,38.66871661166979,35.96820122441611,31.976237074603333,-17.30023901050713,-41.42551463868869,-24.240783355777058,-23.909478248794485,-22.86761720559554,-3.5354795676041206,-7.507869703323321,-26.390199942682607,-22.64747226624254,-11.294096818485814,-7.335963951265066,1.8446007821352834,8.88829159458118,1.9664520316140024,-1.9019348246513328,11.247763533575169,28.51552298143456,35.46747144682991,30.436246630008945,20.228997244425734,21.51068444747601,36.315646010624455,38.6305408441791,25.377604789437626,19.272865867177025,9.608995531323167,-14.774580345449987,-25.403960237735795,-19.109653378154555,-20.967618963197516,-26.289780765192326,-26.977316029635382,-25.350894774485056,-11.594020222342339,7.015082599266429,12.386120358189308,4.98404495813932,-17.454836124005823,-40.10759090544798,-30.997121817245677,-10.758240550393278,-9.299772581559356,-3.43251707483671,6.258302244395629,-2.012909456182472,-0.025501278539721728,17.977381657068005,11.718974354651035,-3.619990018556586,8.189160989422291,17.328668717515196,-5.3628693497398885,-27.431980785396135,-18.868781635074193,-2.5497269771727415,-8.340523984170908,-19.87314372431457,-11.504449365370352,0.28488008683464283,-2.858951729011343,-4.754100239237407,5.035550847204197,13.346215415619518,12.52671899256394,11.136877040243396,16.42289539341925,21.092090063689426,23.644804207109424,31.434182142732286,21.92307700739886,-21.62192512960634,-50.640015006233035,-32.021092998946884,-8.361965721717775,-5.397294445876673,-1.9738349474951384,4.317964941860042,2.516753608818682,-5.291123978590038,-16.244576183604728,-26.2693389268716,-31.992625638228724,-35.9133549237072,-39.923970986364886,-43.92134999864438,-41.179006554635784,-33.61288752967662,-35.61525084410203,-26.80186679348919,27.79762173833145,143.25229449522652,324.6607896654538,403.7345990538026,95.27768510304793,-408.971336597187,-513.5050666642584,-196.5444829949077,12.6588374208397,0.41453648959736356,16.439846737983835,63.04153289298195,54.428110140747705,37.17187607227194,18.4490010169155,-8.736770945949132,-5.961933107794506,5.204817678402667,-3.818934315956646,-2.9805724083796656,8.002546103299803,3.2817424602795784,-5.968186597424828,-3.2991675842041706,5.639363980107852,7.673402670112393,-6.226764364175483,-25.65136496084787,-30.64244328056195,-20.432999091200855,-6.8198360343033855,2.9972481661183905,2.988315028688231,-3.60684264565231,1.608855706024773,20.26473164169328,30.23455063754595,31.164626397912635,38.72478770449116,40.89200245546628,31.227027955899498,33.861414114187646,44.367549908008,33.14115795387012,8.809792349757307,-5.96694072848702,-14.050965629456545,-16.70144077967001,-8.315196906316128,2.0570169006378336,-4.559274116242026,-36.506498903810225,-66.10603519447571,-54.65191950854327,-20.406774104980038,-8.034742103876201,-9.506398366747455,-3.846726037286901,-5.947783733487215,-13.872441019555652,-3.120121880974992,12.840580275494474,5.287535415098252,-11.652363580579168,-11.130775219815627,1.2274248271670936,11.540585583585601,16.911275854355832,9.142275407464256,-9.104966418429152,-13.464211419696046,-1.2373794083839622,5.875207063837449,7.098901734971721,10.693942442406954,8.580593049043038,2.5160513788759054,7.932424254186685,19.621194384490526,11.794256903352228,-19.333988679789865,-38.15494274632108,-24.428048865772407,-7.711325444830062,-4.585907741161603,1.9458610974632222,5.064778716217807,-2.823936406439988,2.4795490671836213,15.686150351223908,9.829906516958102,-2.1643261758488475,-9.314206936269658,-21.78305003476139,-20.807088882207076,6.311640218002022,31.626765935309034,38.5807740213868,27.580999244783715,-0.6207745187159439,-22.251328111696637,-23.147135613611383,-25.951627097812274,-38.882977445868704,-49.53471064071054,-52.07547632955834,-39.73203194602017,-23.29412207443601,-20.099632021065062,-8.14111339348554,50.78689758949976,193.79698703399725,367.5674276375899,298.92780503061937,-137.1938278166308,-494.8910373836611,-371.64052753380435,-75.81479885383526,5.88065878881082,2.1190099273206044,57.21608906118921,67.09597616107588,30.248504454989032,26.9098157023641,31.391275074181706,30.166222089617506,39.4308564328357,18.69312219505657,-32.318431411864786,-49.47470475800422,-29.412942220375328,-16.39504443797591,-14.386023263339856,-12.484433797927045,-16.81454790319529,-21.94023630499431,-16.02787637819935,-5.301822876954471,0.22008866164355267,-0.6994557054149002,-4.355854218208151,-2.3100640918202826,7.949016498990941,21.541199931162176,38.069599343594156,45.981442003599994,28.01274521749919,7.767193565897298,21.778730802348875,48.842652741026825,49.81268436113206,35.46564877634386,25.791332570182746,9.68510492667378,-15.132922926284833,-30.957065269091537,-36.36536524506433,-41.663028648045554,-44.287038881865335,-38.63253145912533,-27.791559892422733,-17.23163320227102,-10.979196392686827,-8.638103217455281,-6.082722787295852,-3.429478154592376,-1.937208887319997,1.1488476702981472,4.93239714684465,4.935346459541408,2.3595292610124314,2.691621031882657,6.736176952920276,8.150148797816836,4.423814474779483,2.2213225700706096,2.6056852611825074,1.5673045105207806,3.8488455930994965,8.090621757700044,3.0948893392678625,-5.455073638189708,-5.1234093000472365,-0.36033800675107464,3.964521084470847,7.091247366292701,1.7624494958603887,-9.153997090576576,-12.405348864687625,-7.412761016238674,-2.676079615772264,-1.980424868865265,-2.7534495515613893,-1.0032613620569704,0.2786259046063505,-0.3750491369557045,2.8665853815840694,6.353962911714307,5.609421181371383,8.339822196378497,13.48509878032395,16.791292797340702,20.485709635079203,11.035055628328827,-10.427669288690199,-7.237662017553292,20.048734849573258,28.654470906538187,13.929817225355146,3.4747444336400704,5.210323211562587,0.9540555759137899,-24.825637215432764,-46.884704788704404,-41.00103317772958,-36.172711472924185,-43.161196142262284,-40.164852111233685,-41.16427372420099,-42.6594770564976,2.7501385371928535,124.46365839523008,297.84211010083027,325.69346036449485,-5.610760031198254,-418.7408505309827,-419.38161900518594,-129.63396513726428,4.092226825777388,-6.777885364108759,25.498923232316685,43.46499487196805,17.787724698675145,19.901588159937106,28.26991654176513,17.696791705209428,16.34356159361827,14.320793328862546,1.696801222103141,-1.9468694969396436,0.5803072384437638,-0.9876231351872575,-2.4224442156330688,-4.468565886876464,-9.148552120653495,-11.299885015044993,-7.802846798006952,-2.3817038259929157,-0.22528648100876203,-2.700759476063934,-9.797592832588421,-16.019970722564572,-9.733164806402389,5.240635732631407,13.06613189264193,15.335742303712031,20.79499046602714,27.07466390034609,35.23123572626746,47.043367865795155,52.243787077848026,44.4504678943683,29.330843793615003,13.306163549572238,0.5849658690583475,-8.727811310867823,-19.394508229549377,-31.56489236952235,-38.19161573995235,-34.22090582963003,-22.376978101704115,-8.93947212151437,1.5695916174894506,6.250225073472533,10.159341648087066,24.582398929967912,41.12897087955836,37.812870823531256,17.456572035771543,-5.526654694474107,-29.71083899431855,-44.008294407696226,-38.12535517530194,-30.6716105563191,-32.32837101537301,-29.174100058561237,-21.38945611646887,-16.5849628334814,-7.622710678659438,3.4847587871591656,3.7174141002163594,-3.003914493237353,-4.331107890654509,-0.8769189936003832,2.509234040081518,5.307196018683294,3.0603948037114037,-6.339890860390316,-11.854053474497867,-6.520002857042611,1.7343417608203906,6.189036674658194,4.1316424763537825,-5.064760181012372,-11.237127471158184,-6.272880557773381,3.0277870026169453,7.9011530681235875,4.58698938766045,-3.4133438917732315,-5.457616588314522,1.310731261170491,11.70425750871438,17.798666664201683,8.40805314779346,-5.639018008866685,0.9369031957764924,18.143522057319895,23.237427882791486,19.631512043349844,7.982581151020981,-10.133943625878098,-17.88859930358289,-18.892711199829012,-21.9474520599991,-21.885123704636236,-31.609710298140946,-48.8230609366488,-46.42956462922985,-35.306557814193624,-24.274135202517726,11.71027434107095,89.73047810550743,233.91347388795597,340.2540371929492,136.64864769541322,-300.69398344020806,-454.1567133791935,-208.97493085143753,-2.1987126139814066,9.868509799824158,32.03920497497504,81.0276363155497,60.56967058139314,19.448105710563816,9.548292749726325,6.1282933668346855,3.044115734435154,11.528330933493187,10.758821526867834,-24.262958891942326,-61.08725233414975,-52.19304282378239,-23.57721352310348,-16.35995553799887,-16.9859784895451,-17.901761256338723,-24.45783561188079,-18.999333990729227,-4.7750131232708135,-1.8530070268195598,-4.697030162675581,-9.072024678935794,-12.506443905604378,0.5244837584083131,19.293163946146798,21.877028897366994,19.770249183542767,24.380525322030664,28.362968869912365,34.61389777582595,45.2682097444731,49.71382733884802,44.749936662397104,30.448825346260612,6.258772537118001,-10.401795478865786,-7.592860841514871,-10.746121045163985,-36.71742713798662,-56.87213697207444,-52.404834757423956,-40.08081844142381,-26.001953885109682,-9.77555144775975,-8.394493848798307,-17.846340271503767,-12.027451790046356,4.029896387931542,8.920332742745217,6.750306150489212,5.86109238480921,1.6275202822681445,-3.258163069392946,-1.3171473452082125,4.017675335091777,5.295196731909416,0.47654786646474534,-6.006393660958869,-5.993248144797201,1.6344823777381627,8.117649493274165,7.400837276139246,2.104438648987626,-1.4567276544160823,0.42850852440043385,7.1840346101171795,19.570091043251836,31.262311340040128,18.801405749990344,-20.644665116555004,-43.83928279953919,-25.84043965689675,-2.9457913887183125,-5.09743366243855,-11.10979106337669,-3.2010780879389467,6.41770405550596,16.816190669379896,29.707538525023786,15.791988146674036,-27.30967126423552,-43.616637045168645,-16.043390678470587,11.390959444236119,23.984119814799406,24.12830231515501,-3.9185014599246912,-36.227397319142234,-39.6265467413224,-38.80163181537685,-46.781798105253515,-41.668150319198986,-32.67926912454082,-32.19823410054366,-29.358545191601856,-20.799714540316764,4.514469649272996,65.93592532418953,190.4381937834455,357.3994881769495,331.1382790098235,-84.27884544370059,-517.543952436051,-466.0010289127706,-138.76758342038616,-7.791157392196517,-15.519153236450705,34.869136381812496,56.13145499988936,23.960520772532977,31.632785432375496,40.48965601887837,17.286012535956235,18.364622624582047,25.11522735002935,1.4594963260253664,-9.918224598957188,0.6692905103002929,-0.8300911691102666,-6.192694970590835,-3.264418515071314,-4.844611094742354,-8.463161088217078,-7.803956670476421,-7.283025277942061,-4.951876225951372,-1.9933117544248442,-2.3546551003302927,2.11832725046341,12.332043756194958,18.251626973127106,25.04768030300732,37.93705962920707,37.645733940262126,16.24851512560088,3.717133106815858,16.56295399150751,28.23701761129825,24.321064682279662,19.492180648779435,10.520677710710194,-8.958007935439007,-19.355335426890715,-17.667776279179133,-19.485514119633496,-18.601927555022993,-11.958212256000156,-6.872547067887967,3.831418692910667,2.325359613435662,-35.59340575440039,-61.99254848520353,-36.24746424607585,-10.479564312592338,-16.61127511469629,-16.359486029788684,-2.861248170512807,1.379423533515057,3.6945880630021835,8.875935396519742,7.449610744234394,5.617238560444993,9.440107582766949,14.112792830576186,17.735780215029855,12.763011002362207,-7.976123377878142,-27.301662726330914,-24.781801696094526,-10.050523747882375,-2.228815374541151,-1.7867484783680059,-4.97062255850274,-11.661075543046913,-12.477687816268332,-3.1587756295486047,3.554774816507954,1.5391545873515673,-3.5831591079396876,-8.440055033848267,-7.555596706318259,0.9212379757408147,7.097713267190951,6.265374476534399,1.2776876834429163,-4.814828631308267,-1.1299707362043718,15.254955359622855,26.979393575942353,27.769905300109258,26.768997764194015,21.45014051725015,10.822895942615643,6.06783519946076,5.001504845097064,-3.793147743595684,-18.055001008254415,-29.941928984589794,-38.822107401404274,-51.53966329669784,-66.5075867807828,-59.63524986886931,-18.264249270424706,68.15485209907098,240.07097244472126,382.85107221023554,187.04820107528138,-303.71584807889064,-535.3013038781323,-298.50114429612387,-35.089593243496935,5.457873531058439,19.3265728670006,62.93261531561953,44.389987749820534,28.00645688029056,54.242560867288326,56.6984854969815,45.46363599820149,38.925752808483395,-2.94304349543801,-46.588291846847106,-36.06734107686515,-9.69420809189303,-6.465045775281524,-10.636837955891634,-15.877266344765811,-19.100367881164804,-7.691074390077348,4.448268978732297,-3.3098145612519216,-20.780658148503218,-26.810430412682088,-18.304402836464572,-6.992721302610763,2.109895510892204,12.195209532864036,17.29942798060766,15.806033044876967,22.04864041213866,36.53446910547341,45.36152607909716,47.04566540635258,42.19440930140394,28.459877817816338,13.788855695852549,4.1168339778074925,-2.564457750396084,-10.146565971642593,-26.437842580082627,-43.93810745782499,-41.16387950725374,-24.15198062086767,-14.16471059264469,-10.698245661163389,-10.948687324206226,-15.265701833447496,-10.70100372664049,3.630355220593594,14.479965795734952,23.453315501690682,27.49754150473794,14.80623655847714,4.848050929937953,18.002157376150713,23.429512444796146,-5.205483182728642,-34.557339745406225,-33.07659556565197,-18.84613301255434,-10.90888644497462,-4.184397533061562,-1.474970962091847,-8.267727510240565,-11.651568006198165,-5.069895476714423,0.8243028277840443,3.131132556127808,3.7203976327414314,-1.603519140669989,-7.304604111249914,-3.565562851949396,3.73050702760921,5.311936220323595,1.4589550596978826,-4.911245144539658,-8.399088633166373,-3.3947419921486937,6.933439919055606,13.612306333183781,11.010932637117614,4.732024066763223,6.769907545039523,13.92293613174032,11.978923606108687,3.368537318650742,0.8923095811516553,5.332008287518594,12.096538355192353,26.17372545360365,49.348482145693765,51.987937195649124,4.761936953784495,-52.58173439675705,-62.59850144316571,-47.27140066143484,-48.78636594465965,-54.915310204051956,-51.09365336459143,-44.982470098013636,-39.92855987993312,-32.80097833490569,-9.777551447068044,45.62172346870115,162.82084520255071,329.8666607099346,324.7028529798613,-46.463708596532,-445.37698432335753,-403.79950581628395,-110.07679586663353,5.2000474072043055,-6.658637383715622,33.73940257701123,56.92283571543683,36.80938064462465,37.36281126511101,30.918754236982558,9.873541640638386,19.936990935314412,30.96476927333123,4.278868254517011,-23.59341887740658,-25.64060738018251,-19.353369160580726,-14.78564437463587,-10.190446179228243,-9.264147340846659,-12.129270250206245,-13.800104969579248,-12.451093785188402,-7.754127190172976,-2.013347522181683,-0.7342999104873684,-2.5631308765272616,-1.6207472203093145,3.2619063340605354,12.593242582284866,23.84408297604459,30.300706902670495,33.41999144021721,36.939760912084324,39.94410470885276,46.2412489227233,51.3983135316317,41.70049724913757,24.033713449879386,8.95430570797291,-13.460889776803736,-38.0767131276677,-44.44157297241466,-39.12288356636482,-37.88597087199787,-35.08032642533537,-23.50668735545402,-10.12466633229474,-3.145503523378456,1.4674777410811393,10.149536855273695,17.017882526924296,21.46004849050705,25.725063227681545,9.271236771650404,-26.151622845685687,-35.733245981810505,-17.281037450343835,-11.226998395023323,-14.454357965273005,-8.016788202873315,-3.945626890432475,-4.975403122161397,-2.1609845703394086,-0.19964913319118427,-0.4256523840324249,-0.08877593497521463,-0.17498078544293705,1.9847054675121318,4.356684403721174,5.321404111282605,9.612854942806567,8.033851499669403,-3.1184383223233767,-2.1538492219923606,10.513902783556363,10.814934306140827,5.847995261221842,8.756095601645578,0.05860768080439982,-23.331610091540043,-30.995979384600766,-19.224911679004656,-14.045196069564327,-16.025557877641415,-8.254428360305834,2.98165809723348,6.12852815233313,4.497962292858434,-2.9408516078647846,-11.949362587282751,-2.8829309946191737,20.769068187468623,34.884604630483054,36.2774312175208,27.513760575595597,6.059840825964981,-12.132863205004815,-19.679120016870073,-30.21169663145349,-36.839924517517076,-32.54438091765563,-32.003466374112506,-28.488824609689495,-20.2725645169756,-31.462585978790138,-37.748868569954716,2.13951126076266,95.08924522902154,254.02933220607414,344.84274957090463,97.7029879612914,-345.62588351893544,-456.40121268075643,-189.9312212393915,1.288305146126831,6.209456349352731,25.03758797660018,52.788400846657375,31.787019391388608,30.41075473898038,48.771325303279355,45.46257164055428,41.92944766338209,26.475315714753364,-20.767037362152426,-48.35571901172722,-31.753540535643584,-13.616587427075864,-14.372001359382486,-19.13972177882854,-18.861396309931852,-14.282353131317095,-8.294102960022864,-0.23034314381597953,5.965660001256211,-3.067817123991384,-19.291492604754453,-15.667749006230038,4.319363456420554,15.547726153983636,15.655884218574966,16.940055217528435,26.844365019226696,44.108505171120306,50.499591009285524,33.51090152223569,13.846696892470774,11.554039098522209,14.142056255555076,8.178794897762081,1.170190887213812,-4.903091265162067,-20.134615870760797,-38.89266353934454,-43.95115348795237,-35.68264457261588,-24.824282059832562,-15.837519423797712,-14.11261455095013,-18.233046655841264,-15.42321057480381,-5.455372117153374,4.054393948588594,13.322731659957224,14.440327774507939,5.162033987400052,4.736623181175753,10.468142785241287,1.283438530810213,-10.229803055568441,-9.54253794334733,-13.235510709114735,-18.956309704617528,-6.317209340701763,10.435855504086884,6.904161962348656,-7.020542806781602,-11.820617398516303,-8.324148874130959,-3.055415852722356,3.9317131198781454,5.848034407431424,-3.7307965592513685,-10.55065749627151,-4.58328630998081,0.16164714081982146,0.19454695745047235,4.09702944210573,2.6855972328237585,-7.08003292759903,-8.480587065835184,0.10209059824231925,6.2572455471664705,5.2042244766804355,-3.482359233094641,-13.80600746181551,-14.523539632011454,-0.04457246321880337,23.95650928373323,33.71050162478127,17.094998155170543,4.7932063677473575,14.344066199684333,20.2492536715513,14.906830270420075,8.2040732024326,-3.7261431183432183,-10.26070295242534,-3.588315320502705,-0.2632343180436969,-5.744835727570404,-34.12863080934276,-87.27072315063498,-92.25680933005276,-14.441765321592676,107.54287622068395,273.8624864310966,339.71011942165734,34.019659746292575,-433.4822341482885,-497.4879662034995,-187.80178438749135,-2.305375347977211,-5.114919276733211,25.85571694178359,59.59269863654193,35.55561791688085,35.59153615476379,52.36204110927943,34.062023871856915,20.24496080635911,21.688002279732252,0.5756428873607113,-21.063632698466805,-12.981524286980106,-5.006202349374853,-15.620747773581165,-19.35431274019674,-10.005852271619,-6.595874760620734,-7.002999176770054,-4.523454862644748,-11.643602653163605,-21.310021019752863,-9.196784678906546,9.989875450326485,6.634905016011529,-3.6636429972092905,3.5180007189927913,14.9079663625774,18.583937479039935,25.826676345907835,36.64419124822391,40.50142799903961,40.01381354855802,39.49925184783517,34.96578657824117,23.978471581295384,7.459532557676014,-10.45091178710424,-21.848149478238653,-21.738233898034405,-13.63399425843768,-10.947536400794103,-20.927362503958122,-28.007572943450448,-21.405847814455296,-11.598813858199684,1.3126892595877333,15.44591811742866,4.432930594320236,-27.869835459562182,-38.457158545393085,-18.417118763645057,3.6064533013093527,6.1939209753461775,-12.726412244012288,-27.117395284376645,-15.200029744160297,-2.7421091818798295,-9.781413366243761,-13.225659452767037,-6.405658041064097,-5.788827206131941,-5.775047427168079,1.7734583477403136,5.031803267435049,-1.4437543929808783,-6.663936372438004,-2.6210746441024693,3.5564809380274016,2.6478220780722426,1.0322589160048676,7.091586499774486,12.882169171709457,6.39008627281736,-11.508090939238794,-24.931101938691224,-20.993744707491178,-11.33892809643285,-10.121406482436353,-8.835666428741765,-2.00888313220027,4.496846494868558,13.532405934326755,24.527085724360592,28.617752314082313,22.47949354663372,6.748129456274959,-4.5161616363101285,-1.0206485860707715,-8.095487121499227,-31.133275361627568,-35.6720361663068,-29.31872218831957,-37.512763736168,-40.17373179138456,-29.18463912897679,-15.480636576990094,23.197151299487928,130.19701066856462,312.5670176775024,389.44629928289055,89.19226034014895,-402.78602584193663,-519.7688373559369,-221.64425124784475,-6.317051513420434,-9.365469563236754,-1.4354191918992925,34.73093847640848,21.154233893027595,15.518948962999858,33.45318205013315,30.44345437409737,22.68506462078295,25.664421955714115,20.886570419968855,12.930734479856048,14.174449551780832,13.74992272452669,3.102214842933478,-5.645496313800175,-4.37477914603288,-0.38309535542776185,1.88729140278644,-9.765641416883833,-45.34134255661713,-64.50677689487209,-36.30339083348768,-11.028759931018218,-17.83743414540345,-12.404087971081319,11.676931504008907,21.535125931335585,26.60745756460286,40.08795943165313,47.8942080685059,48.58315046655442,44.17514190219966,30.090540006903016,16.44727527097957,8.66858628811625,-3.463590203124724,-21.172750425499366,-37.05284483899162,-42.12793191427494,-31.72843126244264,-22.808902577957255,-29.292052695901294,-33.6745157379303,-24.7413046579167,-14.549820510791113,-5.765661124202426,0.21066976117304392,-6.185175255525278,-11.590692827653402,0.8211223643381751,12.97330437146034,10.613973555334184,7.984386665857539,6.188676768746007,-2.8350812887040946,-3.4550402171547248,11.17776013267003,17.896613282235606,9.206443049405516,2.507866307658442,0.4472577633880772,-1.7471623931492561,5.403744764690908,14.233215080472783,-1.058172235632087,-26.907808603462357,-26.69797858072897,-10.035062075320102,-3.7665280690621232,-0.1421895479251183,4.282278662975289,-3.974216386381041,-12.937142438092108,-5.720941363812194,7.725534891785762,16.09561837923035,17.798393572490976,15.932229126831427,16.393572648130757,8.933243698030788,-10.838550500076675,-15.81733700425558,-4.268416623934289,-4.80243920040613,-4.794003863221128,18.138468037633256,45.84617146763023,60.54182816178921,44.34436453385577,-15.471976259925277,-67.27568786905971,-63.23123468593745,-42.03350436692699,-41.035017373486255,-46.92674680339368,-51.64490255111556,-54.662225162419,-50.74715129944728,-34.48561580400755,7.103558373991746,99.41340258740591,267.5594580287138,386.58163389380616,170.80448990818837,-312.4740949885605,-515.4994581172805,-267.74686742241795,-29.88611130038791,-14.602808051304024,0.9700967277471761,56.279913143311404,43.503045649441,19.57110054450466,28.662828762800817,23.565923002936636,15.931652790953727,24.17614079674083,18.193226712133786,-1.0233372652090962,-8.11094355119866,-2.884977733213617,3.320033471925702,5.005320577583445,3.4487602058581546,0.4078223659495319,-4.537895505610626,-4.968707245781145,0.6535399194966929,-1.9089254888761105,-15.882392316174343,-24.421648829990172,-19.692019280816318,-8.570249994740408,5.832027814392667,21.051393468653593,27.239460398429834,24.420728712794272,27.719981510823906,41.07628977748419,54.58425464742198,62.44491787677834,54.79560438568926,28.62416044626581,9.564572025399038,4.004833569618112,-19.043917250147356,-51.240702194792064,-54.526844549962156,-44.40644411546519,-48.17642454628268,-45.80543553092816,-27.505820806366387,-13.662848165894827,-7.692689081991716,-3.875715990312573,-3.243908803249629,2.4797399942193556,17.359003190826975,28.10892166197162,25.201352405532354,11.63588601570598,-1.2627363108209386,3.5264316265330855,23.055794725131605,21.905674855165543,-15.07782405726387,-46.592283801889245,-38.7436644469972,-16.903782436751026,-10.176395669609304,-10.479522650854449,-10.940760743645725,-15.26717580255017,-14.451760956382746,-4.3839882199892415,2.805406708582588,3.0259974905801323,1.201068569329827,-2.884443494764299,-6.611515697990071,-3.7557216440930676,1.9101736482740441,2.988965572463479,1.1463186025419683,-0.6192934938832977,-2.2425760635218883,0.6426691331135307,7.954597407076835,9.2716828092024,4.672290192896778,6.763436194328358,12.433066229535491,6.618791890377816,-6.227240746625289,-8.686031544206767,0.048893504317191416,10.12517616163664,19.40468212400735,22.20854003807083,9.069993873900586,-9.933907485765157,-20.248963548881264,-27.39032558497727,-35.10026904741127,-37.028124656537734,-32.27551830239497,-23.60119722902492,-20.691081518815228,-20.413862164714786,7.579689744497838,76.28418053851514,197.52713373737018,336.41456546688295,256.2841017537918,-164.93875398605417,-498.52020862684674,-357.37260217591495,-66.02642129462302,-2.125510995608412,-13.264247582986073,37.01551481668625,39.68884924190474,16.050083268063005,36.4637322344912,38.28348438328102,9.721008819746302,4.390792486199633,10.747972457282286,7.922760265261745,5.323559238001293,5.911088641945672,10.01079359957068,12.896511165351571,12.320174792731539,11.672140237882077,-7.397132380274751,-43.29833660269949,-50.988155783413944,-29.471412534051034,-20.559463946291146,-21.363441620565283,-12.951831620879357,-5.381555492855435,0.519728244050647,12.782314557245394,23.980515465726953,29.607473470196055,33.20953399162846,38.51452972602704,47.85213878663699,51.83868445299031,43.10970189449073,31.167464625807987,20.053763154663837,7.23737568827504,-3.770044265924315,-18.745294075424106,-40.51610789523783,-50.73870347463295,-43.89136336993348,-35.53041729406873,-28.863317374222564,-20.273922474771368,-14.509514402160857,-12.496431819451104,-9.732938192545916,-2.601504829177923,8.021421063689647,13.58866155289757,10.68853364756692,6.370815013458879,5.322707902336733,8.934661836095962,14.437817783114067,15.925039506525602,16.473326396076835,12.846227856303646,-6.841939631433224,-23.834346369694018,-14.201001907047313,-1.9264722936150447,-9.132830391131982,-14.55264026997326,-7.178344406037024,-0.893938360385834,1.7681726044465533,4.581263936684113,5.0775052028931995,0.928596044932914,-8.01800915215993,-13.380543874035123,-6.766088056499784,0.20502211743572651,-4.850895503228443,-11.664294915606765,-9.202108898622665,-1.5508551038277525,5.7704976137907575,8.823486425427525,5.309784579622444,3.681740872444529,11.017407382020911,20.288426613604713,28.407068506812237,33.60748749223379,16.67320111447462,-19.65456776944252,-30.304145241511737,-3.0109190907162136,19.16626390525009,14.434404777895628,-1.810280720200545,-17.654014031285598,-26.494464012045338,-26.552509041787673,-26.9916798555213,-33.83327671105931,-40.800805275018185,-35.335368710347005,-22.630122750350917,-22.589334963271167,-22.891686639672578,8.772943277864186,101.89584450162752,263.99220528299963,323.81312692857716,42.43433837171828,-371.60234358405137,-426.9130691289531,-162.67952337289182,-7.86230702416611,-8.482299653729068,23.55712313008589,54.10572030273326,30.322242806651516,20.91432133005379,28.57713650933102,23.518723975367287,26.901284549306666,33.74186421851644,25.21024121194378,11.905441720705785,-7.098872787818452,-30.08459441524882,-30.35396261270843,-13.562118865130422,-15.11204866480332,-28.201213439746127,-23.226163800713188,-9.717729404999634,-5.201955719852307,-1.1690752357427763,-0.47993940426755,-12.899377490598685,-19.243923119264075,-5.29531607611923,12.597486696062681,21.93817383337366,23.91227717451182,22.494727659635632,26.3307257768191,37.78205583887664,48.91749740885472,51.16379690316319,36.95614429703624,12.347248352158214,-3.4766801684121766,-7.899895320676164,-12.67506934929962,-22.003187502127393,-35.0953490372887,-44.076969108928694,-38.17750388854447,-23.388668753537807,-11.358778448213512,-5.294990067156622,-8.011629633831522,-13.34277196283355,-7.758129432839706,6.869877084443485,19.445008771711745,23.97147065628465,21.31568497703941,20.85257438539997,23.0119091414159,18.3619142643616,11.499778959405596,0.07786904601996802,-29.313532258051048,-51.89095584440884,-37.54582186903979,-13.632431328392046,-10.420494897985346,-14.822881700052683,-16.665871183217888,-18.880657877956523,-13.735222128550355,-0.48834973623796607,6.311943045214598,1.0747816806583081,-5.611265702258964,-3.9109803151998714,4.669408419297142,13.633119851006294,16.906353640980193,13.3698148211059,11.287957055127805,9.105707467392469,-6.623170277507665,-23.19038845247389,-18.253004470489493,-7.918483604884184,-9.769179248736513,-7.575740692292665,2.8775530633833704,3.7252044114697593,-5.655113521582502,-10.316493379977105,-2.2541025850371517,12.669031697259225,22.402418513970794,22.385404175187205,8.302675743890982,-21.549712862218428,-45.818104963666,-47.62729993341762,-39.734542684080054,-33.02150651354226,-29.955615615701113,-32.41936888749787,-31.750162736324224,-28.62042751065437,-23.202130389083727,5.188917974698789,64.69865293124761,180.70723538239847,334.42301377006083,281.37752893268856,-127.03796829619097,-482.7309072716243,-376.0668338681994,-83.12688800146901,5.139333049134436,-4.654257501686377,45.11305076125758,65.72254258480882,42.836074391465544,51.64819087058456,57.4725755335451,28.09015840067627,14.430064320024561,18.140543683532158,-7.005811452685254,-42.7439647781029,-44.87514007838417,-28.373739403698778,-23.08943263608974,-22.0210427248973,-17.705957288742212,-17.941963546376066,-19.586941324218806,-15.296028373108,-9.517053566364183,-6.838973747774218,-3.5963673528146387,1.1332754002019967,2.2843655815977826,4.681898148586583,18.115143103019797,33.19066895826775,38.81364358804733,45.906642185842244,57.624175000079795,55.80457070304709,35.15888067790807,12.85082698500218,4.326021028171221,3.9654850745574812,-6.236413428755806,-24.06581879034445,-33.06087114746914,-38.01379532110047,-46.43532230757489,-46.50940306561648,-36.852695664734945,-27.289589632834556,-17.883463664211913,-12.56083257999246,-13.224152645492314,-8.216516266933436,-0.28448112191736286,-0.08225803059482573,1.6183436133077223,7.361776721895463,5.093790289119219,1.5211909200327223,6.846309326125764,9.290729387927657,1.882858658806958,-3.746503352846473,-1.6553853559484188,1.462338626043565,1.6881030427646058,0.3786326921896319,-2.724393782446918,-4.713409306663476,-2.047142893430414,-1.489575186341388,-3.278015305754558,3.910645970180923,11.35642257204911,6.219961417255768,3.6547361168672943,5.891344744460021,-7.152232924858002,-21.95744538481439,-12.724647704625266,4.794147977025668,6.902954412633923,0.604975987561029,0.2534004938917196,2.3662449513317254,-0.9570059252047636,2.2648128827458383,20.108933559691252,31.937177051469114,33.97737061013338,36.00148475425988,6.767029076714451,-53.78576761001973,-73.80336980149391,-49.09968091298819,-45.90654525286489,-54.7043412607259,-43.14020260708908,-37.931932576929846,-34.50857150023222,-9.880039495014598,6.570362870103825,10.465541558681757,39.03491050475799,133.33139230258934,313.90232295584946,379.1714458656025,34.17552786278232,-468.2577408578601,-527.7948809284094,-197.65688583350664,-10.738513327585643,-22.32148267511357,10.686031530191464,51.39296743805669,30.137767821154906,29.759694305678906,45.59135249112981,29.97824931543439,16.869838481419958,15.700752095930723,7.150335927730323,3.5862691902263975,4.307880857157761,-0.008382240051220347,-2.095537529971363,-6.207804909024414,-12.881492960343198,-10.314639113578707,-5.956260708430327,-5.8236801433614875,-3.4351394711403116,-7.7871141046695875,-14.427512066182052,-0.07695397159099215,19.18634069516252,18.733966803150093,18.2156724260827,25.564505584059123,23.51673834715244,23.47507594315003,34.206149933326955,36.73907860587444,31.6459924363066,27.077638429262212,14.500231187520834,1.589891926749842,-2.2308041835476082,-10.296594012372239,-23.453604422698056,-32.447541541555694,-39.672265727875846,-35.626279453859546,-14.877473492937453,-3.61279933222737,-12.155332195489741,-16.987392731068226,-8.617922980313713,8.08659769707624,31.64090759780064,39.37447190356255,8.672207156810783,-27.88786950904517,-25.559375065982586,-1.487610349220354,8.619168687007889,12.25536644348049,16.860613903042402,1.6007052856017907,-25.761385783613513,-25.38839416618697,-2.770178054365612,-9.741224990287726,-45.69290776672969,-47.00603851422436,-8.113053575487282,4.375519353661886,-15.185682890120518,-15.396864497049188,-5.808901794599874,-13.725406373019332,-10.251194452165938,10.099925354262195,10.179823468331763,-3.5840584638743804,-2.5247593581724086,3.1277070294943066,0.686357867055293,5.149626166013044,20.948156606972653,20.532430606607527,-8.435017819473408,-27.07347696778814,-11.430070276590723,4.691575455701855,8.109005121227598,18.27170172033229,19.235629153267297,4.995317823000638,9.678515504438273,19.031926335261858,-5.017057029826576,-33.46781881588771,-37.228979028036335,-41.55946557890091,-52.3653629872933,-49.54554340236625,-37.455077819535276,-32.86753005204641,-41.7383858583248,-44.091690208665625,-4.022012807820829,100.21928366781772,284.5712175860575,438.6494927873142,253.1192544319285,-279.32268503801066,-575.6283982462267,-327.59965794138276,-19.341179514646523,-4.68858313546253,-31.458511064716586,39.10550141093567,53.45708891411512,22.218723502498374,36.40695123077327,47.971638985588825,26.554071112486458,12.567190981320385,18.88686112552591,32.66485468488641,36.078748084073325,28.723545893218436,28.4105032249552,19.118646169145862,-9.698822833133796,-18.993682029905596,-13.79428262718229,-44.72674236186269,-85.77302226479563,-75.70850881927888,-35.04931042128513,-14.13595372809856,-10.704883806443371,-6.380138216197264,-2.241102285482188,4.470952937140667,21.268083337625686,39.29012227406299,45.31730126546536,42.87628518248791,42.53066606423553,43.56368086963607,35.85156550304586,19.508774278558146,8.056815439214262,-2.198271233914056,-25.340404213229174,-40.5719308848388,-29.570394143524815,-23.21318053449213,-31.59226165384147,-25.88301822965227,-14.525912617233416,-14.154571628033366,-7.293223801774976,2.8140653736369243,4.610889648383435,6.350916648690308,-6.328789644772229,-28.488934665320908,-16.48911785756886,8.465567675979027,0.5879613067618195,-7.050843807918937,5.425725142999584,4.609412480407119,0.17049770636912687,8.258009368625217,3.601863603433282,-6.691646826263457,-1.6932694276811628,-1.197830288240616,-7.4264955020646095,-2.9642915880698313,-3.133080350274627,-12.414264979290547,-8.602548310074834,1.4111222906913912,1.0059681641382736,-0.6564440222838471,1.5684412641485699,3.220264230199794,4.147165448402847,1.2905788810913004,1.727785682973776,15.757669475261876,26.41717768112968,24.07428309647081,28.031528059220904,28.607073417035416,-0.04191901100141138,-28.14244891424704,-17.248789595615957,6.68630455442608,10.438763953458274,7.820296416154557,7.35413005158118,-9.03810548002259,-31.71262568124095,-31.034710122431562,-20.306685271537646,-29.986446988374784,-46.983045562285305,-50.516228136438656,-47.24998358214976,-38.28540165117239,-28.90414926743908,-35.975473175376834,-41.228065351237746,-29.24145083766095,-26.329606801977746,-20.02024421591684,40.16299996612902,180.25333645491747,375.0164360754455,409.31611259359664,36.710822660991866,-455.3240411665233,-493.2824665020612,-161.65822629790836,13.47981947473833,-8.297851790856768,15.222949784137867,43.89935385813657,13.160939885235653,12.02690318860293,31.44294693752499,17.011290734527314,10.32598845887954,23.09603165397971,16.932966567266874,0.5830947973645992,-6.058171460434336,-6.723160437579757,-1.071341401595633,4.666140610785619,0.39842121006109144,-6.951487686232236,-12.370394103038523,-16.82122626053055,-13.771996698201637,-5.280842881737274,-0.5068505210277277,1.2549150697608198,0.1751786445672412,1.8871749247281837,20.284726592026864,40.244858098194506,37.83405952911998,33.5175025134917,46.529547742347944,56.25176905484007,60.30337229153358,70.10038134131277,56.37599796474974,4.902571043702856,-37.92878561564017,-45.73409234722687,-42.59769671115441,-39.483888607707655,-33.661720114322215,-34.24321162411769,-34.15694489364089,-20.956321137106286,-6.675462885748151,5.500613913284918,17.28920477394086,1.3148347930948816,-38.368709042554904,-46.53283928356135,-17.86969085954819,-0.13139401872943424,-2.650528344219879,-6.945570348780047,-9.650919192225148,-6.3890666178342235,4.875752897241934,11.839044043113214,7.957563363446534,0.8503244278743214,0.5814783346926382,5.769361617926885,5.486731411836379,2.527940526195019,5.595721684110444,3.282070839103694,-11.425587139697909,-19.232125901788336,-7.875485390651418,6.8783788463476725,4.802573191252529,-10.927399375881649,-17.679132856501123,-7.1525425811546235,5.4276553717420875,8.063736591854338,2.4174519975490094,-4.1631340929790905,-5.86948317603618,-2.336420205503825,8.615044136585647,21.61641161869217,15.111014341393057,-6.955296780121066,-11.419270516206833,2.766449331667284,13.543275235296043,16.01494975895406,4.455563137940652,-13.378433640012167,-8.59026329156587,8.549174243273725,11.191833920465772,11.252170579440012,7.842715747833116,-11.37047141409599,-19.67682905997935,-12.71653071879111,-18.137804285007157,-26.49176378226181,-33.92348472820726,-55.97992592732129,-66.26936542686727,-48.190310510995964,-25.005870883155445,7.02396494544049,88.50800455231183,257.53971493418516,393.286119632763,192.50961891215255,-297.4965673814695,-514.4063255271448,-266.10894361478256,-22.367565918176965,-8.567270045540113,5.966770440258067,65.16226870795637,52.176082552090016,24.57447431741346,36.741954827664344,38.97266519644702,36.72380518941532,47.56927388497903,28.189620134955256,-22.76042479428155,-47.095393488233654,-31.811186808947905,-14.13631852762886,-7.07537040512719,-4.794763928360297,-15.367079272563146,-29.87680424326241,-25.20109329913381,-9.910787890292028,-3.255608483201411,-4.925658098061545,-11.259212039347357,-11.969415188288806,3.4739406351376942,18.853386022643797,20.149034778255036,21.529651913434385,28.741281006515727,31.668422820365862,34.78407622048992,45.75818938262509,52.76350799013318,42.42130711205105,20.296713319160972,0.9041921089378757,-9.155318138339211,-13.511544158638038,-19.54717939694314,-29.57769239588411,-36.316557302193786,-32.93193599554401,-23.08870333213617,-12.89357471699277,-3.7112712242411003,2.4390304029049954,3.757350726589039,3.925401183578325,5.765434758663769,6.744722193038877,8.281106550046546,13.5513774671068,10.913785203288231,-10.184575180285204,-28.8596691057288,-23.042533717734074,-10.245988700422753,-11.103053655931722,-14.206650972797929,-8.835263029954461,-2.4805466793614013,0.018687835507353867,-0.42074047149997273,-2.8130257535209875,-4.819608889571761,-4.861905081071533,-1.9264418226826687,1.8857237989861217,1.1846409471569306,-2.528522616550992,-4.457044363788053,-3.5554320779321444,2.1709546758416374,7.937587174591969,6.233283895002929,5.062661101068105,9.493880060151675,13.333486568108672,20.58136167662013,26.305573822884085,14.989579507909415,0.9022318289225779,2.046977810583887,10.394576056988823,21.22066887019323,19.51319790510934,-14.128457482055005,-46.25522808087195,-44.60514498894783,-36.95150257830335,-34.88201062085968,-20.338109763754986,-4.242004884699837,3.4996444877173634,7.221488239837748,-2.2540982564931333,-18.109835173508486,-24.100947219868303,-27.948996710257163,-31.115063544447345,-28.826794700381726,-27.69940288085258,-23.252024215464772,-18.933184921477817,-21.602762136096604,-3.046993194471959,60.517147956023074,191.5831081535634,361.2769230475037,319.7804784136181,-90.7039627382599,-461.27878143542534,-369.0415381670114,-84.40726112898895,3.6845216201122497,-3.9498716889943815,36.993749093665045,52.09780625261784,37.79868239244501,35.263710405502756,11.635829607778348,-16.497379978609985,-11.542607194071717,-4.519010882244294,-9.368943326133625,-6.243418378034491,-4.338363645801525,-10.493550203645047,-10.177814817701035,-4.920707632482119,-4.050303153342282,-4.068314495411638,-4.6662470014682995,-9.665091387855949,-11.613490440166663,-5.3842406466454875,0.06442805418922415,0.6993203965114096,1.9168395046333835,6.0528353484075605,15.047131628482418,27.81530189251763,36.19562398342396,37.96914359233811,36.25589048249187,32.94157075549158,34.804367061426866,41.878571535288984,39.81183503400243,23.83113906163468,5.711886348470575,-5.524447053623147,-10.44350061460926,-11.0718960128991,-6.936443303137551,-8.586670446249897,-32.41850505790708,-59.45195724144631,-53.44346156462678,-28.366718903052565,-19.532759167295804,-19.935219196436385,-14.579356623612025,-10.624886531242668,-5.498579891038031,5.753802224292895,9.889678137847103,3.6613338612905038,1.1589469274523774,5.162195467382108,8.621789828075402,11.584545600632605,13.363360755582402,9.182584718797258,4.420382674518907,5.6530371773632755,3.150976307551604,-7.471008900096025,-12.103403024562933,-8.126317229355719,-5.138433831581981,-0.0320165041524354,10.094840483332822,19.75226405523151,25.695761079840935,15.911266053569447,-13.332771183667111,-30.17130345309565,-16.162230982498702,1.2316536550124022,3.6021254212554368,0.2363735400014786,-4.656038343281146,-8.114156854199138,-5.693182043259156,-7.437241768904098,-19.36932079820117,-28.504792786664794,-26.458605021827836,-18.500186846337172,-9.73582194116882,-4.651629538566583,-7.751759640477751,-14.886139412062093,-17.628235001517112,-10.671976769935881,8.350895203277638,25.843380927273124,19.676449292326996,-0.5760596636991249,-9.941456311369425,-13.283612945537818,-18.134854314104558,-18.342379646495502,-23.017874472107636,-32.895275824494874,-31.7417918521099,-23.233104551820166,-13.23494449547902,-4.125846457716666,-7.217058569387696,-1.452912000995589,50.06839480102522,171.54011804294987,341.95454750466433,337.91190843832135,-47.681673983795775,-467.9677842216961,-423.5887441360353,-113.96235435230093,2.6000865955440737,-13.033540622496343,23.448038117696612,34.04656923284698,10.05662097949462,28.465412604542458,44.29411310143019,28.88835412497414,22.164779961830433,18.12125964129903,4.2480232285906645,-5.4778634166499565,-9.307021416033217,-7.313428311956802,-4.919099286161247,-11.287200208835515,-11.472689101797311,2.4102505943817465,11.410190428926049,10.980560607709112,9.728781180628165,0.47108361213563565,-19.963072461041588,-31.326682786945014,-20.27304415025425,-5.666978241816033,-5.450021033786001,-4.878697446863614,9.664219131632537,25.912034790330594,36.33838418021463,43.59842083699938,42.72519126882254,36.48746352724665,34.772786609170716,31.053849964496298,17.547848117705055,0.7920152976995487,-15.321415707481329,-27.62821914598461,-26.810549112310387,-17.826735559706904,-18.737136038307717,-30.786499878495036,-37.57860412411349,-32.01808074128344,-21.674407072706284,-10.906908127527647,-0.21326614308972847,3.344322936826117,-0.7455704134871883,-2.0504010772143086,-1.1491046071930673,-2.1823367175284103,2.7443773356190384,9.368871009304046,4.384882621089248,-1.2805093265593657,4.1738825957779,7.815255639140622,5.787256391913391,8.553866727638406,10.763189896099187,6.460075299008125,6.154226819405485,11.214043858353241,11.524545142864573,10.147337185486878,14.243104757758438,19.544237012343675,25.78916829204407,33.51694289860196,22.62002715018755,-18.62872807205508,-59.47929838645639,-68.28093447095448,-54.67481227421574,-40.07301417994745,-29.390978830399703,-24.787446885701883,-27.069168908935282,-22.70235234289051,-5.114377692817381,4.675034981417509,-1.5596313412580542,-0.2547295559281295,5.167049854180966,-10.55669255760829,-25.451143830388727,-12.697574926848805,1.562497811907928,-0.11425162462415805,-5.034968763807747,-13.126830605622473,-20.5736579907865,-20.74923571825979,-25.545851968250403,-31.540909282094134,-27.448174211499516,-21.49319332538032,-12.891522945631168,-2.9043631338691194,-1.4549155893546333,11.741426878577023,67.73752872311707,199.00432850893412,359.49381070301007,284.6641827354128,-153.2134602626448,-515.6112595920439,-400.7855146030063,-103.08436835927947,-1.04377833221411,8.022277625035137,50.660580194367114,51.859989017888466,27.236312084735943,34.68211923426109,36.790668904543416,22.934251559664794,18.43067216130551,12.323570690695224,3.9135818255582033,5.841352448488321,5.7354672665020745,-2.7765047694101,-6.857512340622958,-5.291092307637267,-6.59960342846624,-8.094530141862656,-5.287027726538246,-4.707731695723039,-6.506131509937402,-1.8874921430043266,5.496394044047704,9.823115859654134,16.32877356094475,24.327764427252298,27.2868334020788,25.068045536239936,25.643862540082196,38.96517674578759,47.76348070688531,24.599849301674496,-0.9328248193153774,8.98967296626041,19.213383901569703,4.036356945101315,-4.7884736287639855,-8.282377803823618,-22.364339852512504,-21.963865098152052,-16.561096720077316,-41.272921602659125,-63.489420679278766,-48.5494817809998,-28.974686459080303,-24.780331457198322,-18.34945404870237,-8.971357414452848,-5.527574157582098,-4.402437639385457,-0.9250645687656078,4.968528460865581,9.726823328588612,11.802271561079047,13.328338634480415,12.382529245618773,10.463201192207086,12.680464623918883,10.126709638814194,-5.81728223831251,-19.332961776304007,-12.454651415482102,3.4633191212294445,6.554318568198547,1.4887862186340453,-0.23343758608324983,-9.070421745740656,-16.182787055234506,5.365888161767613,28.135846963128923,14.025932967556077,-6.209969117219767,-9.457511571136967,-21.711824270410705,-34.214007023526506,-22.404096597929275,-10.666784609671309,-16.464308199680364,-20.80483972019006,-18.806056127764677,-17.9342511088666,-14.286897983815036,-6.406574702099277,-1.0922898619800385,-1.2016993243875111,2.752480886836609,16.887263845822797,22.168265371542414,4.359746420078397,-16.078817707200287,-22.96053551136336,-27.913332659420625,-35.55403515003099,-32.3424957081848,-19.926022714884695,-19.53594954546152,-21.179524984788916,12.902023766303937,92.32351750704876,234.5830808797645,399.0517983974048,314.2734714206173,-162.28019476099598,-565.2888648197309,-436.0052321024208,-87.7885710320284,13.232273129008775,-26.739148765151334,3.652355909307289,31.880107866273196,21.53796654131443,34.15538295703669,42.00273095189006,18.924696972224915,6.094476089628809,11.066020736305491,12.862180907940903,12.501729670201268,10.686758930735214,4.865584147661984,3.701704989608033,7.358082842617236,3.4953494166760413,-8.406786059924517,-18.578100239971395,-24.138055963659525,-24.11729447732712,-16.112665047949502,-4.42211487077517,3.0875657279318958,0.793307314562218,-5.982393895686311,1.4190986676582718,23.848280251410053,38.68842880104873,41.89868769112912,41.994501428617035,33.410349717444944,24.19837343582948,31.29238896849703,39.35123908719498,26.722229343548307,0.46239397834700924,-23.376008088791618,-35.01402602269094,-33.29016289824089,-26.018770847012497,-19.44113236193939,-19.94039113248744,-27.200405800591618,-22.12585568074392,-2.3625114607548454,6.336012253783794,1.3319744152377009,-1.7077793607661427,-6.627890630155955,-9.785825849530273,3.2308884028552294,14.676739687877236,2.960220877606675,-11.15863650829867,-5.860461105534393,2.8783308253310524,1.6201397871205425,5.032635690997883,13.929607578119086,6.206529097596393,-8.498118081841788,0.6210063043749012,16.8935286658938,10.70402511001835,5.198642581117072,13.575918779362556,0.9900895305668875,-24.206345301141994,-13.07980361875341,14.594097096125424,8.616110648321857,-8.06305792601787,0.4703475545452154,13.684705213785502,20.251934724236826,29.115060192567455,15.49620439272612,-22.590848262032225,-35.24379605545976,-22.305693029429847,-27.50380542085835,-40.99568677122312,-41.772853488761356,-45.97558355182838,-46.64833730558442,-26.860065842562545,-5.13288289235056,8.908176020752977,16.646679492263956,2.4283460633327714,-21.015215849438682,-23.167240787590035,-17.03555517992726,-22.439333017639647,-28.95852742414998,-30.814172958068024,-31.147669796085346,-26.21971606789733,-10.43114409681008,20.904491340869278,89.51893782434458,242.7241435797499,399.28386340417734,261.4663153848287,-218.96458181363747,-532.583067995491,-352.8367638407708,-59.89878181439313,3.8388460477165047,3.9373635758290284,59.76776351269157,62.174554207909935,23.534990608521518,21.167837177522046,26.705918079164142,20.954508813448776,20.068760014238006,12.989338336712095,1.5945202221923684,-1.678241147230191,-4.914188429147988,-6.609817001887002,-1.0060717078323906,0.8946371869208978,-1.8524160278533461,-0.30854690378231986,2.1118632643625945,2.2920841810632453,3.466712998540398,7.364332358947308,14.699768562091917,13.148216458759137,-7.611772001779177,-20.25317446347237,-4.606952879746779,10.368896203307468,13.65461951413453,27.815347943575944,42.17668003920399,40.96153178261258,46.102601081446366,59.97541741392459,55.14097785382819,31.838171217262406,12.223263610340748,-1.0014261185240212,-25.87308097191907,-63.46303620080152,-79.9415561726243,-62.272820583549816,-44.94011840760131,-41.919968808591705,-33.36367706573071,-20.044336112898158,-12.179082848484704,-5.840883240825082,-2.227633659969438,-2.0919981360169935,1.0812786491891835,4.3372521285666945,3.6716089769978173,4.710984672236948,9.699084918555396,12.27866751441848,6.649868714949578,-0.08983420094755257,3.477242425826318,8.662670873438023,3.8192476747289006,-0.7707972838335386,-0.3149692959821384,-3.86917773738526,-6.6518982232210995,-1.9508516582563715,3.02479840520005,4.17961253241678,1.3170967693330462,-5.455030627324751,-8.040471848651437,-2.5791325349895304,2.524790105822853,1.346537553548145,-0.9112810644536247,5.1001991676949565,14.126899626028722,9.544314572552668,-2.3936028558264253,-1.820731043208501,6.692826822360954,10.48105212950676,9.621746234086729,3.9342157301953593,-4.5047054199989205,-12.387097504692786,-19.676126385230475,-13.096616359853234,11.514033787189199,22.520586275195384,1.596317404490872,-26.95207544138667,-39.38341961562648,-37.25609824404235,-33.112502786224795,-31.079592037664447,-28.757166840977312,-31.315627628220362,-30.64660642633551,-14.4937294315843,-8.886266504168734,-20.30471472141684,1.0596232027645414,92.62182074975047,265.0931657903579,400.2856643153319,212.8299290772713,-260.1265909625447,-489.5565630095095,-283.20238085624413,-63.60040696691716,-35.73858539083973,-8.811238534474057,38.49912113390478,20.002064402414998,5.273343078060191,23.288440234940573,21.208556119141925,16.297131558842402,22.589940567264893,11.627804865374891,-3.1249155712767545,-1.5197739023326058,1.5500099079439975,0.46692166129171175,-0.31785205857304,-4.633908962812266,-8.603614069850684,-5.387401086772338,0.8557759132593006,5.016254681292509,4.226441759658872,-4.906458108217184,-14.789387641064529,-11.707980784979082,1.901466079626374,13.257023855427569,17.874502700420777,17.619236882848448,18.658957465115147,28.569094896695926,42.68707021111735,49.140948784950325,44.30500436052433,31.291593731722372,16.732511414304877,6.97653025090052,0.5481833030225571,-6.908891204125642,-17.343576407602757,-28.955995674116902,-32.67106256340859,-24.627443069901858,-12.292182384648102,-0.2404147107936252,3.053133156353491,-13.052660184874128,-30.413641352851236,-22.554260455361643,-0.35284365436759924,10.072104089546375,5.527678533430334,0.4770631175764031,4.435741797670148,6.792329298477531,-2.3733764830820974,-9.013213502741813,-7.187047141957478,-10.994140404779355,-15.913946422254533,-8.049841776776734,3.949604229089732,6.2841931572737835,-1.7466943135807904,-10.327877772212934,-7.777027149674593,2.4062153104713424,9.302622810932718,11.50008965879675,7.929389026379551,1.5263982742500795,3.2694302384076757,13.121570453219102,24.496293410837723,26.844498104699454,1.2331512676842316,-35.51663151622018,-36.843796319438134,-10.369395715207341,0.8788195025369818,-0.9544282176981209,2.023047992628036,0.528741337276081,-6.852437680953237,-4.422814305771899,5.86117389011262,4.730040418336989,-8.169341007092637,-9.636228071799621,4.66102931106285,15.075622016901486,16.24837726637791,6.862898238034617,-19.65424980351557,-40.881221987545985,-37.10695807713851,-30.743147061751458,-31.41642486326201,-28.7183291717644,-32.752774059187615,-35.99795173719707,-21.962767273686797,-13.111186146769404,-9.681781400524166,24.365589821602292,115.7034916869471,277.5313643272773,359.4866612489781,98.84430397525071,-338.12107107404825,-425.9526651678153,-156.2276367654513,2.866831243910706,-26.110005212799717,-8.088844749811997,38.45108180266783,22.402258908866138,11.005715676964387,19.787849980297267,4.608731493227772,-5.744110207538883,3.736101816816406,-0.10764688163261482,-13.009061076943485,-13.174622018537953,-7.16174281999737,-3.610714296522061,-1.9127854917679699,-4.4841550492982805,-10.482021867344276,-12.538964940117035,-7.327091799923104,-0.5614495455142681,-0.18100193204618664,-6.243607301699724,-10.493021172784555,-5.8159284136934595,7.5960330273780965,22.287269653145913,30.711236365750228,35.09875508956253,39.93117105442081,44.68291799672556,56.08917768031842,73.17404278176801,65.94403268994587,23.266501153861856,-14.347627825435026,-18.388930577994067,-11.624999701001615,-22.137563893920106,-46.859076726289196,-62.541782772470455,-57.31020667361745,-44.660247625736325,-35.47563415805408,-24.476365712221764,-13.567658257088897,-9.496977143945966,-8.170854484312216,-4.749803239334464,1.03205223783967,6.962721954369769,6.950959328986561,1.4984250289585992,-1.2199319483380986,0.9088691430775739,5.014455866851846,8.309656918473925,8.154503421486307,5.844082744067528,2.951269009858831,1.1247444103827968,6.6667403533197405,15.889220451948436,16.719520298155032,15.011154786461017,17.721431902765836,8.033713716735226,-16.686931614620516,-26.999709705662895,-14.790109320810938,-9.520312482318456,-22.93722081975685,-29.916537366554714,-18.71282478746452,-10.494571140264389,-13.66953314083017,-12.161594907089922,-3.7645086722192342,2.1691307009091907,6.955755545167033,10.794492578483702,10.574707605767449,7.061665594342607,-0.7352961531433531,-7.0606583791151305,-4.619646631089996,-0.5012651174078742,4.36707068480407,13.043598980549557,13.068196930665327,8.858473133788348,11.433606279598658,-2.565728093005582,-31.995381436560038,-36.37771868227619,-23.863627975948344,-24.81952881668527,-26.371727515101853,-19.74839697074342,-10.121825088807697,4.455869741931215,9.75043461136162,9.052632794159495,24.067425474675943,66.30633143769651,188.41552523704942,319.7468278264491,150.3871326994909,-314.7035017858462,-529.2351998266424,-286.33907161606254,-32.68740832164956,-1.2860860284279667,8.049058584386302,48.08982687914556,35.021233492519364,19.552213416596572,32.900685419970046,30.456629010468212,24.153749251247213,26.656482616284162,10.431738722486259,-11.294696658519248,-9.519181693859622,2.431556414385787,6.55133796878495,5.152521382057115,1.5351296309739324,0.2864731654958339,7.737871786909254,18.33553304522451,18.538498170577192,2.568028965546275,-19.939128526355585,-31.42187238034292,-27.953251987468626,-20.02059084375039,-11.487361285898249,-3.968648520618017,-0.9974437269066865,8.386836489460954,28.75154242404505,39.94266125283841,37.77986081708147,38.750534649262526,37.66388210180215,23.009819318031454,5.470438801256094,-5.6889768400248295,-14.062730377192668,-23.01457677903683,-33.40417705424205,-39.1374963680181,-32.95105196122188,-22.292408589293565,-16.741853681208962,-14.791697647748514,-15.025786615551628,-12.840546883064857,0.6510234967723374,15.016588979972726,12.056631517012534,2.3819046756230087,5.465391346664822,14.791849441063988,18.640996449657873,16.15992947572561,1.6720337357343702,-20.376950789473202,-25.04393245776849,-8.443648508935947,5.078970588321734,6.1696886225309155,1.6437787343685604,-4.18393731407234,-3.731682501361245,3.8938891019973374,12.524726746352188,24.989230530075517,26.564517841064287,-6.912596173798079,-43.738901047545355,-36.7433069191677,-10.380585507417942,-7.336008507400555,-14.276825269682973,-6.221002142034898,5.418183824689012,1.1013980638184453,-7.772836287363502,-0.835626639789087,6.238402080183948,-2.242601327983646,-0.1878296653343967,21.431376286804337,35.48911810264243,35.736628204103106,23.330886753179755,-11.209326434708572,-49.59962132288679,-64.51247476216354,-56.49158745903033,-44.21364947344088,-48.61401276436066,-56.8697400383928,-39.868990523801656,-21.68272718857017,-18.339643107980613,11.731514359763167,86.61412508424868,225.48143417340145,381.57329966226354,272.41414777186094,-200.86387650846228,-540.5281035305054,-379.13169259708377,-80.5111598504444,-3.0162894435314307,0.8896987279452304,51.90020963592962,59.26321482773862,33.620726925242664,30.699480012289353,24.80982579606867,20.366150057919228,35.01835686969343,32.582861463287784,7.617525656440724,1.2226489515091243,13.120705781144942,8.066829000097044,-13.515414029240759,-21.31697483501719,-14.800704675318602,-20.301751572636334,-32.395383923246136,-21.061979881879818,3.9077805985622254,4.618821880565494,-14.498990066090215,-17.583396315521075,-2.689027374154989,10.037158737136075,21.376950725842807,32.266387087717696,32.492874438913304,29.99623585204601,38.00569246231707,50.374071088520274,56.98349844262121,50.39916248608296,27.937531599093894,5.114283251207262,-0.30798438034072184,8.649080130877923,9.435960701268387,-19.786229580267392,-60.33795305459807,-67.08958568933289,-42.032940201665404,-20.445547697987138,-6.2017758991601415,3.607002302061092,-2.846723288608054,-17.223866254915468,-24.82813075477702,-27.668506286770487,-24.374704309411868,-17.059695533407805,-17.17569488976332,-16.801889660199457,-3.5545491453357183,8.023286403913966,5.607688293784133,1.0559378607859031,0.9616167897479988,-1.3393311610365846,-4.5880596564812866,-3.082348942502705,0.48894679412982267,0.6961133151589163,-3.8542747011270944,-8.834884710541449,-7.05147730348668,0.36627744292467446,5.163048609256668,5.102158924609262,2.406874475223027,-0.2238742493149044,2.468739535582389,8.496824056273082,9.031571984593567,6.920491822167972,9.778885830912682,11.502127227672366,5.5900291009760945,-2.010658658879481,-7.443354344867478,-14.4687688256666,-19.973740204009708,-11.763246228817206,9.818477089102554,24.179121129825777,22.45169676433074,17.71095265275286,8.598884673603811,-13.790174468185878,-32.68656717644049,-37.131594605685606,-40.608166459993065,-45.002175611706036,-43.931506756014016,-37.39449577019835,-26.32201930260358,-23.44548221060226,-25.254589421640585,3.851026224960819,90.35085042401778,252.5283448302851,392.16767925436295,222.94517387250315,-258.5729485638554,-521.4055825227148,-303.49467708820475,-29.31706876662246,16.370382183774858,27.273390744786525,77.58440242161659,63.50278565767237,40.18332552967494,64.06169509566944,54.70292567336739,-6.699279013431298,-49.19522552501792,-48.5371863235426,-34.077838739704845,-27.879676315971608,-26.71162218769072,-22.265930594993105,-16.451610076771367,-11.218230351373125,-7.588657628947907,-8.395335855279168,-9.836481288553433,-7.592516759355652,-3.372379348764305,-0.42070887174145755,-1.266242847210055,-1.373067767562564,3.4862627163117317,7.027011930543182,12.273486085612058,27.03987846780774,37.86103871237346,38.101895551923164,43.23291550710806,51.62499362018805,51.68171039798672,46.70004196811661,31.231039732832052,0.5598062732603255,-23.695946368070867,-31.459571475619196,-37.31298706443013,-40.747797544936965,-34.927306575580786,-30.06603007955439,-29.542719437204966,-24.454589050546787,-15.92866128916452,-9.431890778212267,-4.08885734787206,-1.0853138676294876,-2.2110517448136173,-2.252732986209991,2.5522505762198886,7.456245144786241,8.43551049427467,7.004796226606575,4.2855153243140816,2.0926773733686104,3.5718642013069486,5.599591898951206,3.403166648859625,-0.7133591925863029,-3.8680595419478814,-4.3376431314345485,1.4385618060019345,10.276115044254057,15.293546622245803,18.28262842385595,20.814912875257175,17.789030706389564,14.779802130560359,26.877029124776303,41.503472108363496,16.920104072491288,-44.83122406827165,-77.00564666486545,-52.95198489471498,-26.469236781331865,-26.264683798017266,-24.65970166703473,-15.572799765847817,-12.107770149516366,-3.975698152606503,11.339155342752662,14.646266210349491,3.8847132555583492,-6.008419058716623,-9.126569094566468,-2.346131143579803,16.40826103180094,30.52151682311177,25.785705359044982,17.47491770004581,12.257056133068126,-6.083598157343473,-27.320742808605022,-32.81405405391918,-34.78346656731205,-33.12944751220966,-19.1989055909002,-14.569327876016825,-22.824166173771133,-26.227265121968973,-30.08924807269107,-23.280251532914015,34.41620475357642,176.0869656498998,347.4763313779265,296.5096769881949,-115.9589352605779,-482.5143050539657,-380.28571731650004,-78.63690639076091,16.425629723460705,1.4151100217072958,33.22089372766981,38.511036400577055,19.347695404787185,33.79571686295039,39.02972423458071,18.781135004741984,7.927737003006654,4.235622213196768,2.5289134363462997,8.87945716068268,11.991341307213702,4.285948543749765,-6.434632866312117,-10.526815294642077,-6.705110741863441,-1.265183370512843,3.1953491220181,0.5598142940015935,-14.696055099085543,-23.509829163221507,-11.466389603855244,3.9562724374498863,13.779067392248338,22.51392428386044,18.367324280481803,3.4173879489315535,7.224771829160737,32.535805242227035,47.22350908035827,41.341520067786654,37.30173709599103,42.314524917124665,43.04638904235306,38.775971480899535,24.17139211682538,-19.000958906697292,-65.61639498711394,-69.27257502059872,-46.77520662930037,-37.113081456948976,-33.852229886633225,-29.096005270399154,-29.151100221604285,-21.789654708494673,-2.8320735849113685,10.747444301835708,12.201336442734064,6.624330831422453,2.728252771048341,4.549214033098703,2.1180156864324022,-4.072302664492718,-3.4442232290876342,-5.181312641195024,-11.488509994821452,-5.233114124190728,6.304976188242683,6.216286739047133,2.113303723854461,-1.9817914410793334,-9.368724546417564,-9.186462623544584,1.0126907417964643,7.22643598361984,3.814515835727535,-4.805681432263698,-10.803251796162126,-6.530817660291078,3.467635844538095,7.694962637925906,3.842222953631415,-2.697582616645934,-5.9502758888339224,-2.635233531546392,3.884328060893945,6.409302536628253,3.3300691437256424,-0.028999892127474558,0.25825848902572,5.936868993456941,16.802214914549076,20.267685051490787,5.243978907129575,-12.020120977951596,-12.826580641615426,-2.4988307766951436,13.140739378479964,30.861222300389045,37.17897757483948,28.955754037594502,10.256663107735694,-20.87181998903219,-45.827249831297856,-44.84761084453781,-40.913611499980746,-50.10742709657444,-48.204270465318906,-33.2531264331299,-24.97223046878565,-16.601883026738598,-8.638167420074318,-11.516293648962773,1.3260549927672258,62.429257536495,190.5073451665497,338.2940841571983,276.94245210365136,-119.10195686918465,-468.96029004188824,-376.63104584321025,-89.81646733835966,6.816090701281308,-1.312033142291149,31.969729905993397,28.871408899387546,-2.0711200675978,13.450673096640703,25.924207278700223,7.873511397632037,3.8669563650681766,8.398677969854859,3.619911921352707,1.5738308757637594,-0.6527529197206743,-5.9523511038835375,-6.996950663092718,-7.157586838036247,-6.856764408311166,-5.450864458612429,-8.007001116632733,-9.399466589831693,-7.512984370634044,-8.043874971619442,-4.783084453221036,2.665936151363045,3.418436806462788,3.0567019477943864,9.994872235406348,18.279826771400238,25.374310532980036,32.424458923469665,38.71014769887945,44.73512936996639,46.28122847427915,42.63661830142229,35.933439443872665,17.453686304925156,-6.523037206103593,-15.107932198758958,-17.66865893778142,-27.261371455835814,-28.66163642841766,-22.908451503792715,-20.665790324802387,-9.404145964623888,1.4177710707202031,-14.330146373302556,-35.91942247709493,-32.711107929302585,-18.160282228524736,-11.458665433886527,-9.814920238885762,-7.337032448366534,-3.3516552703040077,-0.7318037232491514,0.15839219332327747,2.648332729429727,5.17770585237387,6.383306398193337,6.86201242203231,2.7431149823307557,-2.1658873340008316,1.0393686523653232,7.882867740265376,12.272607960956005,15.871198599716175,17.66146850298545,15.66985704654076,8.726326178229646,1.1890188335714131,1.1272078663025162,-6.43459480346004,-34.26041972660806,-49.0598760992663,-32.32364008320151,-18.211423717779947,-18.632359042988305,-14.550623424029876,-8.123092575845298,-3.6193756142374554,3.8769507543018786,7.900592929471894,6.19710491594852,2.05779052124012,-5.70943511169348,-8.555679029712683,-1.6003894979140902,6.079386644840639,13.322220313411668,19.077641567175114,18.108737040141516,15.833316324739467,7.220763973296922,-15.65658829864504,-32.552703160153385,-35.517433982086125,-39.78568854146777,-35.299499138718836,-17.96112065522248,-14.294622428900219,-27.50705110380658,-41.11574879065958,-39.471877986924724,-2.0744543345366715,71.87665183567674,200.55917921874214,353.7458871152447,274.8341001555161,-161.01763940096598,-497.44837511345486,-349.2000875206201,-68.84296533282746,-26.396431287838347,