ECG,-3.290204980439306,-22.02140456622964,-37.87346104040249,-53.74402262909031,-51.39097406652934,-40.94011439187231,-39.186065585077536,-19.23309222308429,15.326492242717336,127.81924192295561,417.0268129406944,535.7541150155436,39.54898733051732,-571.4945770843434,-517.3131899498254,-129.70178907492829,-57.1203922563017,-92.7922521003898,28.205507827318083,73.16761452494646,13.084049723286045,28.881173939981235,55.444401936334415,23.836982649404515,11.57744051064362,15.86861970816682,3.2782094008865705,0.8595760841377693,2.2803980231661836,-9.158201185928014,-12.787079576042853,-7.118396338005768,-6.60790151678278,-7.235752926149932,-5.421511567129045,-3.566297218353281,-2.184848017263814,-3.342103370459677,-3.625494520077499,1.7451085287096082,6.616524726931044,6.736483170799808,5.796659221570094,1.9127353417452353,-5.411921446328332,-7.405866258192429,-3.681839226619468,-3.280542368381644,-6.26465885603465,-8.476779298120803,-11.296088818890517,-12.557551392845847,-7.707762862127649,-0.9955043676974578,1.9096698301717439,2.5026503750355635,0.538030613210223,-6.012184576280289,-10.538853944845545,-7.668014390941947,-4.237209659890704,-4.268246623690839,-4.259204066703319,-5.81116786735352,-7.384867402640195,-2.290367529007426,1.2819283983992271,-6.519956941926363,-14.890027501001754,-15.268774328750059,-13.411947483125626,-9.908119683384594,-3.812434842594209,0.31388860988048783,1.6939069120018395,-1.2699954994247769,-8.2842585364348,-8.82594057948912,-2.8717724491688434,-2.033065328573395,-3.2523679548966733,-2.3983669894191415,-6.989417056787813,-10.4856921141994,-3.441318517578998,0.5915624915238435,-4.6627681608565705,-4.991387460126489,-1.3846145387603883,-5.3334403602395035,-9.400773296330376,-4.8054521460468775,-0.5178408748972174,-3.116270863884747,-6.524313564170017,-6.524022886789917,-4.790203506426845,-2.6460245076133653,-1.5037686638519663,-2.3452203840300445,-3.182390396252247,-3.7257994511337023,-5.989404357669702,-8.099914761906078,-8.52276971345615,-9.770947585428694,-11.424313329682308,-13.331225152036936,-17.45587600007102,-17.27770674753571,-8.60068198925757,0.11089225293294813,8.742494635736945,21.598044625378094,26.78853925462851,18.05985205811733,6.475905615209866,-2.346441043993727,-13.491356003137426,-32.11113017246502,-45.69469413448556,-39.32464483065624,-34.4017240768465,-35.831486202294855,-16.678983377795547,19.19850348313217,154.24120881857706,444.86018138707055,490.41911772371,-51.48784212813753,-578.6826487472138,-440.2096069736823,-88.85024257019714,-66.95857926147848,-92.1227589168176,28.305005558383147,53.260867808551644,0.7764476479126916,25.432278692171806,43.39193061552919,14.774838336797925,12.210132187121223,15.03461636662569,2.7732612552878253,7.435841562226913,12.486000350890654,0.9063322720109319,-5.525176853745023,-4.648289612638429,-3.3761512445882946,2.6938497513256543,7.220159833679915,3.108861505612496,-5.9946161279986745,-13.429558654904088,-9.863509810297554,2.0940156356714468,6.909285430664786,5.80806446468951,6.468924267527687,-0.22088918406662827,-10.892744290003886,-8.239293473579554,-2.506786116004844,-8.767295114243867,-12.286497876884958,-7.983886696049275,-10.874594666808388,-13.493521998868175,-3.723914216574622,3.693847599159545,1.4116612387593204,-0.11635372917579012,-3.4837332979521953,-10.52812008876614,-8.678604992329777,-1.1046657463631941,-1.4194148222066403,-4.692950124501089,-5.232460256565891,-7.891393954821658,-7.897440759324034,-2.002784275649579,-0.37787805289876975,-2.5593873388948554,-1.9221310247749344,-5.595173313989927,-11.760259642187377,-6.686589234983096,1.7347780552080616,-0.48985902126718983,-3.2588995915676513,1.4100136779341277,3.4474886823293653,0.412927467021194,-0.2559484386949977,2.3394761979727745,3.8570055911184316,-0.1969896503288986,-9.339122868936032,-15.64210231109321,-15.442448412131668,-12.595004880198314,-8.356415186023828,-3.7340538423511713,-3.303073012322608,-6.508982050849241,-7.0100723294257,-3.186612535678772,0.3240058640800516,1.821281086210969,3.6303126951198568,2.8117149530895826,-4.256638417210969,-9.487868250046937,-4.955094893307384,1.8069682990587221,0.3227896868911806,-9.6346434165331,-21.00744509182456,-24.44681362629931,-18.310899044730046,-10.27319344150916,-1.0917537908440202,10.890936500835073,17.025808919266076,17.217041709503583,17.306233121785,7.857420977397797,-7.7420871940576514,-15.61042587166485,-28.58551940045119,-41.32147797317566,-32.617087639657484,-29.897216850766974,-33.89730996924161,-11.155781670034358,40.18027464412626,231.47885700024335,555.9147943184968,484.4928807967549,-211.74776082478587,-702.7689757309125,-436.1914698056538,-69.35301593390648,-65.39439443842865,-52.47698036423387,74.04491033625317,67.85876037647472,13.37804579644714,37.513894742669045,37.531562983006204,6.390372348256055,12.17267935503748,18.515427474984698,6.192792088786143,3.2275996557588194,1.229837279806615,-6.458713427258033,-6.637277240407656,-2.581920830420248,-1.3682713198323806,-0.10486519932442562,0.05640383576318708,-5.324449325445562,-10.69978824730238,-8.169501534497186,-4.299963350990764,-3.87913573795634,2.498834134683374,10.529247175227274,5.947411951910685,-2.0786885289373833,-0.8319789931170671,1.679885907190343,1.327505361604949,3.0061933471797007,2.6969631686560405,-2.020765964010904,-4.199566736584358,-2.4129460218657472,-2.1065143705771163,-4.610829662641509,-7.677868084601993,-11.369926835834644,-16.0488280448954,-19.30313561019853,-20.366516305760705,-20.250384329524852,-17.4177413424979,-13.439559361183916,-12.321176632766658,-10.2709209116388,-4.843976428310675,-2.5119794573370964,-3.0682735512556736,-1.409589915921769,-1.0160581444919856,-2.446694713756613,-0.22525141643579083,3.075409721447067,4.323464033779991,5.486921178421731,2.5923160169817496,-4.431644100493579,-5.084579433932818,-0.4131134772014189,-0.44787885317477283,-1.753296101662995,-0.9490529512216987,-5.523150607077461,-11.274949091956277,-7.675851959136129,-2.850957661452723,-5.811054860911225,-8.36568428861123,-7.342110025755677,-9.240134033236927,-10.801716505255547,-6.609947172606201,-1.7763015612798423,-0.5663825689359108,-1.7083381759938412,-4.6017152010568605,-6.6523478159725915,-4.716625041449887,-1.6418183198750267,-0.5211534087894201,-0.5122171409819654,-3.8288744936239354,-12.002979648758702,-17.933190080051546,-18.056989762134542,-18.602741521905163,-19.46903925863314,-16.087650104536593,-10.939168802774017,-1.3898465383609464,15.062594928389183,24.631073725461984,21.283026885901265,14.13363269308758,4.0842108774020405,-8.880799824894483,-25.314117878927703,-44.73500291585911,-46.79204425610256,-34.90993316135263,-32.77472511917013,-21.69635113935064,4.4856158682856915,98.08261126143667,378.14596150794523,567.0965671087878,146.4089691669023,-534.6116627251167,-594.5789063965792,-184.58120597802792,-46.789276913142544,-97.59580714578131,11.634496681293616,83.48933309112678,16.58518670729443,11.541470317344015,48.52955124856129,26.991086603834486,13.689736046695849,25.95909307744308,15.18176352396234,1.1829596011527599,2.354121703383184,2.676217986199893,2.302302411629464,6.651371032165613,9.84831843770197,2.029338862586826,-13.18973028234758,-16.483556418815024,-8.691552039931313,-4.9044141144761255,-0.7511776698636634,1.1983932243214142,-11.466790932706273,-20.857345734461827,-10.76776235952387,-1.458725475198971,-4.27773231523957,-6.704479105667019,-6.502119660101119,-7.736586176491503,-7.059162435168945,-4.698532318695239,-3.963054395292776,-2.9128405767330534,0.4701446505869775,1.6269860687431095,-4.849700925032771,-13.399395885158006,-14.318723549124726,-11.722386810214438,-13.813609711533713,-15.821540907735361,-13.114070390839416,-10.949477013290583,-10.918856376488382,-9.386618562486804,-7.417486965495424,-6.536180721778191,-4.312806202451533,-2.670037495036638,-6.735526454310223,-11.443095886622078,-7.244221626432465,0.26673760898907695,-0.6745051646902631,-4.8709698593095005,-2.799029215143239,-1.1276805613620944,-4.5194134730199345,-4.071600236725022,-0.5712331860954176,-2.7275096591977164,-5.002775879836028,-2.9146957842425287,-4.276948135737374,-6.515426918126667,-3.0997418292615695,-2.5040503834574857,-6.884666668248229,-6.522316130597549,-4.082309550031228,-5.099594847407018,-3.9057118571961045,-1.48237827362804,-4.367191545516004,-7.579028390491919,-5.084329124137435,-0.5653801915112915,2.4809712806633986,4.494065565048227,4.48455126396378,-0.0219571177051332,-7.935920994826537,-11.768289353247148,-5.938691636092788,2.01528704395853,-1.0680460637806029,-14.122961689296831,-21.793609942683787,-18.82696226241596,-16.54563453476389,-17.35167737548091,-12.24118354586091,-4.30335311117742,2.213331849434019,14.696750044765018,28.467055712970552,32.075379746763055,27.186969520346324,12.289344778521707,-11.65324973939941,-33.62358689220337,-52.922798735346916,-57.303243409427694,-37.809410439241404,-29.71766399323252,-31.78649637478126,-11.028986842041789,33.8637676854367,207.38433071538333,498.8698823024471,423.3258661085496,-204.26668938482462,-622.1610306129528,-375.0940293748723,-75.02580973873815,-87.05586005904169,-57.57563627456091,63.4707075991827,47.61008700611275,0.6685653496297705,32.8678595736948,37.06432016542858,13.294546944322018,21.587592273082336,20.45847898203185,1.047726244580188,-0.6027270154104851,2.4975471684242114,-3.5923536253349226,-5.7332159668514935,-3.4896962252483448,-3.5631774749793728,-4.586126992621924,-4.432604458834605,-2.8703280298265073,-0.20433959424179804,3.250227901424328,5.407264807250378,3.0303387617945967,-0.6502120816252117,0.7257028970199455,3.8114200302224477,2.7331892147892036,3.048141069168358,6.980190850797445,1.9147905607556766,-12.66021319425408,-17.907748557261243,-11.323097322728225,-7.239712285090462,-5.615880281247571,-1.2699079915870106,0.27341660001069545,-1.7306393626542906,-2.082140245381817,-0.8903112561999844,0.35451091260300593,-0.6957938209345684,-5.439438941316553,-7.770473209030175,-5.021974316851302,-2.6703849075382387,-1.2343258806631852,0.6244319782761512,-0.11544761939605053,-3.0947508301101347,-7.046870665524984,-11.113639621183083,-8.783382934093524,-1.932058728067764,-3.7342500873801576,-10.960235989363651,-8.999381090186546,-2.299037195072902,-0.3414050560215447,2.2362163043911742,4.204858510328853,-3.2564302795738724,-10.087194009390291,-3.7931665702621316,3.639830383432849,1.1188110453479805,-1.9259469630683075,-1.742244611226699,-6.084511135623995,-11.227284624746709,-8.877297665642864,-2.571631750612795,2.411986754220262,2.6301255442056846,-5.5623457675859695,-12.184636994414047,-5.754185681468121,0.1502056264547882,-6.604930186230563,-9.953842503553663,-1.6906421357110357,2.6129934402203077,-0.8261181240928765,-1.9992135052109656,-0.9369896661081931,-1.1465784861654944,-3.417067332761696,-10.96789354180208,-19.142622529860542,-18.381967671941048,-13.17720734539046,-9.253139840592134,2.469562095757384,20.839239400206612,27.747026683234616,21.327790752448674,11.104546496787632,-3.671243210732844,-16.395018016216344,-24.366289922899995,-40.57403999503015,-49.18285984421811,-37.50776884390861,-33.55598592966167,-26.692846176067945,0.6147156459151333,66.9730707741565,310.13339014464503,608.3288748253711,374.71682325827567,-377.41963629306343,-699.0752986420098,-323.48731453655046,-38.9881088037582,-83.21463257990936,-32.769986794937296,72.9849756094915,28.973117007403836,2.871622542936956,49.860858500496946,36.262268933750384,7.871885576156405,22.959624372451287,20.128108396264707,5.245363545272513,9.212010756378604,1.231884342382111,-15.35408559640981,-12.494014675118283,-5.310450660462214,-6.910301832002215,-6.341886908455704,-4.287505577979953,-6.872760064550368,-8.140858788422456,-4.1953059746624115,-0.8073015117977338,0.31894159761217056,4.03343891752519,7.942318246686332,5.67593109125684,1.4162752388985633,2.397425515627084,6.2710284418624145,6.044047655365514,-1.7295756219910885,-11.453066393801036,-12.296454936230978,-4.880531479541293,0.5897800418960051,2.2613207054109896,1.4396880410579502,-4.6813717562478026,-9.59358308198999,-5.080114762422708,-1.6105688641554465,-8.10595071745222,-12.885973341666777,-13.133332069222487,-21.237190331750007,-29.531906383535226,-23.444744594763865,-14.836556161689083,-13.217438634720082,-7.812180062006206,-0.6536132006990503,-1.2338118520766912,-2.1379840924612026,0.4800057291687896,1.3456995577368813,3.941125303989416,6.7728779013003795,1.8626493139068856,-2.874185834562164,-0.5536199494604421,-1.087000554060344,-3.7350628415323524,1.0284707696568889,4.458750017827531,-0.689610587103612,-3.5615942227398794,-3.7250240171903943,-9.663016408267211,-12.244823522664166,-5.7149186940485865,-5.258463391709805,-12.719421067136796,-10.55958531932568,-0.0725253499012748,2.0279853349465053,-3.935525663470976,-8.521990047123344,-10.717645948194987,-10.091419411992758,-8.058576390797988,-10.568372150301792,-13.641769174938666,-12.96903111360867,-18.547108492591967,-25.933449090430752,-13.010946878442073,12.349967204959814,23.074552988855263,22.127368518038207,17.304798402275498,-0.659189213906421,-18.76948620060672,-22.93994462346719,-27.828067195523676,-27.324760119387236,-20.020380265703714,-35.15793851389323,-41.61439834076224,-10.040473682294575,52.75880457958418,273.50323231440757,571.9252998805409,375.525928407223,-356.4837878701559,-695.5355633438313,-330.0208870416983,-38.119873640359884,-84.12996528697616,-35.426419881858294,80.22613873776488,38.05659354059938,4.905764717894984,51.61014796259323,37.89725672501693,4.922175957002299,20.464820706278577,19.118637005655145,0.36474232067519097,4.489382862082783,4.06875594345827,-7.408543128053196,-6.417588044296262,-4.603714947702565,-9.193435564772296,-5.328368613858405,1.3419648189636142,0.26602169991159696,1.4200322291591227,6.472103185246109,5.629886374983105,5.038109138621044,8.27434996391469,2.741419867252934,-6.605176172197625,-4.804632578762323,-1.0615067651346868,-3.5753341940911127,-2.4907368677327,-0.7688549406934921,-7.225163894377339,-12.120256547123196,-9.032185906630403,-7.110295393841328,-9.487305940220345,-10.132945510179216,-6.432845134812343,-1.8589222510149064,-3.022717429272273,-11.33501145027956,-18.335944668545423,-17.45364863571167,-13.067170295683892,-10.90647929796133,-9.484628615162062,-7.7597001106492876,-9.601870756884185,-13.063878480702531,-10.633126341646982,-4.048313290583568,0.05656824477463829,2.116381035852595,1.9309231890217387,-1.7429530575600047,-2.7295332638386984,0.7256521309068535,2.2567018166085653,2.012492975220873,1.637534158294157,-0.8982253883566029,-1.525503837984111,-0.264662936822166,-4.925435987111456,-9.842036477163262,-6.921435252521054,-7.070357054052385,-15.020268433899538,-16.63028497217114,-8.765635330679038,-2.590172933135438,-1.8676459030317787,-4.815449598410769,-9.217785087377631,-8.701564792552588,-3.101886476583825,-1.671389921286611,-4.452888026013413,-3.0657366930290912,-0.8367156019424158,-4.714646580879236,-7.63404688464947,-4.169642454383295,-2.5689551867555256,-5.612380478086131,-8.193643297615601,-12.104172582877005,-15.01771562351083,-8.782373362814452,-1.840700000935886,-2.528901450531917,2.0963909801993936,13.491697614956585,15.677764380728206,7.735645525277386,-4.591762161935803,-17.672807223481,-26.03232743837971,-35.56534459953922,-41.322386842113964,-33.569140910589105,-34.379943465717446,-35.41349817725166,-10.177869278641854,36.199779024373385,209.59981791063493,504.58812709575835,431.60558369698805,-204.76350625737808,-627.7973291944248,-361.86787146691324,-46.72953959504656,-77.49257515554687,-68.40549984356115,58.33069308570735,48.16985619075979,-2.502920575651351,34.709431034302916,40.70354748262346,3.585293305246984,7.211267683108857,18.116151742433658,6.591236012948251,4.475048523127917,6.945774091050444,-2.2208299967382654,-10.119809273499289,-12.05227890612813,-14.259492298773353,-12.883373355448901,-7.241026869776691,-6.7089570578792355,-10.316549789995516,-8.280523839058326,-3.4360887661897586,-1.5193242357136363,1.6374039360923351,3.5144790142617746,-1.835516883947987,-6.904293222589313,-6.578137327872233,-5.666683679219258,-2.9630941862682363,-0.028236322049853158,-6.166146044789032,-14.398730412270863,-10.271351413753518,-2.0839630087919243,-2.7093515775838313,-4.472852560517159,-0.15277448399017857,2.9403403564083543,1.4754174520105794,1.4478311367319465,4.654222099626013,5.050977010719288,-2.2230313156533814,-12.871046142485067,-18.60970742144805,-18.89027968750758,-18.49869890032375,-17.233833487509415,-13.076616016829362,-9.697526715523287,-9.779905653096947,-8.538314573627037,-4.087499443100397,-1.8413197308973146,-1.6319696018128216,0.5337863997065497,0.8920326919834531,-1.3056921529924672,0.4524981039851941,2.73215145793153,-0.6464466094974108,-2.7782989517667938,-0.569307779525821,-1.67070718930096,-5.029472588123728,-4.2810333589213485,-1.897704837058697,-0.5349898568487568,1.5177198948094084,1.5558070255245493,-3.7945000605877874,-9.236875244802215,-6.906854498765987,0.8834077189718013,5.186489920161825,4.579430000466525,1.8989269410133156,-4.470793744804414,-11.100140696343443,-10.492798507668613,-5.817322590147173,-2.6728072012884923,-1.2923868435615349,-5.386314679293923,-13.26625823776731,-16.377533255447368,-17.065377374881347,-15.963371356610232,-5.90303421294809,2.9210912991511138,1.5756490606761737,6.362295133537069,20.379069553648982,22.02899024216685,6.937793013501648,-7.914294773672298,-18.816925578909483,-36.239306700588074,-46.57816693350391,-32.54170891527301,-23.118710762948883,-24.903472207755545,-4.915088943908643,31.74148736116345,175.70234449930996,498.27270065216106,560.4678439779434,-42.358730527885626,-665.3104079911221,-544.9953912249432,-131.94023473278475,-62.49387860141805,-79.43649627819059,50.516218912807176,87.15352926016698,26.84009768173928,35.828563076007,47.336504409048516,16.65110866944508,12.472363801088186,17.049361115303256,3.8392393248768215,0.44620364985887484,1.0672507351655334,-5.073369977464158,-6.280950927582082,-6.50063683232199,-7.68993524368736,-4.725653629846154,-5.346685907314759,-7.633268420652378,-2.2604182239506345,1.5175986755092485,-0.5360240077587499,4.330169457296203,12.068943510365795,7.543287863425226,-1.3828435483632227,-0.19720320813518244,6.058236429934628,8.49800154239965,5.362313940935062,-4.538527427263039,-14.994027858423731,-15.348069841836057,-7.969180088481509,-2.091471895653685,-0.01060873633368864,-1.8686627705216807,-6.875761787099911,-9.685281373302757,-8.095240645168706,-6.3446411672641325,-7.691218415628869,-11.862733378934525,-16.299036255269264,-17.028278711571243,-13.75532491715371,-10.70683294948971,-9.089683570883198,-7.3037646810453545,-6.399007033936037,-5.341323463696954,-1.5424545026394192,1.3100123612074794,2.730467837384186,7.685049436528672,8.873314558011288,0.5476857371988064,-2.720898933692016,2.9895608874544104,3.3818812360554107,0.36277083577806923,-0.5310350156446351,-8.101733633576837,-16.59809925310932,-13.525170956122004,-7.740365500199329,-5.962955580992766,-4.001213206073361,-6.201878032856319,-11.593262692030203,-10.41505724687185,-4.9980544291803515,-1.056315562487658,0.8300118295480114,-2.60163473076884,-7.962815366318017,-7.356636153205585,-4.529848893298606,-4.1194819147230755,-2.635078740410817,-1.583044350947917,-7.179256475818526,-17.4238354568244,-22.636116015506104,-19.798783646564427,-14.82538830341399,-5.306567111248526,11.579967319799069,21.005744766970572,18.05656234433699,13.831099290466401,4.1185196818799685,-10.226589068929211,-20.715992793964645,-38.905798029142815,-50.976343339615056,-37.73297779088408,-33.79118332999866,-33.60931133459555,-5.358547143855716,50.490401288447956,258.3500102666187,571.8901338251857,422.4790292757267,-307.30650947928484,-700.2820727518379,-356.7498482035138,-44.56925566392425,-91.92947438270829,-54.61545900790712,78.0797104258756,52.34184627598951,11.893368413164122,53.95047603513809,46.879422815681394,13.975267569742133,25.13744958304523,26.922922507153263,11.831390649518553,12.281006076889732,7.621684372743562,-7.145038251734445,-11.342439361041787,-7.932617529838154,-5.651622189626387,-5.316414028469781,-7.336357700037695,-10.871501309669238,-15.265302799950788,-16.111844640372645,-9.516082962587642,-1.6523726327731065,1.9081546060165433,0.9858137653308621,-4.005396989271086,-6.367899504542374,-2.0480413408733282,1.132421888390029,0.3915805792629783,-1.5734410607757656,-7.885271352407594,-13.676649043275642,-9.51122954677035,-3.1263142263957118,-3.620295572171557,-4.79778630131681,-4.639734625655937,-8.442847179233382,-12.40258243883953,-11.160651926921599,-8.857929596207589,-9.787856382862236,-12.446861443143721,-14.807697009209008,-15.378540170234885,-11.556669941181987,-4.466580767614623,-1.1386157363658391,-4.82915981434784,-9.937570407461031,-10.728067296396976,-7.563699980369554,-5.062736638870078,-5.424016506968256,-3.8537772533238375,-0.1223811498238625,-2.4523199444865167,-7.469195843610679,-5.203908320560087,-2.043734107337727,-4.29922579655965,-4.797646706125798,-4.105478770313125,-6.675429639686724,-6.736745908605586,-4.547390142887853,-5.821967233338084,-6.212629985526922,-3.4339540344318102,-2.7618224002300558,-4.182102977544803,-5.003107155445922,-4.411379344485022,-1.3137506144331148,1.8751138093567103,1.9941791394900896,-0.14507476590109825,-2.891949602169559,-3.2839708829219685,-1.0848758962282847,-1.3643197634346684,-2.0610847865261874,-0.1908037007721024,-5.858671219950743,-19.253038025135048,-22.534398856118305,-14.935832597813267,-13.31997547800639,-19.25509658135027,-22.435083916006022,-19.25470091720519,-8.420492173832997,9.394331076801835,23.53863553047745,24.158918384317346,12.945150706991772,-3.631512631457511,-15.742362851139351,-20.566757406785534,-30.019098691721947,-36.650292365701326,-27.971184155702545,-27.443154224692705,-27.72727211110736,-3.4930407991754713,30.427477409404574,179.83057768723583,482.1988171871764,465.6407769332502,-148.10146408303262,-629.0032765463711,-408.3814958955381,-69.49649007519486,-72.9322682820564,-64.82783306134077,62.01497287003688,54.408975827459344,2.458702626987977,40.17128372672063,43.82192447003473,4.905927690666224,9.89134314962157,14.119817000154907,-4.546509125205397,-3.774909893457581,-0.3087472067348358,-9.067409122027483,-7.931730403616784,-4.775189096194037,-9.387324475812584,-7.475371420176652,-3.11860801198077,-5.569673040808889,-4.2009744601516825,1.5807791960183621,1.8060196771853105,1.123038276185353,3.595573531319105,4.354374949238677,5.4999325149032865,6.690652824604628,1.6895556140086363,-2.8829253799095778,-0.9392187252405702,-3.1168364326431046,-11.8466116822105,-13.869420856939268,-6.438881814477087,-0.5484326251806522,-3.6199922439033188,-12.621284646994523,-17.61036139451921,-13.982260831991677,-9.829864849997545,-12.435928110670648,-16.072467005488196,-13.394102768253797,-8.295507199156374,-6.077779344304481,-4.359059765653376,-5.019170165890635,-12.733297128774378,-18.351322203501276,-14.087360323161384,-9.201581112042213,-6.6038199923089635,-1.0603612939048954,-0.17948890515951632,-5.559544002500202,-3.6778898984142234,3.690437719433244,5.327162407255162,3.9744538850332205,1.2136323965757043,-5.512975799780227,-8.609963284540052,-5.474506200388285,-3.8352677341627786,-3.1709610569244795,-1.8881235339571205,-6.635126681614183,-13.89950922396672,-11.553968448265724,-3.5953628595407547,-3.048484941144535,-6.788459286916992,-5.181597475285255,-2.939963868039765,-5.495899213841248,-5.796451949840659,-1.71064526451193,0.4737196066407625,0.24270921819213065,-2.734541742644474,-8.905974879172906,-8.658515753716463,-0.36303025520983034,1.903655883478069,-3.3232460002186084,-4.9097630268603645,-2.9857762275877455,-2.952507981397469,-4.898134175645717,-7.216474489797889,-7.868081232208439,-8.637045645431119,-10.250891275449495,-5.366579330497995,3.341912483391795,5.385211727396612,9.584185659506407,23.028837169433267,25.461965911295096,8.639071008512293,-3.899876674078521,-8.200345025190957,-29.32529803726858,-53.57452883614642,-45.92611810182636,-35.296541010498714,-43.18180278095396,-27.24218271429012,8.824952043586464,121.69624703315051,432.76323758028843,604.3477264072714,113.74487368599492,-591.0312372477348,-611.1538969283462,-177.27030112006426,-40.34966123433918,-83.25561325608032,24.08129279308964,79.87745056938644,14.889657218265658,23.529986713336683,60.23415083917237,33.79131015172149,20.684582057303633,25.70138281022266,6.080731656587126,-2.486680726770638,4.074820488932167,-1.4935776155497464,-4.285821590527828,-4.244341073813658,-14.733938119999788,-15.666358306789313,-3.0632063160558527,-0.07754494601093143,-3.8840578725033694,-2.305845117744789,-0.6525130608979834,1.4873280361112127,5.7475249680806035,5.170506321708462,4.863307223134205,7.9309891248011395,2.3660241844076024,-5.066869914914785,0.24256687683756661,3.974989042291266,-3.6395332466282317,-6.701008055338552,-3.18774375274364,-4.125194421296493,-5.594507930632096,-2.44006622862866,0.5381011233310851,0.3009653185606762,-2.197610125702253,-4.666000710952213,-7.174798157486288,-12.919804663707165,-18.64453421167282,-18.379430156851292,-14.839180721864405,-11.57997889263999,-6.93156481196025,-0.8481641794695829,2.623512332336608,-1.5184172429041176,-9.164225209655697,-8.419956131068247,-2.2568372546591746,-2.4415049605761627,-4.294713416008508,-2.164532057996503,-1.4462422709667937,-0.3599057456325676,1.3323183663493268,-3.4914086603369796,-7.07375125303315,-2.1166843991284656,-0.44431890279997077,-3.3255395997294883,-0.6494645084459725,0.46355242603635105,-6.576336174634189,-10.423833263412888,-6.529430521416583,-3.8231848023981385,-4.403597010556798,-1.791979363085007,3.3874648967419176,1.6517059173761357,-7.247149861974498,-10.933468956675306,-6.753891946208686,-5.474553986502043,-11.865254266583579,-20.7603386170679,-24.350589330614014,-19.029591695558295,-9.60163554574082,1.8195211011422776,15.381719864570702,20.688981402735926,15.701284942423193,9.826344007344044,-1.7438248031439694,-16.22281682726014,-22.27906771318436,-34.158424943836174,-46.46398330602787,-36.478015438520444,-27.109434457560287,-20.50685303290298,2.6023036384244946,54.963921333704974,274.219715809778,598.1195340425487,437.76460121062325,-321.5692553356575,-739.8898984484784,-394.56200924790375,-57.779344052883616,-85.4107099078254,-44.461831234583386,88.08065061914797,64.43672469880256,24.15847743317627,63.98028531517311,53.6588655541684,18.58450873977673,29.92068136471182,26.254663853136805,-4.000541930240638,-13.863608613224283,-13.43958147510212,-16.855498313548953,-13.434601437044172,-9.098718727145439,-10.783492196644428,-9.485844712401047,-3.5185231410722677,-3.909257202449199,-10.333120768977325,-9.654702284399947,-3.284114197806061,-1.2429860470838063,0.9950701049507069,5.121892739421534,3.222496704557046,1.28429038208649,6.103054417808766,7.502121092046208,2.5240418008464784,0.023012382849655566,-1.1969099671243875,-5.813621116696574,-9.578425615867125,-9.096635616045619,-6.912261078460189,-5.2435653460945755,-4.100164003663654,-4.415768731381066,-8.052305274895419,-13.063294237732505,-14.699615532128563,-12.33145506813656,-9.960292188682217,-11.656638181120185,-16.24531927183565,-17.0571018758272,-12.775913526134525,-8.049884512828326,-2.6470085292146166,0.8830544649564658,-4.1049967630052535,-8.673462790164034,-2.490878176296139,2.9117433226254104,1.483534380200302,3.4476282079599825,4.616830574814756,-2.149795095965379,-5.189257831645666,-0.855539084181455,1.8510345726193478,2.7591184154166317,-1.6617507695958729,-14.770901858405688,-19.12671361065214,-8.07820884484231,-2.154022734629958,-4.470754240794497,-0.3606444300896978,3.1015854198302613,-3.5714379322290686,-5.52925855679227,3.4031686939647994,4.198783686046998,-9.606020257530723,-19.58744073261497,-17.461596322477632,-14.712700503751183,-14.936565858059293,-10.881375833896385,-4.649532469371861,-3.853912516891942,-7.910343879308588,-12.22764187609993,-15.051846541410113,-16.867887422512638,-17.27781585056252,-14.264495148358192,-8.193419984604322,0.07586144827408337,11.073241698923152,20.489741793018254,23.930552795954178,19.60346888528025,3.4133000039232058,-17.196619979674022,-31.1519423845082,-41.701523207301236,-40.34396886379129,-25.805050265091175,-24.913961298333096,-25.864111550365493,-9.442115800360845,47.87868628472266,272.50461459909957,542.9202607737375,322.5466102227956,-356.72515098585905,-628.4245185469813,-283.44116061576466,-44.14351629341438,-86.7290604875575,-20.944882369445388,83.90552774006845,37.66937997560854,7.041866721824421,41.0984489148734,23.614935844497246,4.322513936487159,25.300229078517663,20.17807893713107,-0.9867922009060361,-0.8485686585634014,-1.5694433118712112,-5.774592065919932,-0.7337567636767748,-0.32968360043976297,-8.165314091257482,-12.904224349747457,-12.620463501509146,-9.01996682258933,-4.892313475113088,-2.510203488311255,1.2484773444392188,5.095349274580092,4.9546717000013425,4.1947433606516515,6.149420200018188,9.362385027944377,8.476780806305811,-4.512302407313417,-22.773790114043972,-27.524960776767532,-19.942373427095987,-13.965822183424038,-9.782517868745368,-5.959158955413262,-6.198148989087983,-6.346165171926767,-3.513743498768248,-2.381812754744338,-2.8963035061271984,-2.654586883774268,-3.928865624247967,-7.444088182472802,-9.256256235919231,-6.299032275824885,-3.2284532344123154,-7.422004027906562,-14.469467549352913,-15.287782028640027,-12.151842328017075,-8.840948817480468,-4.841866752879948,-4.046633384131102,-5.081905508436652,-1.6202726367776563,-0.07407516884576992,-4.305700466968624,-3.8996026352437774,0.0663805542876883,-0.9189440976217256,-1.6872380094839734,-1.5624804537445058,-6.190318900306913,-7.912353355941659,-4.77699924578275,-6.0670108993823435,-5.7930851778643895,0.6020098249355641,-0.7002266653632852,-8.766913707660684,-8.79676058112343,-4.778322410763726,-4.032139713804373,-1.1965773885167152,0.8199492156325157,-4.060535442239395,-7.279175981898245,-4.033056062551153,-2.6741785289844167,-4.859951033736772,-5.905443154070117,-7.755312641924901,-10.528912526818294,-8.924495220199198,-4.430567288879555,-1.4661234939017795,0.7962370332077393,-0.129974745721519,-6.546677259406543,-9.903405901524158,-6.409503800241254,-4.620843173458363,-6.377602964500891,-10.114646707000583,-20.266541080037303,-25.965984067017562,-9.836431174653061,13.546961907988162,22.091019249564393,21.791938582311793,13.393962186907112,-8.225941731542129,-20.713965794328786,-21.32175481670548,-33.006645610979625,-37.08381181649137,-26.14554092021988,-29.139595279632445,-21.8150444609198,10.301528108972121,87.71992548879165,331.39292023588996,548.8004300695869,213.89976863032177,-465.22454383641434,-608.1093220175392,-216.9724908693743,-37.078586046834474,-91.08001589899641,-3.7895462934765156,80.97779224652238,23.805057858673436,11.911876064301513,50.30273666890822,30.687877798654977,15.386838592395023,28.084616481423126,12.790282820096781,-3.1876903273053863,4.204282793892874,1.604727506380157,-5.604987205535092,1.927329842346976,3.6701993104563932,-6.0398015471346,-4.139753410302121,5.613406440587411,5.138496456675272,4.304800494400979,8.387737428096901,2.335564648643908,-4.596163551810918,1.139263855209947,0.011571346420162776,-10.776127406991039,-7.71027688815791,0.9359948451046067,-4.482670382049141,-12.977299705533992,-14.101013151510262,-12.110857582813587,-7.376311819106769,-3.813210571229612,-5.576836989146662,-3.9501990868293753,3.872373248625553,7.637619379656552,5.441488249958334,1.696220551628162,-6.593144709124488,-17.08999838081265,-18.486721026604318,-13.369932237594087,-12.555579539210303,-10.497527541282418,-3.8764628764133295,-5.874542323939199,-13.032903244457021,-8.625644080162306,0.10050752398512763,1.5972004451216568,3.5167297290466744,6.616280057158382,4.597903786650392,2.314358956118177,0.07348485329978782,-5.463408532294135,-6.79415457374065,-4.727014210128339,-7.679042153387302,-7.8491678748285265,-1.4497841144961114,-1.995359080298586,-7.091896687105517,-2.9305951645573476,1.5276365748316305,-5.489757145069647,-11.769107401964478,-7.041044860600616,-0.4117180487542633,0.448083696756405,-2.1511676282074212,-5.1152367060703385,-4.129581756265678,3.0729161882325107,7.0529605570093885,0.31803773877566766,-6.63670066050371,-6.236274901290801,-7.720278599419919,-12.55856215240202,-12.491684082432878,-12.597985674234826,-17.434338814779778,-13.94309542525834,3.483631297194017,19.247278432320016,21.933517580962757,18.534902459511216,13.602610359946407,0.5002060495923457,-16.931771621924227,-31.888761915184453,-46.34542636102181,-44.615001261224265,-27.15167828526099,-28.85335318007878,-30.283631954041986,-4.457829498715235,53.241501259779284,278.3907686997978,600.8993431990993,437.1593961262816,-306.76278613513045,-710.5583092428355,-383.40577274609893,-68.36055341595143,-90.53840353705286,-44.601154447359335,78.67828793371595,54.25898532974926,17.898371503225576,52.99022032537508,42.903877976152415,14.51333169024269,25.738341154824653,25.489607341336313,8.640257744856218,2.0927895933773595,-7.114801325986802,-15.083546639504318,-11.649760469213687,-9.18363921218684,-11.177105094506459,-15.822840707400616,-20.98998833514748,-15.056266536895086,-1.9720691425372863,2.7220478767699374,2.4633701546542426,3.4040963433872378,1.301159015343229,-0.4688404201678127,2.9415301422696136,7.878387575493173,11.292665304046052,8.574173023657952,-2.583588652838598,-10.942475458993577,-9.18422055349756,-6.089292872567217,-7.384669498024946,-9.344076572324578,-9.864823589688722,-9.309803005958734,-7.064872664020067,-3.5442153051925196,-3.4638612620221547,-9.476894089835394,-13.379885289042434,-10.143758010529412,-9.407391837810284,-15.31277548275589,-19.175314205062776,-16.628167497255074,-9.822838603463088,-4.509492206357439,-6.191423921875101,-7.287395094833617,-0.8874621462949097,2.271485337192237,-0.753342662698639,1.2601185838790512,4.329627921037736,-0.07190218440541862,-2.7239306863974413,0.6558257981326143,0.7785612214195083,-0.3541558071133837,4.3884788452408605,5.468362107816745,-5.037129805734635,-14.368569654337993,-13.111167742421545,-9.58494180320129,-8.287516106259645,-6.7253477324754165,-8.122931323744574,-10.846609255918025,-7.795527031493882,-3.3262371192562963,-2.73786934574491,-1.7294230072893413,-2.086650006177802,-7.215849426391049,-8.80500814650694,-3.8606210874715625,-0.7781783821973018,-1.4017314821718063,-3.3533134548811923,-7.800887719270811,-11.459424356032699,-11.64526174972883,-13.41643597226987,-16.259442833399255,-15.05712667810403,-13.746822953779038,-11.798930410127687,0.6090070832083674,17.359777417303164,24.560040782302565,22.661861857944015,10.03095366162573,-10.355730919288241,-20.468227405074515,-26.195922064636687,-34.90971310228944,-26.22921165513149,-20.15311484274659,-34.91922429410325,-25.159688522699753,13.510490099878382,133.48613208723373,423.5762991265976,529.6017088475091,14.801789013592938,-592.8148594880986,-513.2410873845577,-112.20642449640329,-41.95985580111594,-76.6813206597732,40.23227226445975,69.57729415310443,1.710737206327675,21.30649264214146,48.59275718087194,16.852155795666025,11.669436499178067,21.397742265080453,4.887089590543349,-0.9095847566062432,6.7709255950834955,3.920958287218393,1.6092400366854038,2.9482447484450303,-1.0785778534918053,-5.607654482236686,-9.663362033068452,-14.560329423136771,-12.728561350915216,-6.4641744784367585,-5.823796897234502,-5.7349322554439155,0.9788974132061217,5.16857316082797,2.140395695111329,0.2663761833979805,-0.9443023068154623,-5.727010508373263,-8.323588944363175,-9.470563639410813,-14.158332924990875,-13.916711212012357,-6.6853421607699826,-5.519936492495015,-8.941475552989395,-5.52095273910871,-0.808371976292154,-1.7462120424567527,-1.2734814979232336,0.7459872110018946,-4.332896588347763,-12.307503698033171,-13.46234799739003,-9.9745573525459,-6.291120552688962,-3.181322115598668,-4.877828820441632,-10.038759377772312,-10.233889226242528,-7.0760130651717095,-4.606836623109449,1.4711731543709083,5.585540860028635,-1.1068747092735478,-6.8335980828429825,-1.9058466563229661,3.0039580664821894,3.4594555862429637,2.5390218252554284,-5.650797872353056,-16.336778647675295,-14.335066524575737,-6.322625848808833,-5.695759136445508,-5.3179480943217765,-2.6901214485940717,-7.389670824465295,-12.336732606260284,-7.552077750672246,-2.556896623231653,-2.6461947781450945,-2.142915754149188,-3.242757766897858,-6.493558932884852,-5.411483446528526,-1.5934681333421148,1.1792662375971048,3.7887079143362232,3.9885430030265976,1.7987035940532738,-0.7463095193293849,-7.677801661505777,-14.93535937703237,-11.31337596801817,-4.703717828662899,-9.078725480318965,-15.190020783102439,-11.506253797829498,-6.603347257105256,-6.656771296666454,-7.999447689168459,-14.661061261433021,-24.394948421416455,-21.27731316092746,-8.384595162115023,-0.6084314605010173,8.923055496602284,23.687489488198352,25.78729778229035,10.364867661208178,-8.29274997599838,-20.202947048537336,-29.250298682579942,-39.32279008766409,-36.64690546196596,-26.43912559914103,-31.424425302697642,-25.151162899655112,2.4588046164593678,57.8519666707449,273.0141696170716,531.7233082809213,300.97803376191234,-367.28299781805475,-613.0013904568033,-264.72087348773636,-41.316944111567466,-88.30918006070885,-23.22367660350381,72.89121059821667,27.25681909535223,8.08713938186291,48.577052106616904,31.06866657273565,4.136302005136951,10.942152050387671,4.0636443378467275,-4.3345035214472585,1.2926854700026045,-1.5850819079313911,-4.194938311377284,-2.156129710223812,-8.761373388759425,-10.5628933019166,-1.791873926967142,1.882718130363497,2.457245262388354,4.455827661812188,1.2252864960718348,-1.1191378148298776,4.960073548277957,11.444259061956657,11.274162505415742,4.586165245174889,-3.0564170522985905,-1.2470689114997366,4.887437613613671,-2.4177310442983693,-17.17031790966546,-19.969501357360194,-16.157767487771718,-16.900455290246775,-12.694899202993042,-0.6029088744349878,3.477210310271518,-3.398687050504684,-7.371954467109141,-6.17903202868292,-7.104887721666106,-7.963667625688217,-6.7035584379758415,-7.882439672153858,-7.583570205638068,-3.4833116358465155,-6.1450929614460925,-11.899276921115717,-7.734312728341321,-4.146481141590012,-7.756739461077046,-3.789710826959613,2.206916660129746,-2.3653317913468648,-2.4730578553175055,4.620333403909807,2.0843359552073357,-2.115297516472655,1.2887920043309373,-1.747875838072095,-9.650758114844106,-8.36407903170426,-3.2791267553396666,0.5451736123496342,7.024300522217054,7.865694089973703,-1.6328542417732868,-7.2090596670448415,-3.532631502069891,-2.2072506452199594,-5.787823714046793,-8.266084015474185,-11.126553343598996,-12.977156329245162,-6.140546763509649,3.8155122982291707,5.6408089279615465,3.1117751408122096,0.0801452324512475,-7.893569261362225,-13.617275793488295,-8.910005931971988,-4.080214599277039,-4.143876343974203,-1.1370592420603947,-0.4764675402521483,-8.492858761741545,-12.3702861913936,-8.420954303901649,-8.305956634701786,-9.574083780259254,-5.425997125478688,1.2279205297306703,12.720190632134658,24.206857172226755,21.906966293226496,13.548049825536445,6.360908822522643,-9.162511736739363,-24.1352734261288,-33.56675850794967,-47.25547775814105,-48.13368450924565,-35.70661938608804,-32.05353753520408,-22.5464881465344,7.795995029689948,145.2978747524924,473.28391882833944,602.2315431293897,58.66843812922403,-626.027042543719,-594.154082837411,-160.5223222008735,-45.35984929428473,-82.74447532948317,28.589026252057497,77.63565197746925,16.458224880201428,25.319356486430017,52.39427590925872,24.60957274436956,16.09904231374299,25.080898585041222,10.186577822544319,1.558581785808693,5.480583274652824,-0.43521060373244325,-3.2936310256571772,3.8102659046481633,3.7843069644447858,-2.4269721272283338,-4.084116474012659,-7.303662469589613,-13.171911834186929,-7.996168399938515,3.7063077409933083,4.722975635732243,0.8359204678641259,3.208471005161151,4.836846205215933,3.0297203312128507,3.1913107008390615,1.637570035003936,-3.77641453597787,-7.374097908745771,-8.628308218054812,-9.316624326783469,-6.6734010893640665,-1.9195861606466202,-1.875702051881893,-6.406027383610489,-7.528590885362049,-4.606647640973483,-4.019906142043126,-5.2565378117661385,-7.051968508742215,-11.389885803982043,-9.720784617985487,0.9195522890844767,0.5507220188183108,-15.057283913727735,-21.03574439605785,-13.052785642499316,-9.506965124225502,-10.042007051570055,-6.505632331321735,-3.5317744472290897,-1.2741700321827345,3.015137989282409,2.1080655951030796,-4.124193466725648,-4.625543720328353,1.2046980258455653,4.0447197012115845,0.07731532017158926,-6.948644334445245,-9.40160887973989,-4.560638577304173,-0.32400781139921353,-1.107466283951128,-1.8580751234243778,-3.352633777793203,-9.069580087530275,-11.909231802187612,-8.02623038547032,-4.868937904384492,-3.8514334841113307,-2.228241378740597,-4.517854116126921,-8.557744129870054,-6.124717533528834,-3.469942315434068,-7.1774609506313745,-8.62784760719342,-7.461458518917437,-12.471706585267768,-17.132605627834142,-11.660596766137564,-0.6754209619351883,9.86070549833316,18.61195384266738,18.66400266386851,3.3395183541559743,-15.092901547155066,-22.418211451152168,-29.103845744622838,-33.688055101797296,-21.653773249884118,-18.512778023647506,-27.71030254633865,-13.971665062028467,22.25183955720864,174.9552969569439,485.094779797515,490.8855230478032,-130.11828932222193,-663.8494639416801,-462.1793589887352,-80.24057037349655,-54.757509490273634,-54.85578611710957,72.88551139205524,73.84608438084001,15.275994724449935,48.244810035267435,57.30474531837275,15.295847915793562,10.02447313849019,11.825200985479267,-6.387196767136988,-9.780621319053875,-7.025387966309658,-11.884326669506564,-11.687146266979159,-11.27484987376332,-13.183729858348155,-8.638733328295443,-4.213747010084342,-3.42888927625013,0.4546655463169049,1.9267019352972392,-1.4240976733618869,1.1144844337013726,7.0187673059813775,7.735075022868207,8.353248280603305,7.52605714694751,-1.7685905313892754,-8.662334032396869,-5.281252813754348,-3.336398810357487,-6.583853799684084,-7.942434767546562,-9.867073417046962,-14.15517553354063,-12.811014555916767,-5.58305585467129,-2.300110044520636,-3.917842082616655,-3.19416870572908,-2.3478251800248646,-7.781534246220344,-13.320355283062433,-11.261023127809409,-7.023285036892021,-6.57572816304252,-8.070546966241709,-8.806551196306952,-5.8264903927541365,0.24347120688305068,2.8357637935116955,2.466096378446794,2.7381149008421115,-2.863325280319664,-12.72354102225658,-13.011914095360305,-7.234266204231854,-7.286964940292725,-7.3703554330781405,-3.5975006291657596,-3.5322715691385493,-5.403948999369101,-4.4420215988535485,-2.3793533944116545,1.5958614297606601,3.7947951128265753,-1.4617464130420306,-5.78423440164689,-3.8990375214757744,-2.9767961376879626,-0.7652355101520047,4.3472094174928,-0.5101149792052873,-13.533317370552425,-17.02502778732321,-12.072416246088697,-10.307224656174796,-9.163359509991064,-5.633889705281964,-6.530845104355791,-11.811857753008107,-12.709339469908082,-9.091913736594615,-9.62007771165965,-14.562174939919737,-15.983804706356551,-13.399445396671052,-8.542773592773324,4.160113729218714,20.749884139518688,27.72859703590659,23.505235083978278,10.45623059957651,-6.538667906038242,-14.034833997541252,-19.558788387914802,-29.299478413117168,-20.29150342304804,-12.017696571351602,-30.37091758225487,-28.230721757026934,4.473824947800196,102.83748136136826,371.55830948373426,518.1625648617455,70.24430326829739,-553.2955420060018,-537.3659704843491,-137.10715575478906,-38.10397584463807,-81.37246876301876,31.967441286141565,82.04685872375244,15.548026810304432,24.679377248253164,55.398818720102945,22.80879062127993,7.9472536929997855,16.69188755546847,2.900420688922818,-5.21938008577637,-0.2428541261951409,-5.282356385046542,-8.560311210254842,-5.156913814518109,-8.190228007935954,-9.222879457314573,-1.7665224979453384,0.8062404381741457,-0.5119385016974363,4.548347626377498,6.645508978222042,2.109720071409863,4.953544154208487,10.903368808701925,8.88739911426636,7.9601037070273115,5.394931012163062,-11.699010274599557,-26.281138376544103,-22.778833225206334,-18.526413044225446,-20.330063200838623,-14.959475086982742,-6.898759206269842,-7.142222566431059,-8.432783059837574,-4.556815358939183,-1.9414563307638346,-2.615320634529299,-3.142871104965897,-5.464249797040798,-9.221400648322845,-8.0666727762617,-4.412956075728909,-5.666732077975707,-7.66147916727554,-5.581370002787251,-5.096811330455758,-7.030912279669467,-5.124477706040075,-0.5900855607492081,1.2911626047780338,0.3073524012317721,-1.1928246514868945,-1.1514372160930986,0.7615748706463767,3.6324693800013144,6.90618788818529,5.62845891480974,-4.155157537210725,-12.077792921921098,-9.107646601276652,-4.804155337381879,-4.434552249303035,-0.868245909034628,0.6673749068039498,-6.45130825663596,-8.995551851156057,-0.6879064354997015,5.643403796868378,6.859855314304106,7.179670352997515,0.056034900676618093,-12.046009691098597,-12.523736339512578,-3.4359944738073365,-0.9315515836695925,-2.239965325178673,-1.5574318318239104,-9.316963344585668,-20.386251904387805,-16.183564938011003,-7.747137642013524,-12.72456250907815,-18.235585643053767,-15.8107934770469,-14.558663417363029,-9.342819305291604,4.740918894117508,15.451418860755535,20.245600093310834,24.671762431080978,18.842004135924114,-4.2967627852819135,-24.983117255573063,-28.806540475634208,-35.30792334089439,-46.34251533334953,-37.861876779554464,-29.47381038623498,-32.199341235819794,-11.888617606219984,25.523536568796814,156.74359481087504,467.5394395890228,554.7206601342675,-8.936208106018626,-633.1559672853009,-539.3969435268017,-131.09928631672528,-53.623680947552614,-73.8998771187423,48.35467995713728,78.72019390689915,15.695309040920119,34.436840064925036,59.8094286235369,32.86932201445899,27.377086466586686,31.453757200725267,16.863483328257256,11.965145823956846,7.869814804283456,-6.501604474419512,-10.65391286368571,-11.221107115465458,-18.419483194573573,-17.065745846569406,-8.382154708274882,-5.5321332317948295,-3.5560785950195193,1.519281106768986,1.6981328270993128,-2.364511199263149,-0.8000777955151563,6.886308615204452,10.555095816246002,5.0830273273494075,-2.675294113888203,-5.100349910858869,-3.9061597015699396,-3.426773721943035,-4.151704770977721,-7.593039957528477,-13.51765080141091,-14.315750372606349,-7.393633285660195,-1.0607625862059429,1.0824291045804486,0.8372422675331936,-5.1243046727485435,-13.340017535511192,-10.52530412910051,-0.07076984600784542,-0.7156677978559554,-11.000135078339632,-13.164520604009452,-9.776958438499104,-14.0397465206423,-18.015520706874184,-11.328284183910966,-3.274495986926306,-0.2572545059953164,0.884121461317374,-0.4910166219685781,0.5142400905696025,6.684297541666212,6.282540185207343,2.575303492911674,7.42050727092645,3.755265723984495,-15.106733340539577,-20.718346643202977,-11.774483623797732,-11.055873803354704,-10.651101354730535,-3.711459624883444,-5.765413209070346,-11.102218465694698,-7.098577069690798,-4.1730675927472465,-4.324690285543371,0.444792697210481,2.581913659899861,-1.1214208184363752,-2.7579339425549296,-4.570326877950459,-8.448830295806712,-8.711702582672455,-10.201592696401681,-19.351288741166748,-25.974547828944743,-21.043399406686024,-11.60705711074327,-2.220423413172876,11.071306610301349,23.279658702420313,24.147887232221557,11.84737209116921,-6.395770412959189,-17.54467199403036,-22.914490871620394,-33.78773882189539,-37.28189015426003,-30.80939740269844,-30.70308650957109,-16.439653950271463,13.691371884277508,91.73712907841599,354.9106892141563,595.2107665305793,246.51457716148025,-488.1603370676774,-667.3985994105383,-253.27187508180975,-38.802121654370914,-89.5599094494732,-3.723530484415786,91.99147045501562,38.082420669486254,22.26296663842686,62.174660681101265,42.35621307544821,20.27409624526944,25.931781096286134,5.30140102506647,-13.013588423389905,-2.116060791931779,-0.8196809595166759,-13.041505606609345,-13.293818693939869,-5.486607300479973,-2.8041229622518147,-2.5340457219487993,2.622886949697346,5.867709138317714,-1.6802292863738355,-7.369735494612739,-2.609987083936568,-1.8131743940749523,-5.982171070278957,-2.1178711269871204,3.737347327056389,2.80137133473238,-0.17641298924889703,-3.5168243336144496,-5.911278470699459,-5.0122949144214175,-6.519098547358272,-8.343504343307957,-3.7043950019065903,-3.6112350145923386,-12.525469225144255,-13.719290261198294,-7.138953385464287,-7.73793765561315,-12.283822859964838,-14.43878817005691,-17.407612913323344,-16.797935698271584,-11.860600837625357,-12.859105906409573,-16.175898228227165,-11.92428944485733,-7.075423820464783,-6.610061544328758,-2.7364324271141047,3.0689678564460596,2.029687615945253,-2.5801269236968967,-2.6033258915009894,0.8623461916531348,2.9033932849924478,2.801950316139189,0.945978105625839,-3.1403655697311397,-6.721097956582412,-5.612793873092057,-0.6710524988782955,2.9981465533259755,1.9331317755586124,-2.7122080251095912,-7.122560418749338,-8.13891106294,-4.034272700201219,1.990311093019904,1.5582134175028237,-4.548053833130133,-5.559916936101651,-3.7912085704867966,-9.853999761103918,-15.86968330245782,-10.8591962034408,-6.34665197851929,-12.00478001890024,-15.765594947296567,-11.546864638153885,-9.414812719475547,-9.709253955098712,-6.818087471396751,-9.887723579017386,-21.53615857498275,-23.178149495224,-9.334764740138835,4.8552446645415,15.141037547477378,23.210522280574647,19.149864217029467,1.8975684575687515,-9.761670425068413,-9.433816297838804,-18.043686000529647,-34.90817415073201,-29.300654176156144,-16.825125994721276,-25.507459796093602,-21.635141910428818,-3.5121024949883974,60.75925100324166,313.9829299868627,540.1493625282305,198.19951617373943,-474.66775161881606,-599.9973986234768,-210.43230595044122,-38.748997382641576,-87.7591573412635,1.8214540426596564,82.39610982009623,27.967815048962432,17.846016855633216,50.65267856720607,28.760524261867673,12.627190142594031,21.47367418441839,9.629783375580065,1.6961620906476949,8.453716146185553,3.181552138800819,-1.9552842228547558,3.1823938736755544,1.5899778273931418,-4.320542415468178,-3.8723811876340406,-3.2291169934868247,-4.9707518545687535,-3.7406106050769923,-2.8357219762247663,-6.034610126619407,-6.470321440859333,-1.3808560253679456,1.1051462907670313,-2.191181430360208,-5.611658579210138,-5.741697110780681,-4.6990652047892745,-5.634468488410471,-8.061655806380369,-9.633609319240485,-11.015509692965114,-11.711979618931164,-8.992628990362963,-5.044199679932538,-2.3625439520120555,0.04083235855498302,-1.531121700406736,-8.771516037821367,-13.34494632432476,-11.916223222938859,-9.547104997642364,-7.107894015886455,-5.801372189774277,-8.815424169720476,-11.039927467937675,-7.646503339873995,-3.3490590737485935,-0.6593817429170521,3.07367584700547,5.824396964097608,3.635323285033632,-0.010545842352746249,0.7929495780776792,1.539267020226042,-4.818821607379297,-11.487374962104578,-11.8961152254471,-12.39695069732341,-13.26312801210568,-9.392756167867212,-6.13864787560431,-5.429380446873449,-3.9356486075171144,-6.777601576202386,-11.111436350519224,-6.902804757782452,-1.7343119070790678,-3.0464247992081894,-3.021162687121672,-2.6103419379983457,-6.475250324726154,-7.447324836485226,-5.297284471557029,-5.718574942280872,-4.309250110448296,-0.9789743562478979,-2.1193739443960453,-4.319645818185325,-4.311568823645445,-5.32363798480145,-4.450564032714336,-0.5431283749192648,-1.6785190590742634,-8.103700208767837,-11.781382491013431,-12.98375366287998,-15.182076676823137,-15.05262943958612,-12.187766406284009,-11.971300890658673,-10.199867083058058,2.193951542098938,16.84873320448914,21.171738336017857,17.483465613378748,4.638104830368862,-14.800027979409165,-23.557506761368707,-28.124333675037857,-36.009384655964936,-26.11090632110757,-17.67722550009931,-30.171046666272396,-21.070125539470112,15.585975045713212,135.7644057876784,417.86832867276104,502.5100271975278,-12.140246362806181,-579.9662704327349,-477.7089365634905,-103.91695004257392,-54.6906598652657,-76.93399834295778,45.52858163697066,69.63338932224482,10.689189826143252,38.59421719030317,59.78461249296415,22.583044259008183,15.506714860656299,21.22705279672459,4.840369471256571,3.438912321562162,10.643016204284535,2.4836860584257803,-2.9618306228369846,-4.595617148763109,-17.510281474617265,-25.911046403281812,-15.802330682086165,-5.509101350938195,-5.658731750556068,-3.720263138985519,-0.6638394795097255,-5.52636807721122,-7.07842942531688,-0.17755858245222989,1.5298521784781247,-0.879429269923067,0.20502351331502666,-2.7809076384933835,-8.811825843867798,-9.125199349743202,-10.238349526516602,-13.154330436105202,-8.584736730082005,-5.181932341540147,-9.537604580377522,-7.228755426782682,0.04995882093954407,-2.5138731073227465,-5.163940084295156,0.054408537267057966,-3.1851660089393388,-15.2040724969582,-17.13429005451594,-10.174092811256791,-7.108930548935996,-5.8591194473330965,-2.024053407529051,-2.1765828899616757,-8.132820932343197,-9.136026621415606,-2.139893449990475,2.133243919466037,1.1088581145324055,0.429984400705961,-1.706027431974091,-4.422392588542193,-1.2196971172036362,3.976269616249872,4.798381956484457,2.8985874459352896,-2.034154395536506,-7.536781304984243,-3.981875068019785,5.430110085075574,6.395481816923798,-0.08453754985182993,-2.0158643040895656,1.0468801417468399,2.853677878980374,3.7862479589456273,4.799442603564899,1.7046457122594827,-7.765922388996987,-19.307027845771326,-24.97794230340677,-20.19391916496335,-10.787841301525422,-8.729401887774102,-16.391041578118372,-21.74879854439503,-17.09386331135117,-12.065866388129542,-13.426123859624484,-9.580296387031058,5.131157131133422,16.682532215658696,19.267331430598198,21.259602032529457,15.791847133909206,-4.752831849573781,-20.627005058582405,-27.179538110084934,-40.863790609230904,-41.79325943093112,-23.471900734225585,-22.369042718750656,-23.110291648143896,-2.8483900884772027,69.46612470095614,335.2268565795054,627.4769781462167,342.34650605364646,-431.0044543568121,-714.9164216745717,-319.2908061773537,-50.19233587757212,-88.92412298875875,-16.770804035792743,94.84366075034863,50.73599528002632,20.14042447783399,52.584872691583094,33.26713033906192,9.92782378245101,24.070167037150007,17.821278558928658,3.930058063009705,10.607259392077758,9.626946355646151,-0.26759417890862647,-2.7253728757395645,-5.382745762683212,-7.115231817789471,-3.745616641767737,-6.422992151296922,-13.617087268933386,-11.083976748414022,-0.7490176065835508,4.389475589609064,2.436025246529675,2.2164875424289687,5.898503361260338,5.945198571382136,2.6064286063919067,4.8042366155110425,10.660045889614267,8.764326425795543,-4.129920220166932,-18.694776740016135,-21.948918052779966,-13.399247733309837,-6.418567785580782,-5.161332518110699,-3.9204155051538088,-7.8480482920744095,-18.915168753043027,-22.174547713966057,-15.3990894389356,-14.262232609677305,-18.83628711287401,-18.47064397026086,-16.769417800877168,-17.045241508077687,-11.099849779842963,0.7722941453504983,9.122360002760026,10.80760821879781,5.005737288899363,-5.490388980809923,-7.854949646279241,0.026198790786763126,3.227250559107368,-0.8622233924441183,-4.310181358282474,-11.493788182007716,-21.125705772981377,-18.639446079267092,-8.529358896584704,-7.180721069458702,-10.114533503437158,-8.578166423242706,-7.235579516963549,-5.909220761534726,-2.6751000333401738,-4.50016830088326,-8.802721117048943,-6.45971743587795,-3.470798799628467,-5.775872278756751,-6.671748372049002,-6.1388002741025645,-8.926945896126474,-11.780602147323977,-15.146234369700835,-20.669766527630067,-19.187596601983586,-7.964512336030016,3.3741678642349755,12.489774945059994,22.25752709660769,26.521031160085087,15.53766954167169,-6.427682926004416,-23.442541817510502,-34.54547753870837,-41.73011803551449,-33.535547603597266,-26.937306891147436,-32.62807919014796,-13.433708104118626,22.490321975208687,115.46674059364554,389.85883051796725,560.6516270631511,118.45470240385563,-556.5951580720689,-596.3171780184093,-181.3157786235077,-37.168397687169076,-77.12246248762077,18.40387278508119,72.0230682512689,18.474804368126374,31.69481183076872,63.9079730550518,32.74672980875266,10.395526996501337,7.8294792647738465,-3.8153812468250328,-1.1665210697463202,6.943395340404626,1.4877588265308788,-2.875241061440322,-4.724413164559586,-5.788811065531779,-2.4399022760788522,-6.787628368545716,-14.788087979338606,-10.969022715670317,-7.5510244709555785,-12.355147412384166,-10.33542870409059,-2.245511870918339,0.14581212578845282,-0.5723733324931146,-1.1706663326070323,-3.100957231076455,-2.6305354307717206,0.23364646414790435,-0.8313806629262697,-5.157090110930367,-7.252587153655135,-7.487908966383388,-7.553390382688574,-5.459655308947866,-2.8197375965812608,-4.230668887585338,-7.7249353234494595,-9.478752715818276,-11.30480286754697,-13.060727057102834,-11.36010347187753,-8.272073821385394,-7.785688460473031,-9.538168366750002,-11.129453852640673,-9.555775171836611,-6.021819282917299,-7.054915043858774,-10.532052877897563,-7.422360265230058,-1.255780891298759,0.04193683920081348,0.5590409055210408,2.588758534892979,1.550731391321146,0.7255896622672449,1.9360412587073235,-4.149276700524151,-15.860926963968318,-17.5313086993368,-9.120584147675624,-5.242263808404582,-6.708331321397818,-5.134079719493101,-3.002342623672023,-3.3624990962498096,-1.329533189389391,2.60588126559578,5.566349134988309,7.758830337983342,1.7675477034366125,-12.31442528932601,-15.757518172171451,-6.746094788565469,-1.0901346414075945,4.156165276344664,8.995310788998816,-3.3928996760631627,-21.385833703202593,-20.408486216376033,-11.809497683246597,-9.070619101761038,-4.542976105538624,-4.851017719179048,-16.371267279421822,-21.391764547374184,-15.43691260879002,-13.755992955871942,-17.09061450328209,-18.746094871465406,-19.181492049424634,-13.530710192835866,2.0581407464593764,16.073034455755817,19.540607394786065,17.445236986997415,8.815483256422105,-7.725484238674402,-19.28215016159131,-27.01279731700564,-36.93569683420074,-32.98872133416833,-26.36201759713564,-32.96343429374178,-21.247235869579406,9.07481819854165,109.5516749101498,390.4698888617771,548.4388805284188,105.23527868199798,-527.3674025548052,-533.2470447373386,-147.71541093061944,-50.640610825065124,-95.91770921536089,16.492834044277465,72.88442336190398,13.083844835247572,24.18421099664406,54.40215946973735,24.071444258488327,18.360632614800767,33.90824743008047,13.936253450097563,-3.7771289947429025,-0.5710412281550248,-4.6623680294311605,-9.348681963686207,-7.147662933076697,-11.066377098713765,-15.728008164538673,-12.410125188970188,-8.599083576511251,-7.086012279351904,-3.6604808891713345,-0.02307086843613071,0.9387869939384519,0.5555040606072446,0.13075565613662654,-0.5017264421691703,0.1341315470581792,3.209553566733573,3.4980355160114227,-3.512966357708116,-10.346809805051828,-9.66741643204958,-5.539066963629637,-1.9183029136430498,-1.2887671397236566,-6.323438488080084,-8.189623689119312,-1.2442753386081584,3.121536260322892,3.7103397747794524,5.598696985637218,-4.528445517780767,-22.698603814401682,-21.24238233478347,-7.653280710681809,-6.207979312697127,-7.138805578803588,-6.518828611705722,-18.846051512680653,-27.555345708788135,-15.54870961180547,-5.628966573973042,-8.16706276988068,-6.762998420702381,-4.566753325881617,-8.94301267890887,-7.021947015544365,1.9737373364681723,4.113224106067133,0.8894259802225086,-1.4879176489984474,-6.534576513856958,-10.996490765785731,-7.50206781019266,-2.392772982084246,-3.791493098084443,-6.85446874708806,-6.325583814456703,-4.5042637120876075,-2.655546668140449,0.16733619957216384,2.7041181178941542,3.3773884174225124,2.5610148394512873,0.437042293555967,-5.158223707408288,-13.799362975666948,-17.65105707755711,-12.116318893707945,-4.9954254636448105,-3.6526632545332305,-5.251015866736511,-6.081564979049178,-6.142376618491612,-4.418635705574504,-1.2605858624671091,-1.2498549366668126,-5.109630961937911,-5.912207698124101,-1.5194865926767873,1.28965572441727,0.9261673757476441,-0.2404437959659722,-5.8904414201768995,-12.468717122778832,-10.364647124291219,-6.940997913757164,-9.207589635361902,-5.9381147296350045,1.021976146860471,0.3293858322751362,3.355880460979246,15.933919835664927,19.684941297883604,10.126036775453436,-0.3990823189198931,-13.47821667977616,-37.09685088782792,-53.764660127970295,-41.30488708631931,-26.734610394022546,-30.11344939165761,-16.092643178960856,7.223715281792558,81.56586500030795,354.9138282090154,575.2756599979773,191.0054040245502,-506.31302801171813,-616.9285633716803,-214.8984770219478,-43.51030419216387,-84.18909922354743,14.842359586585115,93.95427582711989,34.699857735048425,20.68575473649878,51.802311933576476,31.631822836334205,16.05821878818133,24.07618824222104,10.097517243221265,-6.034984160183441,-5.669138431595244,-4.740032376569655,-1.3699385679771199,3.7578284678907963,1.277468070140289,-2.319067003171334,-1.5582875015703994,-1.8983123547586853,-7.00972645115027,-13.636179896725492,-12.327270710551527,-2.781523015956883,0.6320981104139118,-3.761494146405041,-2.8661392553043985,1.2157814035048222,-0.5046611956573814,-1.3645897117250838,2.3669253130263535,1.5193497579396826,-3.5778104614380126,-4.7897624391486495,-3.8364309519583077,-5.022499739272197,-7.677203388385012,-10.391944683440935,-9.650668376584603,-5.324719388456778,-4.99813011441087,-9.28315368778759,-11.174173599718134,-11.960397221245621,-14.84744122569128,-15.952427175879304,-14.57412600719288,-12.698670925594941,-8.102974426284813,-2.1969217160361385,-0.0229701533206228,-0.06594367799411849,1.3662789039715015,3.730692635829066,8.08392808008569,14.5062607236709,13.371102417435035,-0.22844510417841413,-11.066153276736866,-7.882987611215211,-2.0028025542976104,0.32749768869729756,4.864281028212758,2.461137937143196,-12.68710656846602,-19.523351702552596,-10.205558202839622,-4.4003189949006245,-6.791342657612759,-9.320117562540633,-15.495949230310437,-21.377230584209208,-16.421586934523333,-7.847264268843155,-4.352283179054226,-3.032750664380936,-4.8328804083836765,-8.51795665398788,-6.540156117122583,-1.9346681594861188,-0.2686988062967437,1.7307819678978866,1.2864535544120166,-4.843284311595295,-5.350944333372267,1.8001948011357207,-0.9648248632814056,-15.840535015933053,-25.897759405973076,-27.70327510750887,-26.73775906942724,-18.8200664572809,-2.556659485073367,14.045858329901622,24.360479190698076,25.798246996023884,17.039511736159362,1.103448275682998,-9.8306000232873,-14.689731426330212,-30.84648518713925,-45.47867625297316,-38.26075700609457,-38.76627204591359,-42.74536474562414,-17.10297328705931,30.411082597415884,215.06553962022937,551.9086943814045,506.24786247404506,-187.24452159008604,-697.2954232982077,-438.2505046763255,-69.78613580519614,-70.85800513385404,-59.77658269097451,67.85671681796852,55.46318690301217,0.5591492711908614,37.385976864507164,47.607580624705264,18.860616875946107,22.495400287318997,20.79323263807956,2.9458821186198527,4.00292773524534,7.11947116192945,1.1429668965398019,-1.1461920021632697,-6.318696144727885,-11.250592000968041,-4.61666495877279,-0.6014397615381455,-7.902540063532143,-11.650306960840846,-8.057036005132646,-6.31151980123402,-5.867304989298995,-2.80586801590004,2.3234433561693897,7.757907937555916,7.025791832044012,-1.4005654432215797,-4.878740545853279,0.49059405207477447,2.7509514007505214,0.2733465515904703,-0.7741096996551455,-3.3222573268181694,-5.805279338566294,-1.0551182556903624,5.017280410288542,3.828898767866871,-2.7540296525724415,-13.548251904155943,-25.167513009245425,-26.32118350311468,-18.219991383841887,-15.252112298795335,-16.98506528354155,-13.460935429402934,-9.298526704601034,-9.947122296110004,-7.8075054608268,-3.2567435261293767,-6.200209595486832,-12.322025699730517,-10.66677082713104,-3.9987188814025902,0.19296794918939142,1.0664286452583678,0.14105459341994653,-0.4037531335283848,-0.01807230318338071,-2.6468135606892744,-7.153685029653585,-5.829659166451878,-1.4307499070403598,-3.703757976301265,-8.438512754707702,-7.54571886235307,-5.802954073859928,-5.936314234088529,-4.203272782696636,-2.9110296791376324,-2.259227824921222,-0.5523821529124913,-4.3803184829920365,-10.458119508855471,-7.026279826562406,-1.810583959567241,-3.2583001811435413,-1.2137040568019986,3.1348931652857193,-0.11495853996602712,-3.18655513503734,-2.5240364139695384,-7.148717579049894,-10.762176770583736,-5.340853678478155,-3.2450207053489155,-10.74547192823636,-16.39225587681686,-16.245874386170563,-15.53686368149679,-14.970071550033683,-14.958302377779562,-12.397774645688667,1.1006193459889229,17.47046005621012,20.78145327045759,16.132564771728973,9.78383997266139,-2.9556231642211834,-17.68564360507436,-30.746848396784976,-34.84188675889882,-22.148572241966853,-20.346726996452503,-34.04401777412063,-28.522293732345528,4.060406216795627,160.92812518425183,471.11435261290285,476.3229131367809,-122.87111561916778,-626.2973122972899,-428.9375155188426,-78.53956079834967,-70.64416432034267,-71.13714472851271,60.27216373170236,66.16452694285542,-0.0010984933964230947,16.0598680726224,29.707993654986446,10.491662715935538,15.343040742495656,16.517372550665453,1.4523712092842054,-1.0809742757755156,-1.1016059108156249,-4.358937861578939,-0.9485187291814317,-1.2046901816611442,-7.311838361721003,-8.198409626013758,-5.27983635849359,-2.009250165501844,1.2243013528282098,0.21782721793030735,-2.3907428550941976,-0.045172024005522005,2.933227946123451,1.5499948565744024,1.0483860781420171,3.1366617050114103,2.119660996738766,-0.47396127145117983,0.6049649349996304,0.05826091597568528,-8.91965036641105,-18.91156181080897,-17.64063072797621,-7.578063579875312,-1.7238659297711312,-1.916219327225761,0.0273069991848498,2.685011022458305,1.4572085450427021,2.0439850372279267,2.9336399952339764,-6.632115433830519,-18.382610633615535,-16.795636322920153,-9.897021345089115,-7.480311065465493,-2.873705566501748,0.05248446413662933,-8.711042249579112,-16.67388932961736,-10.499638993087057,-0.444368205127482,1.8250615845599398,-4.06116532198922,-14.653382793635835,-19.68160714940172,-12.615502499014113,-4.804316729964706,-4.585173965540719,-3.422269400095443,0.8583180496782568,-1.8644045226579404,-11.317053845962263,-16.065412332442698,-12.765858020965771,-7.565495123272353,-5.39591593956734,-7.219969508746518,-9.764374201319061,-8.232623140632217,-4.4492584009443785,-3.011339792576079,-2.662253967820682,-3.3812176077553797,-7.255064530817787,-8.75349496224102,-4.500761816203079,-1.0060840381525882,-0.23969355211389498,0.019459223096593092,-3.1208205841693477,-7.420743725424403,-5.737514984563566,-0.34788866768433735,2.446005437406649,1.3850209594645513,-2.0673163755903055,-3.107345133390506,0.7095232789590318,2.4105779905245104,-3.007068483980504,-10.29528302908725,-13.208554908642395,-13.285985918118453,-17.464125030511546,-23.548648818959272,-20.126207644671585,-9.604867571969107,-0.4228719584352527,12.914415811674125,25.48633965936938,22.04329433714974,10.642120788703284,2.283184497070148,-7.998914216012955,-22.46280418275405,-40.41426986093208,-45.79725292787563,-28.685644765152716,-24.230178400425288,-28.57132303113179,-3.5347498484156006,37.84480126941074,186.87948137449388,473.65087210643344,437.63489917131494,-170.91148698476826,-620.8451761947047,-392.0723006977528,-78.25348085982804,-89.13388224760152,-66.12411918700886,62.42716175840636,52.13511723461133,6.495155239405062,43.760730410919734,43.43353329499876,7.858397372011036,16.209526731009465,22.961899608555413,6.8258008506983305,4.768095202471918,5.754824126332267,-1.8681815045276995,-1.0052456582123641,4.286508070990838,4.1100332423173445,5.747467558185191,6.0843272095616,-5.887885842117916,-16.542634956075307,-8.811578483839869,1.852983581745964,1.9666185614280955,4.270312918318494,6.389239801063397,-4.174289426557815,-11.952988717771824,-5.672710299556084,-1.0090964880368887,-3.552501387382949,-7.413697894427267,-14.067177365033249,-17.81302536314619,-10.692537674325031,0.03261213467692592,6.348544746098463,7.0873309947381395,1.541890861242324,-4.590604762295797,-5.588100734130739,-5.486849419011938,-5.556918274902109,-3.457943764257444,-4.035547769711032,-9.201575249205803,-12.645878341529073,-11.501513700350774,-7.02103498607436,-1.8482675320046633,-0.910306086783109,-3.5657410867841817,-3.7515413270253983,-1.4139354001671371,-0.3012721095572841,-0.15526981409292429,-0.15138296965176767,-1.1759254490164706,-1.7290970884700672,1.2826240022023903,6.458788206465435,8.159826304456635,4.647991551572799,-0.7139058375656679,-5.528027316423861,-7.60252870608075,-5.281574503547098,-2.340388111165691,-0.9829767795384061,1.415973815733179,0.012147066903079207,-9.188654858540286,-13.303145263991853,-6.247076613107881,-2.0694635018575847,-1.7266752482181031,4.649233759266736,4.764302039248072,-8.46476959221189,-13.506411983242195,-6.456242136157657,-5.158485357934528,-4.134904428971894,3.164524472069056,-1.088797846302242,-15.67628795793217,-19.42857419247823,-15.235077692371714,-14.227842091720046,-13.478355825952464,-14.517347648741941,-17.319032464294626,-11.710428681074134,0.655184224149532,11.848807107760953,23.881912842459563,28.462200641032027,10.54012315226073,-12.943715224849635,-16.75348412942097,-20.268877024556332,-37.26801482079975,-35.65045229244051,-25.87713577594017,-39.32037331074237,-33.1652252530874,0.6218809056532422,82.45572519359024,365.7275469701613,633.7669841503914,270.4649717670903,-508.4582037027978,-697.0993642867734,-261.4622068116746,-40.13361004072547,-95.6936262181705,-9.21335460197217,86.16408123980673,32.137491104993515,19.77677043096049,58.309111420998846,35.98916290259321,18.981636604268907,31.837634386758296,17.242276625785365,3.2320320736505432,10.333059257834668,7.608275806990098,2.9618668847221956,4.0827381425376075,-6.806462074670731,-16.15141661857532,-8.360468252651264,-2.301608613987524,-5.063250964927615,-4.907341614324237,-5.708095003924251,-8.512121324189051,-0.6184633175268515,11.231373091739975,13.114535827904334,13.186990056141399,13.046925640861335,1.892830792671412,-8.525067337858045,-5.54645975263179,-2.5268830605894195,-4.0276421548181585,-1.3683897134334018,-2.5365320591551868,-11.627551190233376,-13.63744473210021,-7.094156448901771,-4.557026607679822,-6.055535392310146,-8.496633593754204,-16.447945131963625,-26.652720370946216,-28.115961409418258,-20.385249120091814,-13.40829787297033,-11.462373804061244,-10.588009575154356,-8.588446443555355,-5.320598024327449,-0.23458881050226132,2.897099984615453,1.0524475003244707,-1.54915278191325,-2.0956892591029863,-2.071273198123748,-2.117924562724,-2.6518249411533894,-1.6305715500460511,1.3015762663115211,-1.139684772990968,-7.263525630639849,-5.831199721718402,-1.4564716905613073,-2.856099466471674,-3.037741697796582,-1.0864631052750404,-4.3638083437206046,-7.662129535406585,-6.194577401355517,-4.381411724541498,-2.331944422321028,-0.9277124394486513,-3.35932175588525,-4.753325096612496,-1.5590896973676767,2.4348394496277397,4.556903246891652,3.8184012260645814,1.6207492972731323,-0.39676447246889346,-4.121925320806729,-5.89140650165037,-3.781571528164534,-7.548596571202349,-14.35579126479904,-11.997849198777075,-9.313212540126049,-13.829892019545895,-15.090573909934282,-14.66978130624586,-18.28556492551483,-15.701484305035809,-2.960935113142373,12.163344625983513,24.0138470867533,27.811915862510045,22.06695713824206,9.532093718538839,-7.035908071772093,-25.541382404491657,-40.3750734521399,-38.083954553217296,-25.85256656653724,-26.0559918576824,-22.979135072125906,-11.452985551278509,37.87097643699863,275.00136820797906,561.9527774130049,327.99456653372283,-379.2165169730618,-657.8159283304254,-301.5372698109353,-52.099082733919005,-92.49530147696814,-31.415414199018702,71.3558696022318,31.928936831097694,7.975866089037035,45.17161304492241,31.60490113909263,10.82114260329826,25.68334921534822,22.375829230021758,5.668097410901935,2.474467605778935,-0.7243428266798277,-4.317892486935723,-3.6841142614583955,-4.142259135715781,-3.3909111853874796,-4.789445964444683,-9.771258980804781,-7.407199414117014,-0.5609903158208631,1.2609153938659565,3.1311657241069133,6.110775398788396,4.80778879580471,4.95107048700933,10.297380546905675,12.758751982832703,9.983164986521851,7.595741171156169,3.9035728283295175,-6.277296723571807,-16.846229613224743,-18.815270033718377,-16.671668422209024,-16.68023985970396,-14.408984458051739,-9.637951233329414,-8.002673052342029,-6.606690625230918,-4.002784246067197,-5.699800855389604,-8.62579611084299,-8.69104106099579,-10.629089700805894,-11.969245635838798,-7.861077557464178,-5.540925196961815,-7.322488224783937,-7.222357262300694,-6.947287486160939,-5.879850977362998,-0.017350988180533378,2.392138075937776,-1.2401578127923418,0.6013235599560298,5.471905862586631,3.3393996398672545,-0.5437222066477991,-1.8312149152721924,-2.6243492330955283,0.7425061255626844,4.838272593868254,1.483442341184567,-3.0352061440919194,-4.780492544051013,-10.17438559031255,-12.973877110782343,-6.904394053421891,-4.73143345130873,-10.369372358988004,-11.10132354250618,-6.88192030588748,-5.326049176124135,-3.11202697850449,-0.581942060408263,-5.15286909289749,-11.268891233732008,-8.253466819520453,-0.9270096572530724,1.8544687018756845,1.2523853612149676,-1.6287461250355868,-6.8093451777095915,-7.658793577030659,-2.6120729824852766,0.2091468131897516,-0.17999874258387827,0.9822706393664031,0.8801030660380835,-3.147410051984071,-6.694031944233265,-5.987664216311402,-1.7823352203938079,0.018287527552942606,-4.85066215478807,-10.0108029971742,-12.485250247850958,-18.855688566709436,-22.40971292521881,-10.267438538401748,7.134310682134009,12.798741287225125,11.583684346603055,11.883212086735501,4.639179724657453,-12.568679530006397,-23.709953324274096,-31.80100784691513,-46.53125434877001,-44.218578899116864,-28.792042321713716,-33.295515201607444,-29.77540075763535,-2.7913128132918246,67.13961762181711,307.4999619374545,543.2085623898456,245.39943667040214,-416.83437332440343,-581.9272143352451,-218.88046128805107,-44.653266254163285,-93.5240875461401,-5.622657319031148,78.93761048522855,25.4910073911122,15.376659291791762,49.217304665872874,24.25620002753724,6.727754434979228,19.804578988957683,10.059067290156566,0.2428048189125498,6.161977159205302,1.3779758111020275,-5.831690285159244,-4.9730349176374915,-5.766390980095084,-5.490265191023768,-2.78962389011191,-3.1488525906885814,-3.5339133552247275,-2.56800390140254,-2.0436512405727516,0.4529362957247094,5.069859011392598,8.21139808822093,6.124995572248346,0.06811583947347533,-1.838191158595703,0.06173628818269927,-2.873938850220532,-6.95702415693351,-6.637875911813058,-8.876824310297915,-12.463790670519113,-7.3915409495573705,2.9631938761868035,10.965929476620609,16.15414954118703,14.770305722820888,3.8367103100097335,-9.282363781276938,-15.268864174360806,-12.940924538755347,-11.511849337055928,-17.754378955196167,-21.538652476879445,-15.410408958910523,-9.541352768175685,-6.159010232131347,-0.11337385716855053,-1.4219680461373425,-10.217798311367106,-8.035480472198643,0.2638670442765072,-2.104066647505263,-4.4948268964129365,1.217458816537878,0.13049557038071669,-6.506417311857015,-3.117671387980561,3.611631481944972,1.5167867423192574,-1.5210057396524608,-0.09470643145429047,-2.8814178736939544,-8.52218278115037,-6.079317350454248,0.1264807450570702,-0.3458963218421882,-2.2049984312624398,-0.5176333287487918,-2.839773025816563,-7.662041653471448,-5.617352412591239,-0.9317899295733838,-0.7644176324235179,-2.235035198936708,-2.948483374054506,-2.5630673619514592,-1.5657868616631632,-3.4111406197705616,-4.698955493516348,-1.9927727230657153,-3.831531273213984,-8.55122569896581,-4.0392836954890985,0.9355472185642206,-3.8929361043689896,-5.719278989163362,-4.08727619638694,-13.514623488688141,-22.981410512618503,-17.988725022366445,-10.805622534513084,-3.718292212586248,14.563618908014355,29.543114719542118,25.071922718257273,12.673798696858958,2.355537066076801,-6.758849273276659,-18.0491418361727,-32.72177900837756,-35.86774262365461,-32.485172134529996,-44.2438419231749,-41.96303971901475,-12.777588412827207,64.9418108912202,329.50201747385415,608.6237244403054,313.0796165044253,-443.04522829576,-697.5411144435307,-296.6321166890549,-43.43537603665877,-94.9344778131246,-28.27284082285867,81.91951861291838,41.912704785088124,18.052399544961602,55.59683172734222,37.17581659830738,11.73483497500738,27.888040834579233,25.409193732100533,6.592264493844645,5.485951728013942,3.9328768218294234,-5.357666768815952,-7.99965276136059,-6.207252870228431,-4.3878815323324725,-1.1317407130764643,-1.6107068956636192,-7.4275305831623175,-8.75158391776241,-3.6157121334787385,-1.088760456094872,1.8870437794355828,11.246250458565596,13.832651088291355,3.844718664883101,-1.6816372715909078,1.4202563021699646,0.5864585914389364,-2.4234870016769046,-1.6189205013888657,-4.09931881217875,-8.816110874282012,-5.532501203787508,-0.5248104117141832,-2.823384449167719,-3.502714708414209,-0.3564972065047698,-4.345922082529146,-11.321864429940451,-12.38756276690139,-13.273600950598084,-14.088724166631897,-10.824099972997319,-12.201680523555737,-16.380249902897766,-10.397785832094788,-1.8029910906369153,0.3993748529109915,4.582914742899428,7.478980340241628,2.6219102320661865,1.4502249985914215,1.623582512068932,-7.977153138277779,-10.43645220230025,1.0251197998347834,-0.7779339633114013,-16.445980244188164,-17.520269215275384,-7.4518884163866765,-5.666809829764695,-6.041216631673301,-2.8704830603478193,-5.577356888550462,-11.20888643668317,-10.344639084598562,-7.263199900767578,-4.9467036154785315,-0.8261390838968659,-1.8294680093579743,-9.452056652960534,-9.80270155767564,-1.7743211548779634,0.9010252083625119,-1.3954905789855196,-1.2427862131099463,-3.2044423048432886,-8.020895915438889,-5.853643133842138,1.666556877068011,1.4138250356125486,-9.231912844677467,-21.530025303085594,-26.76679481497645,-20.939273714572337,-9.677147667417337,-0.6940067069057569,7.685259541246749,15.268547543985932,15.743688764198495,8.282091699393654,-3.2155767874521772,-12.095418145204235,-19.097047487855992,-31.53575574638368,-34.31384365309282,-23.836455789686386,-26.502549615651787,-23.26824943582848,1.098050192516716,54.3792086879711,273.75914431819405,557.0058027233838,339.28620215918943,-374.0748775365032,-672.1857873291555,-305.786589285138,-35.784937632729545,-80.6194229014572,-30.414720719094102,76.26383706026549,43.59037800949483,19.092670793402608,51.10565552284359,32.38457867574795,10.094330753848814,25.911727681064527,25.134127869321,11.598160183120426,3.9603803642078077,-10.54708902415166,-17.81184073370825,-13.401861464807592,-14.680980316325826,-14.64721179351561,-7.586527714110909,-4.13190532185749,-3.861617606892171,-3.9040362449849617,-4.981153628012265,-2.6143552452775642,1.4725337728146748,2.4830118997684436,3.914744687322975,5.110631027621642,0.9517815614977438,-3.878952181703304,-3.01964390784938,0.28635366533958173,1.3674962981385876,0.5641124230661267,-1.8792032354067416,-5.815975637480914,-6.070795792900496,-1.2407915088157395,-0.5023468012870786,-6.050399755730012,-9.90273750619763,-13.477359824024951,-18.411283851932247,-15.847191577361322,-9.104356111899184,-8.76993725756482,-9.601479053596965,-8.84697628377613,-12.369252329742086,-13.002378069876158,-6.365798672441427,-3.572818002383503,-5.307933813094245,-4.071992603283378,-2.887356782956992,-2.4915416000166717,1.6682674271708482,5.861881719258554,5.385696942045107,1.9625787116591153,-2.2680449889709147,-5.047692910092424,-4.370758852693959,-1.5777744282741732,0.5927866523868284,-0.38246385587390286,-4.278006803766498,-5.74600251050357,-0.9536795251488304,5.132253622928856,3.6676771362762697,-4.320734394541875,-7.412994460670566,-4.108437429044779,-3.111639032026142,-0.9832266530927116,5.181340621942956,1.3857534499029711,-11.41255639857596,-14.572918417006065,-12.005191486503286,-15.213419637091802,-14.658989301783453,-8.29299450674346,-7.075888766421031,-7.0731894314131125,-3.2410287450128354,-2.208580753429594,-2.764935661560873,-0.3762856142227724,1.2701843963696033,1.7889446556708872,2.187835168634937,-1.379812031538389,-6.824710167776367,-9.4481463371865,-11.009318116573699,-11.002174435220365,-8.630000070984366,-9.710900143803071,-12.73005291045864,-10.669711895100976,-6.906991327410815,-0.1256789376046199,16.28711044376435,26.731559409797054,17.145702740622852,2.4463813581820797,-8.131502542659833,-18.83922826191032,-28.29006017108794,-38.23643954703287,-43.0822280266796,-39.388092034067114,-39.922994955687926,-29.63101488657908,-4.863026089945208,45.20493421782318,257.9595378322392,537.3947616783129,342.9966055231565,-331.58340259465876,-624.3628832332839,-288.3814158736314,-43.827068681411305,-94.67006753438118,-39.401198195929496,73.87701915588137,39.14632263464437,11.881061375112543,52.57262103309281,40.72490952652421,14.594670731653357,25.977547065447098,19.440475250629397,0.5004242509377175,2.4811285959591185,2.887207833541302,-4.214792067455976,-3.028723298959923,1.5926045545733425,3.6443018831612557,2.190319185276106,-4.526519400164662,-10.085929569370828,-10.128793528508169,-8.646060071763696,-6.0779229666342225,-1.5305813920396316,2.269603288801056,3.5022766889518326,0.03205594387690791,-6.491731607485773,-7.514571262287616,-4.171536332762093,-5.836966582336841,-8.765101040258632,-8.349727850280061,-11.292906870025844,-12.93220891214784,-4.621861603520925,2.2703910250868944,1.0931483126841437,2.557308426536185,6.38054414090835,4.90934973164811,-0.9065901604663615,-10.895491722564566,-18.79005627077812,-13.605300164021322,-6.6646515846917715,-11.90372548900395,-16.07783046501303,-11.648621574522416,-10.247286788279473,-9.674087357775552,-3.1010273608552,-0.012752469197183203,-3.1959273108366304,-3.4604123959676096,-1.4072686896768012,-1.4401411994526834,-0.44169673863773795,1.0101343093333446,-2.528294164077149,-7.177797413232733,-4.707684610963738,-0.28336120502782336,-2.499984539819195,-4.392013059421579,-0.8703315157444349,-1.9923864555573871,-7.296748826239904,-4.844491087852441,0.31103219121234993,-1.641139630535843,-2.894143011132762,0.6239569933522704,-2.2692981997308284,-11.535792370015098,-11.59742365614509,-0.8297925462264573,4.096707138482543,-2.1011154405523413,-6.770561010774982,-3.966910579821386,1.0074569582995396,4.579240743104275,2.2113152109359397,-8.662523303711293,-16.929527594181508,-12.946623818069714,-4.946599912581467,-1.5129218290247737,0.443853494005614,1.2421195690182198,-3.7924780299395593,-10.630838950645035,-10.966857960284297,-6.9892464974004,-5.072068529358075,-3.246314136124333,-0.14973666386357465,-2.114914424384411,-8.766498509261275,-10.311477949006472,-5.842105802537491,-3.6221760702449366,-4.513521694280065,-4.49971349605349,-3.4283450670376237,0.00245703650507334,5.6438225688136985,8.698889129051697,7.368881952367885,-1.4663207053911593,-17.546372129894134,-29.27135096265398,-38.00648489678178,-46.08909743379366,-37.601667442741174,-27.007011554590065,-29.999574547387173,-20.88197273895213,8.96258643861455,149.08407327757004,476.086742880443,574.9121372592815,8.432497632318928,-633.1265698674868,-548.9425195117658,-133.69021148904667,-54.63132946220462,-82.91286193143137,40.54867762175307,77.7604126535059,11.76193958268552,23.68792365979475,48.515202714210176,24.578566979662256,24.009653926344157,33.83042991832628,18.01823241284439,5.632650270733282,-0.19833224549959017,-7.261388892963913,-0.968478721435786,7.276399739536013,0.4460274243887188,-6.954560972271265,-3.6459663166246212,1.8733454155683742,6.068725894552477,9.499862223160608,3.172879666062114,-12.50242216121082,-17.566755732450282,-7.565876558575961,-0.6060242965834499,1.1388338651852807,5.530386633146584,3.004340424205571,-8.318823197869772,-11.814708984024474,-7.168303950857932,-6.220969747282229,-6.068029868550611,-3.5422260239735177,-4.302826544704168,-5.0155873084663245,-0.12138909379420326,3.3344350120640724,0.45418745364861834,-2.429773884265966,-4.06902556018972,-10.688754512518306,-18.64439587996891,-18.512125638514362,-13.926304754576497,-12.237539137736904,-10.032967257045517,-7.10810459455206,-8.204010209222151,-6.93116937475592,0.6795362316266234,3.963066061531345,0.3449525443180992,-0.5879128221280379,2.597101392244855,5.1494103305593475,4.894996171168784,1.8629687013672762,1.0157216345909195,3.0343678261997136,-1.0662793309009073,-8.796913460130456,-8.909551401497325,-7.578513137584511,-11.043817722830694,-7.657871184566963,0.01339980759067494,-4.0986961374773525,-10.446523344376619,-4.478604938875429,0.7097370435499988,-2.3129826886666915,-1.1012257253639053,1.6483968011174444,-4.164030042530257,-8.519402070041632,-3.8255550450207823,0.33410949318459426,1.1693098517793103,1.499257869772407,-4.439938218807519,-12.818721582262011,-9.96746253195727,-2.1429841947374797,-2.7966211936373213,-6.3440789231023995,-10.804411813887045,-21.49410455239095,-24.68163459208054,-12.485748590886002,0.3569758554137463,11.52199543256673,21.45804630449254,15.286314017167635,-2.304585299763147,-13.578416844155251,-19.096943217464336,-25.690261596817663,-37.73452316654303,-46.06044806334931,-40.31539553311639,-39.03202880713938,-34.96439311981344,-8.589372786628996,37.912273804517056,229.6993115988176,560.2927735807556,484.4528074693275,-224.21594496156612,-712.6852151396896,-433.7711064947357,-71.76963273891484,-80.70460179094903,-66.43866222941762,63.85301014641527,56.86943424262857,11.296761040032592,46.28711102888229,45.968682800835474,14.282978184857498,21.55593531793889,22.758388384915804,7.819399256964123,9.76421839902575,8.177062045416006,-4.624477164508036,-8.076581429317102,-5.871247181986501,-5.418308251117449,-3.7161148087155293,-2.0227329580061753,-1.5794801795643512,-2.4853855342753297,-3.3599768567421497,-0.12807464308282746,5.694051285354234,9.474424640801873,8.119749888142106,-0.3924186942716519,-7.972858642176979,-5.454832790016919,-1.877827861195306,-5.0439889402026585,-5.68813200158802,-2.5557266158711887,-5.3224537126429645,-10.014894729871248,-6.187285930575136,2.4288498239887364,5.9930100234027215,5.2540948024540395,5.134616392677417,-0.5132208414735882,-16.318150710729025,-27.759218035814865,-24.403037994393717,-17.92355904440757,-16.453751318284432,-16.388589112185144,-18.011416570138866,-18.267275632044296,-11.56343483703214,-3.9816750159729075,0.42915025686060204,4.40654496144758,2.124041589172812,-5.139256543448177,-2.8407433725654414,5.129697761829714,3.2790633780846807,-3.964404342637282,-7.578185626373942,-10.368247309239026,-11.382105602442328,-7.275210391050834,-2.977726123953513,-3.3760910532560366,-8.025778773304822,-12.71923400284878,-11.25919262357571,-4.68074391163513,-0.6977722483622308,-0.9350184812280133,-2.4559265178530207,-5.340977400593584,-8.342922718659052,-6.652670105677261,0.49541522599609955,5.510507070001289,1.5629026087649933,-6.7250095627850115,-10.834983026760892,-9.504209486266328,-5.001783828828068,-0.5675290345324981,0.5964180551197504,0.03834695322688475,-1.75849682706834,-4.060322485005544,0.9957518116655057,8.401233888893705,1.1612161154155984,-13.39432451221184,-18.648834818053572,-21.13239294239079,-25.111352686395325,-24.303484960796766,-22.988853126891136,-20.191026826303364,-8.486924117859754,3.5687788379291927,9.366152005837808,15.336376455647576,18.326893368017373,10.048936188891181,-1.982313791449057,-8.00762880010223,-19.250051546591976,-40.06486578224649,-47.878278656654146,-44.93933365646121,-43.01710870419172,-21.401733423469818,6.61072943522538,90.60760737858138,362.658690875527,546.969598194175,137.88843986656997,-506.9146167551747,-548.9606085420447,-165.71279521791374,-50.01987339804394,-92.59337605708532,15.716128797846732,73.516458448767,10.99760802170912,15.262105539741595,44.91355018283519,18.19986482181866,9.708927328888084,21.13110426141866,9.390566659635857,2.6647510853029024,4.406178104662224,-2.605977624687095,-3.943808345470515,-1.4592856550614082,-3.6302568131901625,-1.1360381080462703,0.396387269771596,-4.143913307794634,-1.8345743391251788,4.687369759915336,5.22946236765017,6.136597849841996,7.833541376382069,2.922130691709786,-1.6238076855548358,0.2592833302238522,0.8636013507313924,-1.7021732398983893,-2.782273783773773,-5.427213400593376,-10.283006648449298,-9.373031408242547,-4.238204733872466,-5.128327922820345,-8.64533095469477,-6.25025460453312,-5.2477846446630085,-9.474305304443636,-6.846558107593571,0.7015517890302991,-0.5423755693147534,-4.660477488626025,-4.16409843658348,-7.515743978209279,-11.351793757452294,-6.19092085253861,-1.5055624943590047,-2.7910059329834542,-1.9695783716394963,-0.4371770916740969,-0.5411342641114718,0.9759033598853915,-2.5972409342215936,-11.493997590657372,-11.809058757554045,-6.5784732264152765,-7.7409569841132715,-8.337711497016121,-3.9748366708619205,-3.928883303490405,-6.363655938737654,-4.293311588067072,-1.994265745514408,-2.004552957635088,-2.8599009159526076,-6.496545151298122,-8.768328682250974,-5.011191794581839,-3.697296910006152,-9.062174186217534,-10.780367782895894,-5.8601733278038015,-2.258342752215979,-0.9467794908668505,0.9939219580444183,0.30147734663912296,-3.7716526070989307,-4.554068810008104,-0.39986327637509866,0.9144373014770348,-4.231181858907844,-9.632187754430323,-10.149601735712224,-7.09520838473582,-3.7109722912843814,-1.4361870826057466,0.6770443299301885,0.812995464243591,-3.8286698111016353,-5.847917053783341,0.0004041057924490943,1.750661179103414,-5.180738671640091,-9.122237667208006,-10.52636397594746,-14.702369687763786,-11.513617477758766,0.9340592034008419,9.105745801577235,11.827147834380096,12.279809052611078,0.710916319265686,-16.354887976137196,-19.246676930221557,-23.248643679908273,-39.83518531939341,-37.48522290710611,-25.522219652418105,-33.93179481310645,-26.409028043709718,7.502326239129289,108.36606112196378,394.63728543366483,584.3319462548598,152.31973726385007,-538.4510741655665,-597.0923391683218,-185.45033368082198,-48.28570967357382,-96.81671900880885,11.17182845970125,77.89759435926142,15.296003247032882,21.529659010517367,60.14786179795945,33.54687639072638,20.890052721084984,32.8781213406495,15.712077885636763,-0.8571228607564088,0.2981637792115235,-2.239520080711384,-2.1106689030107066,-0.6810030203204009,-8.35883562962534,-10.345673934689135,-4.0444251796490756,-5.845836682220003,-9.260157676244726,-2.5248196858094154,2.375424946202406,0.8292450341390805,6.164321776950504,13.290822944892842,8.944247778537225,4.63142026893901,7.293014684401719,1.2879199778368227,-11.615639527780996,-14.406246265028484,-9.366900646459207,-3.9616677965684097,0.28086845135455807,-3.916841744467569,-11.33963949010105,-4.920364777847746,8.27767198823194,10.801889922798763,8.166089174301273,6.531272318743371,-2.904953291134177,-16.183762142211524,-19.619285757175703,-17.871659985975526,-18.53653163821775,-13.93734170241613,-6.16945238730591,-8.066529256665175,-12.31820522928243,-6.3004179990083795,1.5574582582317857,3.078371548267439,1.8650469701340509,-1.4667734842739835,-3.912498070665965,0.347200447325426,5.719291567454178,6.266487746741456,6.7064341412584145,7.83658120014044,4.809085267305846,0.8339522678353677,3.06837690760984,7.61369393056191,1.97439236370648,-14.128614242796715,-23.996459758488264,-19.383334372440334,-11.959039393378934,-10.468315495757128,-9.062761259698553,-4.211157653846399,-2.2915627472203237,-5.7963880383532835,-8.423395704882253,-7.284655941512692,-5.377577399057522,-3.364485323862498,-2.9109589445499555,-7.414888657571888,-12.045792184131994,-12.52727309698195,-15.194482957838094,-18.65225864398538,-11.406290485613543,3.338376383861073,11.434337656002725,11.928646843504858,14.618252643453204,17.90745285941447,8.498945506140902,-10.468010440045603,-26.370655720714325,-43.423003941482825,-50.02650146344303,-31.862177952726164,-24.057971480468144,-28.025902882162008,-7.386612384234587,28.88759830999048,190.53969406241123,529.4277630843906,538.1113140903293,-129.10064738776032,-700.6563448336087,-495.2220398312271,-103.80175605432709,-79.34213686383697,-74.7256590319364,62.092251728235325,68.73087499837834,11.252953108707604,38.22229565135791,44.0036646902259,12.678542153079784,20.980899882124035,28.405340832191484,11.328742540495298,3.818600147991747,-1.1609412289145684,-7.481928821778797,-3.139637811190883,0.8274758781401674,-0.08930680101275801,-2.02654070068459,-7.2649366166700275,-7.4457659428925265,-0.5793133680896707,2.5312268122739074,4.3485701978167866,5.036534341773298,-3.728755996528559,-9.543770877416375,-1.542924461042161,3.901302469238371,0.41533622291585104,-0.09071734985770519,-1.3837787478145493,-10.50401267027204,-15.049331339890646,-8.82576805657918,-4.329361661537543,-4.922672832201311,-2.815453063826393,-2.5056740573528646,-9.096020261801561,-11.432483728689153,-6.508585200637267,-6.581106795119895,-11.12100341744636,-12.672080250079294,-15.235395008143758,-18.0932532079304,-15.960524996859103,-14.489252217317173,-13.733103344233603,-7.255380626932979,-3.3727903561277532,-5.862410165192912,-2.9884536500227235,1.6475966423602593,-1.2874958917347588,-1.197759634466502,4.073669765647331,1.241295377010955,-4.851185522225757,-3.7332506279203326,-1.4418683754754937,-0.8547945103390404,-0.19528978482154002,-4.0166536664519885,-8.208977528988846,-5.7171358648295225,-3.6491901271150287,-4.219743244513733,-0.11191525791476309,1.473389061001006,-9.068298651106279,-20.052218508079854,-18.208551086299174,-9.503664455192004,-4.493909036182393,-3.6388566600441816,-4.3039014927366726,-7.278292161656683,-10.434357640072148,-8.339634295306286,-2.178575921092113,1.8264681452789393,1.2157548717803,-2.8463889212911475,-6.457001257672266,-5.933661130052734,-3.3326802493815073,-1.582932950264528,-3.704954164765951,-14.592231341927649,-25.560818235319992,-19.274991723132516,-0.36660017868277617,12.557671875910614,16.50179283488869,15.869130635804488,5.832769687161527,-12.332803860060734,-22.800836190136504,-26.335476764103902,-36.960889945009626,-38.4928881856854,-26.632467579523272,-31.23978552425956,-28.803702829600784,1.5937983932891981,51.649705006766155,249.04798015185742,535.7461933159373,372.2091890559036,-308.68508137957576,-644.7930646522511,-320.1888366536386,-51.332404786984824,-92.86757708985215,-43.65285091603167,70.89440989226229,38.009086523705086,8.14774239223614,47.96821571952239,35.977448370204144,9.827235934212435,22.45464093488937,17.646369310819047,2.35419812099898,7.59021813464887,6.248182635055328,-5.733644435616464,-9.913375061219195,-10.288609628580083,-10.325094662606006,-9.420381859482408,-8.228892218550097,-2.853177152398679,1.430899888389698,-1.6182132095532804,-3.2157642213779702,-0.1855084916672638,0.3302518994834518,0.5884161072311898,3.240109426241956,0.8432308317420016,-6.8392943033808695,-9.957499983715294,-7.412798351954375,-7.366463792279395,-9.839771044577821,-7.711293307160167,-4.211091965755729,-6.233802882337457,-6.199091492294456,1.7455267973465807,7.58694365223685,7.014901154652892,3.2471872496405787,-6.868123400350804,-16.40186143500916,-12.376930649454897,-5.094698578670577,-8.532453196722406,-14.77184052009001,-16.90628609116797,-17.0524857989678,-13.138072995707835,-7.5190844266280426,-5.696678379823508,-4.927152229540386,-4.328353802458306,-5.429223687849866,-3.944012354628301,-0.7688433113812199,0.39709828446925854,3.434879223340701,4.601808724944297,-4.063149274080576,-11.73600144703985,-7.787734915656242,-2.285618574503271,-1.7906074141820802,-1.6693548135765717,-3.8045024311872115,-8.622731972398782,-8.048886793336013,-2.9413540259574917,-2.1850509524441257,-4.207490657145402,-2.4867736870009622,-0.9749672632889741,-3.4567174239446645,-2.2213674781872363,2.823251932787704,-0.29771570865747776,-7.958984695649639,-7.6953646372484545,-5.376692102196022,-6.38418603592018,-3.5237229143360045,-0.6270220172378398,-2.467698992264552,-1.9112334088438985,-4.010673391858207,-13.682254434936745,-14.75369370749663,-6.197648367118719,-5.686966256461099,-8.844273790035057,-5.586708388048354,-4.02395423020535,-6.155564151373618,-7.024464488001405,-8.95797641022632,-9.944657165255322,-8.117193238119322,-10.30625601824454,-14.395486214715117,-9.246625140726405,5.125126330843209,18.44665992423748,24.92326704852038,23.589311097361186,11.57630690621744,-6.81597632173517,-22.938457496607107,-38.88952702514794,-45.73072755912824,-34.77145891582681,-32.67502902064079,-36.60606580632416,-18.97806967861444,18.944181952933207,181.34437874504914,479.56396472291976,441.76191329247933,-170.58529852016258,-624.4576530164645,-395.55320271855294,-69.04890794364469,-70.98771115384496,-56.21550045939853,63.09560062563004,52.029145990447404,5.041535260657555,39.48167593110652,42.91250187780572,15.784475746848672,22.406093956841627,16.03007210023728,-2.09003526907225,8.529171057192043,13.79814269748711,0.5294385148377447,-2.141917351494162,-3.1525526366430654,-9.535663531589723,-3.7205704580067525,3.3345109770600674,-3.588708266276516,-7.7157180259979885,-3.0088482587619323,-3.787160363727539,-5.12766588744024,2.478729464857353,7.197006655587137,3.809159609741029,1.2639234904850136,-2.161345388631281,-7.171769531967576,-6.176015242223096,-7.780834638842162,-19.08418460635938,-20.45976816255957,-6.292264101717233,-0.08752571307724821,-3.630406467243245,0.9558646101783115,7.565985293271767,5.332915413552233,2.187627528349137,-0.7700576114063047,-7.1583528257425,-7.805165708985146,-3.2280937184036835,-5.049887585879045,-8.967041930610838,-6.312935657882554,-0.558621001442094,3.165968830705472,-1.0176534660602936,-13.413055851245437,-18.419800748323226,-10.07594712530602,-3.90954443557443,-5.379828752865233,-5.637813448832748,-3.672167426309249,-2.0014929641174906,-0.34937289811344563,-0.8679058094531644,-2.2364732773603997,-2.0921237874934917,-5.566478126701107,-10.784470571649283,-6.266062186006703,3.5752059200860677,3.937994648240159,-1.1719640226428822,-1.030356922128468,-1.753203640633906,-8.092339902511538,-9.628140532171463,-3.987836189723957,-2.1927890321055576,-4.8833483464417755,-3.712901977783666,0.027251012592180324,1.6127503947170245,1.7069115860336046,-0.4254007477156705,-3.962035082718751,-4.247379197349142,-3.5803538582955783,-4.980032334728297,-3.066570845234092,-0.7250818112160022,-7.607619395875087,-14.98091972217983,-10.186758443901216,-3.0284189510163504,-4.67535642190607,-11.084268114807912,-17.99361036569983,-18.84358555243018,-7.24632347634466,4.538734156114311,6.439562175376915,10.036404141008507,17.585256373137604,13.523111522142612,-2.8141432671364357,-14.91302167274171,-21.791170704627625,-34.94347232423166,-39.23776636250298,-24.860810577028346,-23.57577172844381,-27.753961591952,-6.795089187816185,38.96348364981738,225.4057907687493,548.0793895796536,483.7007654918923,-199.9171052586596,-692.3789467174172,-444.78307112406674,-92.09390054246646,-85.32883310492802,-67.29158528247513,53.688950914198855,44.42025028417203,2.801569692949897,41.36617074966927,44.74251145312511,14.754337923498698,19.868508010298186,19.141967822322197,4.7340959017203375,5.143421487697752,0.6367795894154291,-6.259477499000743,1.501961059849842,1.2971532409211308,-10.926016185258005,-10.37365349639418,-1.0869060089725053,0.4592143025290447,-1.8037132993886802,-1.9257542961699183,-0.17583616783809974,4.560128638580916,9.041796444986062,10.373776634273355,12.537134670823836,12.087318797480695,1.5050344305539394,-10.680195757087514,-13.638206083143235,-11.6561472693278,-9.14698138604319,-7.083213521864586,-9.615779587407516,-11.928210642235324,-6.8911554502912855,-1.3931886651078358,1.2184818270455633,4.5114458158672095,-0.36346762449711,-14.605568596899477,-19.53081760764777,-13.135218107993637,-10.68116480288105,-11.10390564490946,-8.509567986356515,-9.73427843759177,-15.226258149629674,-14.334515781101357,-5.3073833336139415,1.3576949304069874,0.3094332704508993,-0.858384680541743,2.2794318827678044,3.146988108136033,0.857510247093944,2.087942734580823,6.601001469855388,9.50665264853625,7.854849830251094,2.6864130981609446,0.4309544908792651,0.038657952390710904,-7.181179533530468,-15.415868264158851,-14.991709846137862,-13.394203292525408,-14.468488596231367,-11.591997881767632,-8.362002644388625,-7.54047450705905,-3.3647392754765946,-1.0632101763269528,-5.246606425566204,-6.351699041875932,-4.5965884523273175,-6.92296073512095,-5.670720716839696,0.7068902357762425,0.18912994480113454,-4.347880755369564,-3.270644160860849,-1.8392576747134637,-2.2650958694800636,1.023974841914594,1.2991787516838347,-7.68446039557503,-14.841117867338685,-14.327214368482014,-14.921707630560194,-16.905803137021493,-13.774628892455818,-8.887295255175099,-2.940956879760159,9.008156347825032,20.46396357520277,25.503522053129274,24.19211368346911,8.000065582634196,-16.861739577190924,-32.159956253329604,-43.58411414081503,-46.35765726944739,-30.073472657396934,-26.000386145890985,-32.02713130020865,-16.366406365268897,33.99596830268271,235.9520878980562,538.0595065852397,405.9493075232228,-281.7529782449453,-668.5628756986573,-354.4783014501063,-50.89568934015816,-84.65084852657182,-43.990129822963155,81.8134365235308,48.45195867048007,1.736064862848865,45.28327627997279,46.752210209486975,20.467148177382974,31.741082105252275,26.6600583899155,4.078303284171002,6.884085312650997,11.33549635423996,-1.4472194092230772,-13.294476620580514,-16.817471832654647,-14.422245420955969,-10.435814724117716,-8.63722679529115,-5.050200560628532,0.25140197642603557,1.5905518429849668,-0.09845302998976813,-0.685910907635539,1.0384702079203505,3.18461011700808,2.793365135274249,1.3230348622010606,0.21633438553174322,-3.6397891556145794,-7.6865821634564675,-7.608360205887124,-9.03376938017965,-12.174026941449211,-8.670790304568017,-4.392100127325866,-6.439659723481585,-4.162097943609643,2.9943610850047238,2.343223515530079,-1.161585368008991,-1.2977504263405635,-7.397083435148216,-15.46887723830193,-14.26760635792388,-11.574847915830357,-11.761122291860024,-7.587540989156599,-4.710892549603793,-8.362541760771295,-9.36667124373422,-7.011229403826909,-5.76438471058,0.17411360288753563,6.507699726824356,0.7659396266658725,-6.577717255569209,-0.9003472214958306,5.22657577837038,1.439101017404501,-0.584158549515287,-0.4105096478438508,-8.234854533609788,-13.487460966613181,-6.9572485707275815,-3.406246913314174,-6.941718423551937,-5.404002095936796,-3.4555423962810465,-7.548557473392913,-5.628215604523054,3.4988747225039134,5.411264584899346,-0.6145953896365999,-6.492614524713872,-9.673631593173834,-6.2257285482752565,2.7076665792263714,5.1923710328377375,-1.982192224113227,-9.771329131741528,-14.352201486654597,-14.845281946944663,-8.658706857103343,-3.695904492246733,-8.367236001871568,-12.152763945130156,-8.455174548362338,-10.821954185867959,-18.97553386458455,-16.454493916268675,-9.473607755717293,-11.876292045674615,-13.566194210326408,-5.357555022851334,6.350250557812282,16.886136214881432,22.2650250631323,19.595006630399023,9.52006802461105,-8.556097988346927,-24.71166568793472,-32.000058154621875,-39.405131686691576,-38.81223606791386,-30.12998569214881,-35.43247608246379,-33.16346134315367,-7.501837661592106,65.7353365944574,302.79153128444597,530.1462187509976,234.8797918239453,-422.4539096077471,-590.3881011089588,-224.1171201297326,-43.43456113114826,-97.00162631222898,-10.551709473140924,82.9911438511431,28.775679359100856,10.799167846363794,46.5152301330793,24.587559317643905,6.330717677842997,24.334585678618943,17.806254397923855,2.449288140373124,4.59181715115067,0.10030368878780127,-6.532441552796261,-0.7147489496901631,3.722820744862205,0.9659163822637247,-1.4667275743569235,-1.1829219527374422,0.6588202983162228,1.1992010001791793,1.2483349182633399,3.0091738357975717,1.5432342338089278,-2.653628637663086,-0.8557878761221973,5.493654070524725,7.324666329279873,-0.5246797391292244,-16.080096056160908,-26.187808332518,-23.620550978620226,-19.61876723375789,-17.416506160203255,-10.562117623890073,-6.794432250130836,-8.672869049513583,-4.253104166763569,2.3729850589949866,1.2011020924666074,-0.5489266607265417,-0.3090233175715209,-4.362789989751548,-8.41320086612332,-8.366793210829776,-7.356463947546068,-4.592556816772818,-2.1041299199344294,-5.677371902061399,-10.181855373902241,-7.04583969291803,0.12966734852051331,1.7169839584425635,-3.9619468688557227,-8.55312763934723,-7.324558943783664,-5.835936586827621,-5.433961178919149,-2.356372119558795,-0.8461408162352217,-3.373177804421278,-4.723291467178296,-5.8083515149132285,-8.108948634022948,-6.902465983285016,-4.00493267593399,-3.468839219499518,-3.771554332482914,-6.42116901831737,-9.982552490243114,-8.38277466159822,-5.968490904289514,-6.156416765010626,-2.181378982821923,2.2967384845998833,0.009806876867053838,-1.644248077884603,-0.05745461095811599,-2.1548057276701478,-3.6049886557060926,0.8363824183699515,4.001348424795675,2.7221734946399385,0.7797200547646952,-2.7738389149956557,-6.666972803922856,-5.201112725863903,-3.0450430446847374,-8.390493053148102,-14.297243400203415,-13.276468446098649,-13.104107572879814,-15.137553066981836,-8.315124779764972,2.6349652137517214,3.584954638723349,3.6901241754857854,14.842901489340388,16.688816186987523,-2.226941874411203,-14.317874873108684,-18.6730644294461,-39.891026174164026,-50.67217288009422,-34.73278941189566,-30.61116417200394,-27.08859199663343,-3.880289947121966,64.8806320898642,319.404917750875,605.0701637218124,334.4765033735515,-411.9177412270791,-688.1560258145448,-309.5294666285555,-53.804072427838264,-92.31501241788288,-22.161021775743837,82.3801662119348,35.882021793033815,8.56969323246755,46.93374807061386,34.23592659714937,14.01605404650201,27.731791759569326,20.43769102605314,1.6520231393289428,0.11681015023954266,-2.2110234685723,-5.285774219405909,-1.6071436490011948,-0.8395955280879965,-2.7200222029358327,-5.730994203302819,-9.796929273669294,-4.379080716981033,6.030632053481169,5.278045523608858,0.817887251206058,3.64951906961233,3.7072255272273655,-0.5477408997255329,1.607881473177589,4.7862146982293625,2.036809230784919,0.5749052262373437,0.27901362664722296,-4.4950080873556715,-9.741347723624667,-13.462997852525175,-15.707453584513333,-11.322597510975047,-4.047168228189305,-2.3514860310150514,-2.8393804134177305,-1.5949173878812992,-2.2420932014180313,-5.721583968082086,-8.590406026150617,-7.795984841660452,-7.957892455940577,-17.61567162737822,-27.790137503204875,-22.724466570200978,-11.524081946121646,-9.320096402691568,-9.921742025581452,-6.007710098416608,-1.7913610095876784,0.38364254617057547,2.0171938382272714,4.615064222135704,6.34964759432156,2.3550958863697833,-3.143042482252511,-2.843429896161794,-2.1057828889620547,-3.0744151668362463,0.9010499658651945,3.0228446814292127,-4.3563830817212015,-10.105603866201733,-8.377183416778491,-6.853039197714299,-6.895463508333986,-7.906310231808522,-11.357841715468519,-11.572646169423386,-6.402782832375443,-2.1216811928940835,-0.9798158355636684,-3.7671655889395854,-10.016340484758805,-11.48358960964838,-6.721634319858241,-5.329149370865904,-8.753407759390932,-12.439950592368948,-17.592217465002456,-22.38649264376786,-18.79433553028453,-4.94312937665654,10.057015913099018,18.45780012769401,23.78998894983829,22.550063540390568,3.888997672446793,-14.915055037302709,-18.950669073704557,-31.69926308225441,-44.16923067673784,-29.144410057285256,-22.540952915663414,-30.69555577091934,-16.070887032829745,29.400285259035158,221.41074839148504,539.9463321616033,448.76707209001063,-240.98663198162524,-683.1481399518623,-393.1912478906488,-57.69962288182083,-73.56164985228943,-47.909670600282105,77.3714796707105,57.94479746679897,4.55310455216355,31.002620517164658,31.27946338709322,9.657351975283733,17.144189621099216,10.88811714602284,-4.563983835369282,0.20553961663517661,0.2651195776220767,-6.354278851455192,-2.3732894728687945,-2.437954052513204,-10.51675642547923,-10.445434372869924,-5.698587454952616,-5.936103193374288,-3.8367288447890697,3.1837411904192665,3.191637307941419,-3.010612577550699,-1.395014306007349,5.594470376211547,6.460316151427601,3.1559391293940102,-0.9299322528921294,-6.862246840305552,-9.596202176081299,-7.474991292740864,-6.314539418716917,-7.500392869175805,-10.638289135037024,-13.336636374179099,-7.654886520035203,2.090070102702608,2.3096738269928014,-2.767078093322475,-4.434601643940237,-9.26863256096107,-16.407516897109765,-15.235185823649273,-10.357974263038079,-10.340310957931344,-11.525432840911598,-12.30037857020928,-14.134291148290036,-11.878388802288526,-4.953304221162631,-1.2200017471696611,-1.4686514490556064,0.121224252697683,1.943653472744458,-0.3651092376831002,-2.8016037911080627,-1.666250776967657,-0.34990217156189907,-0.10654783133002788,-1.13714149117013,-6.014023104718683,-9.910599694376156,-7.7707959720742,-5.740850096322079,-5.259644953183486,-1.6760469323941507,0.11900967910160354,-1.1825152876157574,-0.7673385270804083,-5.892465291636189,-16.059613847790594,-14.733318222541902,-6.6304435498438075,-7.779095172683634,-10.520485617245392,-7.832828204741286,-6.403305997734437,-2.728775870078767,2.7942286692708667,-1.5050354112366868,-8.452697628904758,-6.306748048179561,-4.8488999138687205,-6.56015340727651,-0.8962365448231235,3.1226485970020654,-6.014874508824581,-14.213777635977781,-11.199781042692015,-8.600231327652303,-11.224739762194258,-12.603083158334465,-14.822052371574596,-17.01835343933513,-7.302714260040826,10.675755856956151,21.648430818092244,26.255673992362663,21.528110013295,-0.8886116834926567,-20.062702350613442,-25.96297426050726,-38.86723544363049,-42.31650321939843,-26.90826169740073,-29.698907104688935,-31.206070170164622,-3.2575604295140295,67.79160189349534,300.83857145606896,552.1271752998462,283.3829852488578,-399.724543047942,-610.567520913675,-240.02555239117925,-36.25607315511293,-93.9122162367623,-20.416248880582113,69.82130847544354,14.849072682644,0.9961537652188346,44.97592324190057,26.85942834085042,9.17160338350279,24.13484800028079,10.307263782892504,-5.039110368050277,6.071442324293406,5.412760183875326,-3.606161347950602,0.7367529556348753,0.9978083441986465,-4.9317012841293,-1.5512775250310913,-2.175751806872455,-15.185949567254115,-17.63351445238547,-6.845358568812225,-5.219446888099352,-7.8933984782342606,-0.7230951117198288,2.889101264585019,-3.3379038577226794,-5.928308104386483,-5.026520282608004,-6.089023460935179,-5.3470420041860685,-5.422539145410465,-8.512385633829266,-8.895752458053298,-8.685895213211815,-10.968422676796944,-10.238002844103258,-7.474567796346879,-7.108353456198273,-5.032953090909233,-1.2213418670742975,-3.1127411951730153,-9.582420746202853,-12.377924403633832,-10.358738657014927,-8.074927246795504,-6.233956025339369,-4.775123754442362,-7.0147477988970905,-10.773173149091832,-9.841649512283048,-6.558564917026068,-4.230423457349204,-0.4620109126318894,0.23530647586669495,-5.495465060419852,-6.932780543039316,-1.3012344687829316,0.4231486136008664,-0.5719897086474708,2.271160563945708,2.157879036129314,-2.795646249085719,-2.2334614756505005,4.578398874100468,8.24255812948494,3.439513990497188,-9.594238682182116,-22.046937379449066,-21.198739150114786,-10.855091438931801,-6.521274688727537,-8.578782846341664,-7.791483710411029,-6.793625938867512,-9.25163713834101,-8.124060457845635,-3.8885423763942377,-6.950654276040627,-14.94333318468094,-17.082821810886692,-12.593952971218329,-2.844049494497085,9.631986366429155,13.221400009443023,10.62819531078039,14.934026290351552,9.942786244494707,-14.154418744805078,-27.99612577147432,-29.86309373288483,-37.74063117080043,-33.43783259065446,-23.42265407353669,-24.65942843199856,-8.085607464368572,27.101249853579162,143.13777611297485,419.978881648686,498.32061531309586,-20.992651353977323,-592.816407187245,-492.2023172876654,-114.44987963808633,-61.22240911896283,-81.54113861862506,46.4668135133266,75.73679842571721,14.5156907673126,37.23550048342815,56.957665058383654,23.701489970671453,22.842495769368067,29.45895637563668,6.904942122810783,-2.5804136607440675,-1.9263393973951128,-11.479462481489163,-11.709392013641502,-4.478389849958839,-6.3083917854348055,-8.650374854147708,-5.678336803508871,-3.4371745056452063,-0.3799975732424663,4.380403953175661,4.5663771552333845,2.1600200136045316,5.104608974635333,7.487402399477794,1.3741886218628103,-2.9460449354185627,-1.7264582768973886,-7.949312534743456,-16.36940613911467,-13.175540629870275,-9.056354541935399,-11.883040680494336,-10.709936324459447,-6.7859259651670705,-6.818354412764467,-3.91124519117143,1.6177095790263518,1.9972182052144536,1.4051972573201077,1.3418429805986083,-4.991244713395197,-10.032831890976585,-3.421507146013118,1.5902257606635537,-7.676947047937556,-17.909125403746874,-18.449027371422176,-16.72391307452581,-13.658245283643684,-6.6555975894887425,-3.1393684495777094,-2.5300720128174863,0.8920230377447265,0.781884750494406,-1.701494614001513,2.4937312734199804,3.4640500539773136,-6.292767544810166,-12.074442404221625,-9.89582378684471,-9.162340678986016,-6.791413368819544,-2.3689810831812714,-4.267881839480795,-7.0557434678087585,-4.870155766399401,-5.502707967525737,-7.55070095844664,-4.780208385255211,-4.646732834701703,-9.043412009993009,-11.698621460466029,-17.422912291277985,-24.16207553560755,-17.54603863340198,-2.6147182051624327,6.195201101797874,14.242222930153055,26.557300344670107,28.03287979915619,9.051858535683168,-12.775334075741636,-21.61698146790781,-27.943064055425076,-31.278704981590053,-22.21870457166791,-21.889380514497383,-25.03631253507938,-5.059764298969046,30.23096227908792,173.9639353540577,453.3084335655292,431.12590630738714,-154.44862876010018,-622.9200626885961,-419.0990325807584,-76.69757430046978,-60.21015218836126,-57.304374825153175,60.01502760497305,64.03823376985112,16.342750216348257,45.66151277296794,55.641450589289065,26.264716322894404,23.3168039971262,22.627515572483787,13.785369642018807,16.19349840734361,7.284224874185173,-10.552800712292953,-12.975828316368029,-13.48644948020878,-18.84053458783675,-14.352553889580731,-5.130656509879319,-1.4190931527530468,-0.20377663617823671,1.5844416811328017,4.779528580454349,6.805335853619622,5.688713728450952,7.607382569163651,9.652135654514282,0.6890526034386362,-10.939731945641732,-13.031725939685765,-13.622684626073493,-16.405952391176978,-13.991701917745198,-11.286737289557426,-13.935611993613106,-13.90875289135329,-8.946416311636705,-5.84293973649689,-3.85739517873672,-0.3729599762306748,-0.958017313600573,-7.389749324649465,-11.596674936244263,-10.562445959438875,-9.679332331897198,-9.945925134386068,-9.257168241144779,-7.917161331532277,-4.365040535866836,-0.6669058020547585,-1.8613515415388449,-1.279962017041841,5.292364560218692,5.231771723617149,-2.047696182163106,-2.707049281046043,-1.8832446828121192,-7.997197961664419,-9.99592090068613,-6.476614296944398,-8.851527201630905,-12.10438106465568,-8.539641499098298,-4.7317841005222885,-2.7599119811414194,0.30319784861604315,0.42692098735552264,-2.70006680775543,-4.0308463531647245,-4.043918847573615,-3.6442111293324393,-1.3895560408785004,-0.02571882260071412,-1.7741239144514749,-3.8839383469031183,-3.7903247373740037,-2.449076909066937,-5.868047071363755,-17.857257532465677,-27.394950247493284,-20.997890200634057,-5.794596534089987,3.1692206521803117,11.147966241210032,27.10079548530394,29.576451927327582,1.9865352317966556,-25.487669697572088,-34.22070497085359,-41.84756780844667,-41.084790612876155,-29.59179035492955,-29.73540617831027,-22.30403820222211,5.472828450146473,98.72460375962201,376.0014196317274,588.1818662092458,196.78484370220278,-520.8614756281901,-651.1682070855788,-235.9422951780003,-40.38986140980364,-79.52549176887271,12.840716291695472,94.31163501921078,39.76958710632907,28.00795385379317,56.99739865190772,31.677351080242374,16.735209862643508,29.39232783763841,15.799578421378321,0.9915694285592562,7.202336123284596,7.4396618766175875,1.0592272075887035,2.0165102351659523,6.080757990903222,6.29353696156157,2.0918117827429397,-0.6446195610974351,0.5775392310572072,-1.1952550697259339,-6.40690648110135,-6.385438159810809,1.496263730941028,9.723059138944082,9.479679932018291,5.258627610501341,8.046732543830883,9.612690880072396,-1.7201621304782222,-11.412824023895215,-7.750929295813747,-4.569702842716076,-6.69083972036881,-4.145267240527385,-1.1873465084979902,-4.8556825087371305,-8.379248088712746,-8.090821759316988,-7.0199571477839235,-7.805333856645426,-16.133095870100952,-28.357844708065528,-28.563872471739234,-17.99211134855242,-13.073691109805802,-12.27525593026774,-5.681415847243521,-0.32533737746086544,-3.4582752153064344,-6.683920083765091,-2.971929032899326,4.06467288110236,8.069487522801522,4.092291112328931,-5.155337144255702,-9.362675471421955,-7.2373913715064875,-5.085536922496825,-0.52740248469809,5.138909490767993,0.4829801797974831,-8.999906433162293,-7.714474835185895,-2.3426545559016603,-3.3474542087003574,-3.7312038392704476,-3.912967074734203,-11.06172012455782,-15.593584663829173,-10.207693324243092,-4.345731124069745,-3.4953544750615357,-8.64770987205845,-20.682158259309823,-26.94894832247275,-16.77390931423013,-2.1660219722059653,5.447453536346545,13.696911823502479,25.761658484107958,23.249142828865846,-0.7317721492278506,-19.054090011466034,-23.693135536422403,-34.51333360910031,-36.1916306228116,-23.896996805437755,-29.701848008852686,-26.58266753631555,5.790979212313012,72.87173736962022,308.4517549242147,575.6328420295631,299.539815026454,-434.49000635735393,-683.9708689959691,-289.0757749720723,-37.173443668288,-78.0958605015563,-7.11384190282395,90.51793033462752,42.988532306321126,23.06131417584682,59.85043395781877,42.30600771363891,24.3562154721445,35.58439322001392,17.71673610822586,-6.11222865422553,-2.438840191193915,2.2037071896623623,-1.5081712986576097,-5.030369207958081,-8.895175721510771,-9.179386317232002,-5.78535313905108,-3.1335618796948648,0.28365805980855363,2.341589468358623,-1.4303606673804303,-5.849574442041639,-3.5587154983963396,2.3498175791744087,5.19190936915633,6.079579032427452,5.5896482229862965,-0.08473780635192618,-5.402458605599303,-4.086102682250021,-2.8504837857018055,-3.9484523703203163,-3.3923608707217827,-5.023185996771435,-6.5966149955987605,-2.7741604686544097,-3.13463311447339,-8.257674019730679,-6.217705858864518,-6.063509055661786,-15.940035274540826,-17.99484648020282,-8.405749249197235,-3.0653127169894283,-2.100739571990868,-3.1306824278017995,-11.063272737973774,-14.906620464807226,-7.103536097882557,-3.349454938892775,-7.679735405555979,-7.267583203164616,-5.163572275136987,-8.359959129179533,-8.725785717451467,-4.74005715981847,-3.714168820268643,-2.5691270741051504,-0.8906025900281378,-7.282551346345622,-14.375740134627899,-9.149437795914166,-3.221566692973788,-8.102626271358968,-10.713823010349223,-6.641543175682777,-7.692692375581231,-9.093836507426115,-2.557397805072906,1.5500150563522617,-0.11981897900287386,1.3448447324149235,3.728367828519965,1.4713196355502252,-3.9799342545141183,-10.331065422878552,-11.826819277118954,-9.059667755320545,-14.816599527713977,-26.558373696723564,-28.358478550944675,-23.581987636795596,-20.348163351090246,-10.549844128597947,4.244238766595167,11.68018588249607,16.845462985544053,21.078582839939983,7.65440897443702,-13.4667082036658,-20.183645037119028,-28.024149015337414,-40.08563788278089,-35.45231976086427,-31.02560561830628,-27.41435303881268,-2.8118280647112925,40.52444384557374,205.16403893682735,484.87023628579334,407.5713293851576,-212.8612161048701,-621.44487461316,-358.85621037926626,-48.8215956775587,-72.19086181590053,-55.505950353436276,69.14538531785882,59.07262709559582,13.45449838542517,44.58835992008227,38.86922545563266,5.234715279503048,15.784074088902402,19.642051352123108,4.0654512300174295,7.1424781433014,5.110957428552525,-10.440880642601376,-8.54462955103726,0.5407147045564642,-2.974585634186412,-4.779693377336271,0.2098936960521458,-0.3021305436872357,-4.365800667787402,-3.537966104129487,1.7452721222181944,7.4857184198316995,8.81157870461163,4.382920605373388,-0.17424309420314632,-1.691742120517965,-1.881640739965583,-1.505016078288742,-2.11257931059356,-4.592809048277094,