ECG,422.14760422940833,704.7366391571263,1479.4471234161463,2073.6478627177894,2192.799837939114,1999.365055283542,1360.9901059372528,804.5849528618796,949.3918612774303,1216.3814624063184,1122.9787682347715,1007.8670342245778,933.9848372528431,833.9592162051501,883.7929655490657,929.5982954222491,802.0756102618075,730.0135901841238,763.702713018374,764.6780369184476,786.3756973429295,810.3016813645672,745.244102552163,694.7292288803048,717.27048352157,743.8216387251607,781.8454032218981,805.7178140794865,764.7009744354023,746.612014714126,793.687129486696,837.0104527937169,872.3975713704908,879.2377484877236,808.596725759222,747.7329779776808,783.0690854630802,839.9946886693774,814.7670413930982,709.3008377943147,627.8730359235751,628.1131867151837,640.8737315953645,653.7507371142178,704.838131023688,709.9916279907952,648.5292447344148,637.803744310829,671.9962982867867,692.0175936489841,721.0383674108768,714.3968473798282,650.6563146534991,631.4989653452378,663.6531740160924,685.0541985507737,703.366145805925,688.5960676046184,630.1998822190301,613.2443931986866,642.4418721720117,662.9865684553786,674.9883275851967,653.3966105235422,598.4656954856869,584.9489126769295,608.824627773645,623.3927547646356,651.1607885227136,669.1295622370185,610.0325653038035,529.4426032348606,540.3756928776852,604.1884016156498,600.746131931116,576.3528708904091,625.5475632763646,632.4916186026919,533.224785056259,509.2886645551373,577.7245141404607,554.3356484996369,482.8244765306597,498.5648092600504,535.0099418593634,532.1533945906409,540.3250747068023,557.2597787120485,533.6502334838756,482.2507580390045,488.10965678690263,559.9738478376037,567.6487743214414,492.9384343191575,461.15733358363093,471.60728419050974,500.7743987914689,583.6544343762678,567.5704067356385,384.9987947071279,325.3611080289028,442.31430616015666,441.23183417824555,361.22224073202756,397.0164269079637,407.3600636585343,349.4393346204354,425.69649727628575,632.1838456349542,883.153111905706,1062.7794364137203,797.9267573895936,147.5330363690481,-127.46497922576316,159.37257307783943,372.722223058484,330.799245488917,341.2156812503549,389.2366718412452,377.05101761305264,402.70473141232674,436.93146705604727,404.7846122780994,378.3471336438852,378.9988091401369,371.9547419939041,385.1830902553602,395.8051201053672,353.91464769476534,316.01822191193344,323.81321624339785,327.05949292400805,331.92108027108486,379.881949663,410.24479257166695,379.2492171167605,370.1330384364154,417.8662482132952,443.6706089662016,421.8785989404445,399.5304777762615,398.9019428166598,408.3395280576442,382.6078023125908,301.8002535015537,247.27268868936778,258.57059716243896,251.16920997727118,219.10236633839304,237.46172848033382,268.428674767934,266.47661985107266,276.0150794305812,282.5891663304101,274.135932886061,316.34451285878333,350.48593508029774,282.2532866764109,222.8503025466668,252.1299748276797,271.00637684852916,264.6729703484564,282.71425768371864,281.9591427896254,265.8978302113415,281.69283091272973,284.61644952594537,255.98544475572385,251.31190439535953,264.4283935735406,255.6210515141654,239.09226332500373,241.26695773452093,253.78391325172674,247.39988453363242,224.24327886628805,222.34052081579023,239.02671892686965,237.59531419316806,223.76712872196765,221.8774001997869,227.66752630597335,227.26897828418703,219.78907102426172,218.2414354268086,221.6116836951436,212.31363719487234,204.90395254455086,216.49047817402527,218.38149443322038,204.7961437095828,203.14226561893804,202.63168745874611,198.1459477000218,214.8431586143464,233.2566337499781,225.0876553033233,209.73430416227347,192.3771600832314,164.9999322541239,148.68412061652924,146.21023687219724,140.32048791028615,133.15688653941697,124.03702295356106,116.58691585157595,122.77863518356725,130.40787491599707,136.64701484771018,161.97606823362662,271.58203713859615,569.9689666902541,851.2040160740335,597.471919818626,-88.3662562748903,-387.9252899671725,-123.19001769527824,76.22274616705772,43.22732845408137,88.09580701369288,168.47955423248402,143.1465185408332,138.87304923628488,183.1373442006335,177.0224680759008,169.68258170688455,191.94227986506584,156.30248267634016,90.65800172306865,93.9941278137025,120.30523004376124,98.16057647113797,77.27634102220463,91.61639450376475,102.69325511466553,112.92439651784673,145.83879129292012,178.70143486989008,196.97360829133905,213.29859323569337,221.8406702932393,215.42472576823235,205.57458105987132,189.9867560717431,156.68165962537867,120.23523062973518,101.88870343369996,93.09606830863416,78.24413579152866,61.3782300167166,51.61731540193114,54.8752360947027,70.92693794362162,85.95278184014285,92.72505146792005,97.03151717508283,94.99162131472167,88.38235907923047,94.31360989385223,107.40580821580133,110.23738771107719,110.98703178830391,114.80346155786415,109.25667726620117,101.21995965744736,105.95672502674961,114.6099749234823,113.21826456782037,103.81199671219056,96.77764699583511,98.81930255050835,104.69506044236681,107.44721176352928,108.19304915769868,100.83319426640023,80.49244427249081,68.33909631304883,79.40316749670708,89.64051810458614,79.40174065328898,65.31900815256151,62.98183490597407,69.45958401803023,82.88249002787404,93.32441254404401,83.89686519789723,67.91585572466425,71.42987806019389,86.05091984554898,92.6728244272008,89.57592391068687,78.9883293302583,73.27521675436932,83.40181071968487,96.62657416845849,106.82708650900389,110.0296427683264,84.96513229373582,49.02683353066075,43.055849685103425,56.502795899729165,64.33279004510129,56.88918514238668,26.23988891676578,-1.9384240908219112,-7.39925634105488,-5.631029277489986,7.15461249964757,11.159026362633796,-18.950275328489496,-9.335653153490625,117.08870249719567,387.31812976147575,709.72530264492,658.065240684859,27.402533060947803,-494.3529414136183,-344.36385842437244,-25.927922230871985,-3.9456339419037363,-18.257528442077586,45.703911692332134,28.61875834106708,13.09559997971256,65.47224894262101,71.40157809139238,40.294637461741445,40.85982411365599,45.15359538123505,43.343692665868616,53.016875015251344,54.12837488655131,30.5214560668324,0.16449455575363459,-3.694458712548524,22.79099898304706,45.99934717041265,60.90255099550194,86.98116122734844,106.94717700701176,106.10124187576832,109.83405058977758,124.88424913841283,125.68062679119289,106.47762535195433,83.10976472327583,61.50966700233364,40.91297282739454,24.448065915013757,9.390913895486563,-8.252210209704714,-18.12314000240906,-10.789691028108223,4.764181029846412,17.119335687389153,24.645930785198203,29.28622301273139,31.765008275867018,29.095429698912227,23.429171190328773,26.08637333308289,34.43399332877085,33.33631809293439,28.392694651711338,35.701015364860055,48.88759280573208,52.16840289122567,46.40997883425567,42.52208941402729,43.44881893472957,45.031352240720096,47.691404515229095,50.71487929818866,46.7000841740074,38.19538793471892,35.0109305063842,35.61023331991353,37.561155405177345,41.392271700955575,39.232414371582024,31.612431319540143,31.135930317891834,39.27073872896243,49.01359520430654,48.66819714372036,25.76638832351464,-0.691175344700568,1.3276049782749197,21.15142582010968,31.03143568783328,31.033219137005446,28.86946025953624,26.62847522788134,30.186966916101426,42.86736155514651,56.872631158485746,49.19108624969746,9.57603084334253,-22.67069302209998,-9.939830750514822,23.545350442525304,43.17732302384065,51.3349231726679,56.4877988337639,53.43585133636746,32.547756630512325,-0.833851339634478,-22.167097238804008,-27.00778176427343,-31.895190121419944,-36.8078193664071,-39.75516153781089,-40.088644213504246,-33.68146637419474,-39.145805812625426,-45.1375627378995,3.1599124367911458,131.4291644659645,380.2052976871242,660.44397337058,558.0561421016977,-41.665333855717364,-481.243393765851,-342.3607111787634,-89.62252146075666,-69.96277497867803,-64.23783288537581,-0.01652202516796386,-1.3954203545578014,-7.63182797679087,26.226602695330847,27.407069379646163,13.877362632978095,24.980907275344755,24.828002528289964,11.71304534935214,11.893764708835683,11.455731361863975,4.301494162615107,4.905106855404441,7.58219894978739,9.608378281807376,21.47929354011599,29.380528301087665,24.06567281545132,36.813385420786794,75.32726396253486,99.91417427859102,97.86786757143676,90.50113861628797,82.31732530173474,68.37142784744469,51.07026505636408,29.714530773105047,0.6447654111001206,-32.83654906609584,-52.63222993657951,-47.38369823379655,-38.64145628961481,-39.913592059037654,-31.184771032051273,-12.494011056193534,-3.383827994517423,2.7114646382209173,10.835259034941888,11.595910821252303,14.957138934328228,25.025206646826163,26.004074184493234,25.182561999418805,32.07378843845382,24.168699843634826,-1.3667258608249995,-12.079867254779572,-0.5862386089412226,11.617481576090007,16.99713582791561,19.11999909155289,15.767428087577201,10.918422511471508,16.379669322541105,28.172587951657903,28.59301346409658,18.113129628577894,11.543211322616969,9.199502484907953,6.574970111073458,6.795242581156163,4.855393666364357,-2.9838078536917614,-4.14443405152271,4.199756475279035,7.169574614650006,3.687862257390208,6.098911286108873,11.604591938007882,10.113866200394549,8.620102110179126,15.971971228763465,22.51759895584264,20.801434413213023,16.462269508996904,9.86821784227477,3.05518288527705,5.067989594507097,7.294266759757651,-2.493245892405451,-8.486850976071892,3.8023820582469803,19.309103934896463,23.263768954582705,19.650081310254222,13.178780512905291,5.423632363265476,-0.14769439599216838,-6.804573756947484,-12.235523832357753,-2.898773341289436,0.23253321309658048,-38.85231167837991,-90.559169035182,-106.92900965058483,-91.2902663053232,-51.155813505743694,34.5060200859627,238.68221666297245,552.3752389410874,604.2604717689517,96.1114961999007,-459.27468737539414,-436.7191271467983,-142.08681821468588,-74.24486011518765,-79.0296760389098,5.526338442866631,25.37746773754334,-5.371776249270237,3.444770645734417,-8.606521058995046,-27.453332694209273,1.1494508575741804,14.890515042363198,-8.125820872555163,-16.50602854443104,-14.376337109252502,-19.047300459065376,-16.60690739044623,-10.097270542741413,-7.6564333659864765,-1.6964039901910999,7.050329435046885,15.11251685701054,35.777947713086704,72.92683588934096,97.63677467919169,89.46997570070984,69.19206160361038,58.478368708651274,51.627275925677864,36.15810526735618,6.335662207315373,-26.606651682036407,-41.97042566555628,-45.12738867889945,-50.94641726081352,-50.02098293279977,-42.37113372285011,-42.84120595381064,-39.86297128114691,-22.326908118315956,-7.960499152999837,-5.455221409056222,-9.607503178560336,-17.226211818928647,-13.149302483884338,6.827958145005699,17.54932831338084,12.479840849839244,10.336313301479267,10.565729725019143,7.1382484149347345,11.880649332314542,22.678024080611106,18.05116055783975,-2.4401089068705417,-15.374206660801924,-9.63936519026515,3.7420216810635707,10.495876733905117,5.626433618285255,-2.7339961862984388,-2.285550131089434,4.14573036519514,8.967463682658593,14.969525826679957,10.269163111792452,-18.40889727655886,-38.631275054509125,-22.979333302189787,-2.537715830359808,3.3228965770263543,10.223453771760378,8.148051823383536,-8.689654206388475,-8.489043920070836,12.473288683324014,18.877086119413967,-1.677257041492764,-24.545553741844945,-21.022673515758694,3.9035347655295505,21.62196939698633,23.56772566612708,5.469431435487287,-38.85410901458272,-75.73582011629165,-74.1164734429029,-56.39345140681102,-50.20793880619573,-58.798892335813676,-66.27119220715697,-59.123393557195016,-59.02341412933795,-60.78079914841643,-12.70355694782787,118.46660539060079,377.49663686141247,634.9222713043469,452.9457050622633,-184.25231693506768,-541.0740197548519,-318.5999854557455,-89.33867276736105,-106.43002369800088,-75.96406771349166,9.009953458600663,-1.7873850564799056,-12.765004942579795,15.457677156272444,7.514351335521907,-1.3994191084189156,14.060061108308435,8.111925782073957,-8.709439310559208,-13.054630898562152,-17.607941490368724,-20.327237875586512,-23.02686058524099,-36.1043181200726,-40.40369435390872,-22.3546711884744,2.111664692325647,28.69871124280766,61.44458425423984,85.46419790463237,90.06417983741956,83.24495101162017,73.93963501530027,66.9172499545163,56.81278160613475,31.687775646148864,0.40835063586665843,-20.46872084350234,-32.29497808909732,-32.35692450932695,-24.615635146872698,-38.15635570621225,-67.55528156701833,-74.05929107712169,-63.91409119874949,-57.91034029534541,-43.1910425733477,-24.5709771254664,-19.685337849127272,-14.68944493765759,-3.726541084221532,1.3217021603083143,8.572949885258964,17.967051276915747,9.414306057968112,-8.407870416701881,-8.595371426092003,4.395943098792635,8.85310502639025,4.809128844397479,4.2943804137156505,4.312265924486107,-0.06556137316170219,-0.4979077615293299,1.5267225890362823,-3.930119450262305,-8.216401830397803,-4.30572627865507,-3.391025424297852,-5.65316088072409,-3.79734760601683,-4.464312203705195,-8.593546754868685,-6.833194039256533,-1.4718223653299836,0.031092095393684183,-0.8843804198943293,1.043491817589278,6.25634263368244,7.688899550666303,3.480502788749408,3.2183102665252674,7.656940989055778,7.663207237534249,4.92949275207927,3.2274036998121236,-3.4961129627862775,-13.922558028624959,-15.513026852945359,-5.273716698788403,3.6629794126362363,-0.8306118374278526,-13.616769546289657,-21.5400335254023,-26.509103971694522,-38.049950421810124,-46.820604180565766,-43.98475898969898,-46.677139111859404,-57.23902472332021,-56.83152419953616,-55.727468316205425,-53.82583711272346,-12.4269723702675,96.27913444545612,326.124379433636,616.8841035358378,568.0502930031346,-8.311420310047367,-506.40595437281667,-413.5497778428729,-141.47051693862028,-120.58955129037035,-133.48468171045533,-41.701348399858304,-13.743768548882471,-28.184899522020096,8.513083906641853,22.81438898654942,-0.4684118558695829,3.848587886658594,18.22499194331462,11.319432352016577,-9.065787333453994,-36.415749288780844,-49.28055142270044,-36.435900913739616,-21.836934211148787,-17.50577652800471,-22.58124016559588,-31.019819519964212,-12.909445726224126,33.08125752001274,63.436171647493886,69.48274913762337,73.03090080912432,71.14582370585963,63.28394917330621,57.35382781232356,38.29663091032331,2.507237077414567,-24.851646450486932,-37.38803026826089,-48.4943444574448,-56.73808483358974,-55.01371501546584,-48.41441277277786,-42.966634508539016,-33.6390140471826,-17.40399305979392,-8.950928135820398,-17.9289047470253,-26.460680948649582,-21.05247433789397,-12.819415805538448,-6.7277428570857705,2.307503606901097,6.243914022585786,-1.9430144151657878,-10.549825890666533,-7.286171502493177,4.167399620544493,10.357737747037902,4.420044823158787,-3.865399869251034,-3.3941532696103085,0.09104136186249434,0.3099984333830532,3.6846395887871015,6.627029311398388,-2.389105321204667,-11.53621496029709,-5.222039417144288,5.310404423565061,9.55243644397576,6.937990019717176,-11.500807177083741,-33.71121851128729,-28.93732325133723,-7.499387070421598,0.015373583814547231,-2.106509374066693,-4.008628216432616,-10.06547273657805,-11.445579846323536,0.046530702823824655,12.108754076228639,12.332247592811097,2.809998554201897,-4.915569613675885,-4.194933580675395,1.2960057744259448,7.266517024767932,1.2602806356707248,-24.904516348349603,-39.01552279803343,-15.565309149125067,11.534194132650846,12.454286771776788,-4.704171621849294,-30.823889792842962,-46.52567576476195,-39.282719966981304,-33.23808131119672,-36.70463000107469,-42.25410128016878,-58.626629183824626,-68.74479405366026,-65.70988980623147,-75.79129454336189,-63.07603332384785,26.133190473623046,213.69285301485638,498.10547407116155,608.3999941171844,191.5678023557869,-408.00951053562983,-500.75380591916866,-208.76329688119807,-84.13539901787593,-95.44915748862607,-25.433474850941167,10.888917633235678,-24.365472571087274,-13.36214675828039,13.087022790700079,3.746014171168511,2.508489753746929,4.78334731504758,-14.212416351768354,-25.82146315973959,-21.365809874202814,-20.561135818541693,-20.52517899065437,-18.963751336415143,-25.940367268486934,-29.048233435486473,-10.127748949515055,19.882533491074014,50.2757028237571,81.28537449317237,90.53037546787141,68.24418144779187,52.276863440693724,60.06380119776057,60.988387289405374,38.53707544833811,3.929361361865065,-29.332786878080515,-47.842284632010276,-49.45018019869614,-47.467309306068046,-49.781675843958865,-51.95901533253468,-47.153583421533895,-33.78884046524868,-15.821126085347,-2.6337872782417726,-10.24043310964477,-36.53962197653051,-48.72750856377836,-33.74454708831628,-15.66685752429374,-6.358462142866383,-3.474628809201409,-9.800951439147951,-12.867670586495564,-1.361205939656248,9.233793502257072,10.30116215551891,9.58069517577689,5.833099454912148,0.5355445598355306,2.7744711970673457,7.543653337843163,4.592928302856395,-2.3627948024266345,-6.269286869271616,-10.159020514657303,-17.253361715580148,-20.663709743045004,-18.038244817072005,-18.285407170660974,-20.99668501575714,-17.01552463448515,-7.313195408308946,0.8064728348496892,0.7503729130079186,-6.97457781358715,-8.826350990662863,-3.440868286474995,-7.306498751602206,-15.879854901013527,-13.548252496185864,-12.256572768281458,-23.420539279141472,-29.39678669426814,-18.312161101076235,-1.7870951226526266,12.093186230306083,23.54108459319436,23.848597139287776,8.007696658169804,-6.558721046683648,-3.046612823209313,5.690146812796177,-6.4098179947893374,-39.39210471699134,-67.70336498178818,-80.43139244932281,-86.0426650367835,-90.44820145641785,-99.5519286381143,-99.95132176029243,-57.11211915058823,59.601342456532066,307.92911921865795,602.9010887175286,528.4653384173112,-61.835214474362786,-524.1376104220592,-387.02794879146904,-110.87467161119594,-94.94831902189554,-91.96390821359151,1.4328254842476866,4.914845120593469,-27.920049096749885,0.5013806778725627,12.01394101533521,0.5673989684597416,8.920157784832224,3.3131623755294335,-8.958537054323038,-5.6773574239450575,-20.676136303497366,-41.155636807877244,-30.793346268357503,-15.937797768928686,-13.356940455124379,-9.795507183819954,-11.33817138292785,-7.667768733012143,18.29611326712412,42.48662738197831,51.816510451016946,63.577726961073864,69.66890887917052,55.19610653178405,34.731202453290436,18.054166763128393,-5.4873290187954495,-37.31382990218513,-60.36260774674449,-63.47804205529968,-58.71605633676192,-59.34579184190429,-59.46703842927201,-52.01042688871637,-39.511862028455795,-26.902527101132513,-20.42582077540787,-18.415162521995825,-13.728138111450445,-10.75728196920749,-10.917568596103536,-4.820124587256064,4.3871117772892045,9.06892356625855,10.615141804060176,7.113585533707443,5.07474476666922,13.553289060656926,11.50941886191944,-13.353700490656898,-29.901983445369584,-23.8661822479077,-16.057222117306164,-12.90787952165039,-11.952089210629815,-17.362035761179943,-21.20068106321431,-18.337152753383954,-17.58298011754685,-15.060955649495078,-4.190710019577445,0.43346615208159633,-8.977571964491215,-15.682647155553756,-10.795505090446479,-4.942578071197296,-3.5888933362034585,-4.010248418488736,-6.4997530891166235,-8.333050728387704,-8.080494672676288,-12.30884393180516,-16.21850048768499,-8.687062258800008,0.9605496350955605,2.9898500820613627,4.000654188515657,2.0240417435584916,-6.259466170933909,-13.055072445046449,-21.567250328225274,-31.42048169497258,-32.97589338723629,-42.41684293168741,-60.60364972748606,-60.511972113664484,-72.9637984389902,-113.66875702765117,-98.39823119896438,8.775032042807254,212.18054545652916,520.491882852505,614.596675919046,136.66610893489076,-462.22576141421473,-486.0439390740328,-177.11131398705658,-91.68856725281688,-112.60155943285339,-32.788386493406875,0.9172601357846304,-22.241835339858795,3.6634114680347025,14.50562782670038,-12.410239618282034,-8.93170391721897,3.963203688209484,-1.7889385567043519,-4.0528012733136265,-10.07241202324942,-23.241719217880714,-22.644557447490474,-10.867441788729995,-5.224569085052426,-18.84923913787314,-41.517503869137656,-32.168131241523454,14.139461587002224,53.1573473139483,70.15715388152964,77.42669654142928,70.63993092489018,55.517031707117724,47.01073565354464,34.0444490873108,5.15208028165382,-26.574906133419535,-49.37069975793379,-63.323908510126884,-67.3355786277501,-59.40649932613654,-47.22561114637388,-44.928900331701215,-49.46122296505361,-42.69186479163449,-26.245127050322104,-15.96391288966192,-12.762895714440049,-13.283928656441503,-16.56046865558678,-14.136722469733613,-4.230311174761077,5.738030730851591,12.031577330347178,10.511387642220516,3.651149379986755,0.3409961701573856,-3.4318596714350704,-7.825719892693474,-4.503230805859662,-6.574759965428441,-19.438799068135708,-19.230739748818866,-6.919259276952012,-3.1608892553523553,-3.443177760644751,-6.559953554963787,-19.131562770167484,-23.927929886490308,-12.755135976086112,-3.096863175079136,-3.141374893259478,-11.450846836065246,-20.772406729003126,-17.246622493693458,-7.766877262089306,-5.874520614233344,-4.699086719463185,-7.640652136576257,-22.433745138290835,-26.396306492810755,-9.045705260452532,5.707772876298314,12.003880471606639,19.525584005051364,20.596609881739113,15.653875741182688,15.475991124659103,7.616189855163029,-23.55741996163121,-66.8804461654891,-96.4438773766332,-93.06752047099513,-72.40239179660378,-69.46156560828486,-79.96955503357135,-89.55672397760958,-103.28549575197424,-84.00683518540917,9.78148097020113,192.81652437590796,486.1087366632921,671.3334907608123,342.33731713761983,-303.2609065754719,-525.7267418788393,-258.82141452374015,-93.66098570134463,-133.6824997449898,-95.8296190102312,-25.691574385648806,-34.084104767107334,-25.234084658069982,6.096780074526812,-8.33043614497943,-23.30635389656178,-7.897933564647154,-1.9773850599733152,-10.193136630716651,-19.1199200736246,-37.168878661720235,-57.240300249654084,-59.491869139384505,-46.530958351645076,-34.868268680399765,-27.391097279069697,-12.756061937942476,15.611381179934064,49.67627936059862,73.47817608019994,77.90968819525696,70.3353933306777,62.923190278807255,53.76260625129433,34.680663917971756,9.001073764047714,-16.447683451420783,-38.991765705573,-52.28801428021317,-54.11765895741509,-46.737060298431516,-29.792867970581476,-32.677520959133375,-89.35482206513674,-142.59279800244303,-115.42843584117352,-60.17934750633497,-53.125329153077516,-56.826229031384244,-38.09762450075192,-29.00036043987241,-23.390643317174693,-5.973531158653124,-6.258001111118887,-17.311315022177354,-13.31332095938356,-23.8008737872877,-51.61566471835394,-47.75252590390113,-22.739570093211626,-20.49823808068635,-27.568941079801085,-25.83474039844556,-28.997822310684043,-33.063261982738155,-29.895564466679915,-30.8151979637867,-34.451427562961186,-35.20579470452606,-40.79681740165308,-44.13555293745172,-35.61177530282107,-29.630409276370536,-32.089039457489974,-33.73465199663477,-39.11060599850164,-45.73585160734952,-35.78548139157949,-17.914970100346906,-15.76437491622346,-21.739807675695317,-19.958130259753915,-22.026481339928353,-35.18212017249566,-46.54514505852049,-63.33461280317134,-90.80305770059852,-94.01258465365275,-78.51419360215067,-96.61795132492514,-120.58783323938762,-107.29615353971526,-103.29504027009256,-102.45666205261678,-22.284813836387652,173.25386737187324,466.6389555276592,612.3964512310592,241.23940410947372,-384.0814827763051,-541.2834363121486,-251.0291604895739,-93.61809692037521,-102.32238569591703,-35.586054195086405,8.84773139972279,-33.01084888192591,-53.70053619376847,-67.77168411276516,-91.99797307755155,-73.76515291930482,-55.76318925518929,-75.58038745479377,-78.04460004437152,-54.67661283528636,-50.61032521128257,-66.85128799404468,-79.2151276523254,-88.85087090571803,-99.66479517356288,-89.98256565644886,-56.966226887350345,-31.072903422965467,-11.451889248888165,13.598551661744544,20.087033369443027,14.244700907779439,25.942187786500924,29.932166788515957,1.0921243142895918,-37.555917789904115,-69.5037314323719,-87.21785942884665,-82.51725381350273,-68.85409961907263,-60.31578990120963,-62.09478118641479,-71.06401838368838,-60.96623805597141,-30.079156494068357,-14.222159638438939,-18.41792890175948,-33.16455685584668,-60.398149999985336,-68.89336090226212,-43.79449594365548,-26.818300565880648,-24.00926313731643,-11.090082886631706,-8.502931855682114,-22.11069078811181,-18.20989472363634,-2.3726209435011114,-2.774967896279705,-12.490720426608057,-17.113812122257563,-16.879671309711178,-11.762045145555895,-5.813497819199341,-9.311958830524823,-21.545846413398223,-27.592770020747977,-21.171750321297978,-14.97935065627006,-15.353466393562549,-15.480875599354206,-19.57790063150567,-30.50318702655356,-30.84645671210961,-16.7149081191727,-7.221101279382694,-5.35598465222062,-2.475419167696046,-2.616967660745125,-5.7702151393365,-7.4956866972622365,-15.505941970104146,-32.70587827471502,-49.15282265865669,-54.17449402050707,-47.83892233799591,-54.01779916015242,-79.12362686296419,-86.9139123209089,-78.34133603677088,-78.77627238602962,-47.29929140803061,74.9165516084475,328.0326741738169,625.9473536503863,574.5495590725777,-13.869811400964636,-525.4914887041745,-421.3380188589308,-128.4625288919063,-107.1973111627285,-126.08255304700845,-34.60993550769258,-11.326940947276071,-31.24809579345461,2.1651034327101577,11.740349846334244,-9.20633170934586,2.425934875964913,13.931559599099264,1.703571793607363,-9.666508706725931,-22.32684361011645,-30.848702214413866,-23.98933845015011,-20.03268656212021,-20.835920298398424,-13.518398128602687,-8.545995125266202,-3.95100382264728,20.86547232771534,57.69878408890557,80.95390424698738,82.61781745867216,69.34431656808096,53.651258234510834,43.06573069593942,30.17157832298062,4.674601698605346,-29.970545536088995,-55.38651555444046,-60.329313722068505,-55.1838500923521,-44.30324713669949,-28.467877678253366,-36.78729889563263,-71.32110975936263,-75.52066992416047,-39.20157004109945,-16.161503760327456,-15.605306652334974,-10.91176673283897,-4.746124113640633,-0.4836607946883831,11.186279732829643,25.188714907247515,25.978180133592623,2.0189204088628188,-28.331140566985773,-27.006675114187825,-6.750143286552504,-9.191745608351518,-22.086208026219694,-19.193683271065332,-11.51470941059118,-4.838563885381479,6.221483517078007,15.438330559969145,19.14522121213004,14.766246155409652,1.4636109184429316,-5.850447242747172,5.802958232160047,27.28113032273743,24.51700495198603,-23.849077157366942,-67.87877188793418,-52.418851799933805,-13.470364197543299,1.7473853494560139,-1.4150001763917928,-23.64261146658817,-48.632647605321424,-34.241889039079695,-2.0074755774382034,1.3349704413904888,-12.747218960659175,-24.093683862331734,-27.286926449551636,-11.77680826736434,8.087930065099023,9.354820547367073,-1.1896797256804224,-12.746996705749588,-25.59369595607184,-32.065363117528385,-21.112222254449392,-13.74278979437857,-45.763660781118695,-85.30282574889651,-81.55248329721749,-63.22220292773362,-39.88046833343622,24.566381584829173,141.21720181948064,378.82037670597435,625.020977985499,402.7603677018984,-273.61972813797456,-590.7861473028199,-304.3014565458343,-74.87539805357237,-109.63907578189153,-65.66427220956797,23.145506317577286,-5.873099770569382,-24.790541247609898,7.447146168760563,4.3994769140436425,1.40378887723657,16.801978676975104,2.961245038277431,-15.494061451020887,-12.029361449462375,-15.032262404851107,-26.184517735842075,-28.888219335642784,-28.315379939225316,-26.329704925428977,-14.43482309237216,12.573659346774038,48.112279734945645,74.09473103081123,87.06063522259075,93.3893524336865,78.76599919207203,46.31392131942876,34.869300748020834,40.659550714324176,22.076262966985638,-10.742498755552884,-28.765598353920304,-42.199146065827556,-50.646238810375536,-46.659741099657175,-57.553075163989575,-81.58942875437474,-76.048700386829,-46.800912752646035,-28.602658054070933,-18.186309429298795,-9.239761149132,-8.91104816760856,-8.003018309180502,-0.3991306066279545,6.277619793077374,9.376781954684681,6.020071443385282,-0.8703680218391145,-0.0344193254464038,1.7578133688242392,-4.944144632812224,-7.637188887978159,-2.5517382097342924,-1.5349876845502166,-2.61759530387676,0.26049447547805293,1.4871727633526204,-0.9860464140320158,-1.5991912355462246,0.08432844884219826,-0.25663547846536794,-1.1665886000959755,0.2458354131543219,-1.7674037402737675,-7.837770373907788,-7.906005864306563,-3.680823919802016,-3.244390073591651,-2.6768567800464504,-1.7049531051665987,-3.862629988437744,-2.254450057075281,2.369106216591036,2.2198089259415843,2.7303529318058444,6.099454542390331,6.067734400888536,4.411517951301463,-1.0202366038047597,-12.049731992871443,-13.754128501435442,-4.566040509686482,-2.6589613174208555,-7.947202564665494,-9.579524889296017,-7.790896473266503,-1.6820517103015904,9.535839177346777,21.14745804414422,28.884326040212624,20.68611635094917,-9.684891642145836,-37.19009607428176,-40.616917367294946,-39.03853843355928,-47.834108875663226,-50.467100617233186,-48.52332684062633,-58.21934810450404,-58.96162778642857,-46.01237618898229,-50.03584594756175,-40.0266325975537,44.805984335316595,234.76644103159776,520.7170521370284,631.9345529688734,209.57209240530608,-417.47641988603687,-526.2600282253675,-213.10045416413482,-81.52679918841888,-115.76308954984638,-47.91802521260544,5.6833968147122675,-23.7152119335371,-12.256041303514124,11.63803672145795,-3.461824330319523,1.1236835070472804,15.437452322626454,1.740358789405839,-7.97716605890931,-5.52001044880458,-13.460042798237595,-24.050183958688827,-26.886152047918934,-28.581894109495476,-32.80567147295465,-28.840889287380993,-2.408184641936086,34.415651892749295,56.190184190224215,65.75817866947003,75.41773190554582,78.04423747886719,71.09920533719507,63.57092854412645,50.668863219154346,22.107981185882302,-11.856518181064619,-33.78098330277423,-47.01913537073689,-62.337757041065906,-72.54602882229355,-68.86007878385655,-59.053912320327036,-49.257897646504894,-35.685528363295106,-19.593264015556894,-8.360142437655938,-5.119011424481261,-5.6355667804751945,-2.6389452575697643,7.09777980733738,17.28021275887854,12.484976949944176,-11.68613373569967,-30.235696583195853,-22.39456054951838,-5.456793861974258,-0.06386634770056965,-2.486099585625144,-6.710551400406333,-9.431536984602925,-5.2184803446581665,2.3541936470279587,5.628424309396159,1.0754025788536428,-9.039446619774663,-11.985711515868964,-3.24937430572869,4.504873103737434,6.703771082992931,2.553219996196578,-11.038215139721832,-15.770999308966289,-1.6208442061894086,7.233385614961155,5.645966989676797,4.528882141273453,-13.68105220447908,-43.272238953378945,-41.24978196328357,-13.892901221744328,-5.124089365676511,-15.290947192272263,-19.55345859571045,-14.229630340243716,-6.6326928343639935,-0.9609414741859119,1.5110923269488463,-0.3780184999689844,-7.307375563087238,-12.870988252580815,-11.886505191184927,-8.780439321458935,-5.575909261691226,-0.9016169581307043,3.6037714843833584,9.09659693076382,15.526587180098543,15.072014958018467,3.271526717791504,-10.511448042206563,-16.89921519873089,-26.935381550871305,-48.55748703647359,-64.35141271855251,-71.61747129336666,-82.60671949164305,-88.88600938124608,-91.10181280660845,-84.97184503771679,-32.38420715835208,93.20154923174715,334.2955237172677,615.707744139714,536.5242609593724,-50.69724569518159,-501.10788761049434,-352.60689578615825,-83.20356840179807,-90.00578724225556,-112.99576908541142,-29.450887326875282,-10.690723070752426,-38.95266126200292,-31.195597359482548,-20.381807679481334,-12.101331748560277,-3.283347714178486,-11.108110743661136,-13.285108415193609,-11.728157775419824,-28.274481175420274,-34.14908283606806,-19.368508472789976,-18.787621292391563,-34.140513765974866,-39.24809026772119,-21.792590108598695,14.478217751208456,50.03633703264209,68.9368892581733,73.0753249156921,66.80741116188709,58.657875584702694,57.42358125780091,51.2230201761232,27.251919280323605,-5.734230802120798,-36.87617105296631,-58.627232731718735,-61.995992891376,-55.657228638150315,-56.29737847208316,-57.27528318185222,-49.048120658305145,-43.27597408514389,-40.84686598754929,-26.241604612068066,-9.874379153140833,-12.891214537580716,-21.036280597733537,-14.431743909889452,-3.5114491708564763,3.9521873615662457,12.812592376533113,13.793904049339313,2.2475660652174163,-6.466047954099963,-7.534486612030086,-7.8860153269087405,-7.083457803945755,-8.986854272714968,-18.166702297534176,-22.58406107510133,-14.931804584433657,-7.864962892355933,-7.572903291573745,-6.004910446532783,-4.399950069518862,-8.016563764668675,-5.480876614805812,6.788842100614616,8.747572192803847,-0.20686464208298716,-1.935857721622753,-3.832520909980584,-8.686522212390084,-2.919195515912673,-12.53688617524056,-52.422213295917935,-67.530669086858,-40.664248142065006,-24.786344073932323,-25.812985455372896,-16.629371813244376,-12.840020121770735,-17.8587813402274,-4.382518318419329,16.547316038185425,15.467340235017527,2.2415789395158257,-6.408988003778273,-19.262201123232238,-34.56808077316954,-39.179228628207994,-45.31768478067053,-59.05669396452529,-63.176246098129226,-65.41286487763995,-70.9526120867486,-63.955259094650344,-64.4561837693434,-67.93336104985492,-19.405740883076092,104.92179561979202,358.17626653351914,648.062433271303,513.0366037654521,-139.11003154856448,-555.8059452368955,-350.6548520500489,-92.78093611213512,-94.20242887491588,-79.9017701225901,-24.33943764778948,-48.309650305387095,-42.03727645217221,10.431490894367332,10.097240281606474,-10.65645480556016,-23.212616939526377,-51.2954793877864,-62.27214604122644,-46.58310519681167,-38.53551190216092,-36.7639785833382,-31.757229301917448,-27.93084010756361,-19.709352884972073,-0.6775706948614157,22.579975788927467,32.567367829231074,32.018718668066924,50.466633847840704,84.07478016595849,98.1517817095276,86.35674320703436,57.60556594122587,23.03654186940502,6.696764281750971,5.292576361751804,-13.79849314963743,-57.811338524642345,-101.52466350507763,-114.30758455791175,-91.73915299110008,-62.59279326647303,-43.15030860943324,-34.60095762191744,-47.827671480190205,-61.94963093867332,-42.424716696940635,-16.601464618049683,-19.07393184371154,-26.809785109597392,-21.277294651395387,-13.524382647027792,-6.244567788286268,-0.27671527107482774,0.4898013301337052,-0.27120478017132044,-1.0168538844108959,-0.49898381651546586,2.438703232594726,0.3494316091241352,-6.658359498046824,-9.267819059925205,-8.20804729364712,-6.34146941679316,-3.5825393892793933,-5.85711813686309,-13.209681092122032,-16.97845015616612,-15.042133433215206,-10.358588656285061,-6.59085605264039,-6.865204495833961,-7.869272268299476,-7.743966915848496,-8.548238024339366,-5.000485476921806,2.858278984542668,3.524734484514086,-0.038231645358791866,2.150918564220511,0.5494210392780197,-9.539342063807702,-13.23668619637603,-13.472834248069987,-27.122673842101385,-39.05739530783464,-23.23541990569586,3.1805199326858045,7.36142591260835,-4.004640957317001,-10.280404534659947,-15.80568452005433,-24.843422605974244,-29.393106602098946,-29.686427326885365,-29.463034511737888,-34.78760237079938,-46.53943687146198,-43.59208043477846,-32.283828598653564,-41.14249042247951,-40.46033426038881,-4.59819311987993,96.66080247518742,370.0510584665951,623.4728072069299,343.1822143563825,-326.01093310432316,-561.6470867849766,-265.875539396248,-80.26797373352369,-106.54615779196644,-52.318361098108504,0.958196279168078,-40.47677058633972,-33.404838566702495,10.100944395049396,0.5427873645915469,-6.103715360155775,5.408944497337812,-10.893965067753282,-24.907708929815435,-17.715838378348042,-21.064201729478434,-30.59569217024128,-30.720324966681087,-30.89514365723647,-29.104844594114446,-15.876127436520424,6.409489232888203,32.748295169228996,54.788967841901254,67.64372636063872,77.88501435977837,84.34649961910868,78.9156194635213,64.40697483903193,42.977966118578834,13.525890289477811,-13.895663025694859,-31.22383203298617,-41.806219710711815,-48.20793538867666,-53.39234701480603,-59.816973866537325,-61.25064862282567,-52.23522629342196,-36.042833409449955,-23.161499663622454,-24.004843260473876,-29.681950332797832,-23.105857690324875,-10.517754081026215,-3.4364598228237675,0.9265813571324166,-0.29739056530177166,-7.066895279623349,-5.9503133934305215,2.552052135481752,8.65138826964269,10.915103268743675,5.099004679648788,-4.001339634566245,-1.45378508545231,7.007961039798234,11.122365930412338,11.648294160547557,-2.0457214436498816,-26.350466414051493,-30.78215557597343,-13.023183530034636,1.4508249706232323,3.3543645696923505,-1.089794256440971,1.1862852147288336,11.90976084791978,10.799183858000603,-3.1794993141030616,-15.558054537921628,-33.73874442254976,-49.46069751799145,-36.51876554246542,-8.49728165598701,6.290788317946966,0.8762367995014131,-22.444643274468923,-36.172129073986376,-15.584909876142936,10.301197851075903,11.371618383719962,-7.097465311708959,-36.561119227299486,-50.957565259055244,-25.832084298603753,4.613271106357047,3.0882708337428895,-13.931545390008413,-25.616185011154556,-29.384635032738082,-26.15550584353108,-23.784732963939042,-28.86053745607994,-53.66838754224448,-98.42041455291863,-112.63882427511358,-84.982347365794,-79.9956317110173,-82.52216944724033,-22.89613211161048,114.5327160300337,379.710745762222,641.7776582409056,442.01165816088775,-205.66373283478356,-537.532883738551,-291.26876648524745,-60.9863485604818,-73.42717991845572,-27.247448263381557,48.38358246106606,-16.989219745502425,-73.42732563335284,-27.15607890800326,7.245748094996607,12.517141933496305,13.887366217547648,-31.68114448102483,-83.2214729685046,-66.22819842772037,-24.289467988100338,-14.543190165405925,-22.639924051654454,-36.491531720852066,-51.930467766097294,-48.33543962511733,-20.513047330987526,16.318443277628752,39.45926908857469,39.509248501659684,42.683114194996215,59.06987661459252,55.993106093691125,33.518711836786665,23.85869140470237,17.354278664054615,-7.719063039627873,-34.372247009830126,-45.81974922724727,-50.76764539588082,-53.57138872884265,-49.1365261446765,-42.86935221823268,-35.65406770718404,-15.042675685159931,1.8289741362129988,-14.048779577240303,-33.73103661718791,-22.696156465772752,-2.056699124537488,16.77945833690626,26.874445757807706,-8.799631904423023,-59.58871351145087,-52.776902910311826,-16.297574315091097,-5.236624524363812,-7.962111894537188,-23.157527034931853,-47.986704448350885,-41.89827844347369,-14.454565923692897,-5.514802420713586,-2.7590275504604804,2.4634782160678625,-5.600493817652811,-10.517760282047092,0.5050269955595645,2.113505409949301,-13.4791143444736,-21.16528629657404,-13.684614267917194,-9.003784017331746,-7.832250860113401,-1.2091028534743025,-7.7749058027328815,-32.55975573676993,-39.961812724262266,-24.660896673076287,-15.88228798868752,-12.048693862117034,-1.5427828713802718,9.2639911519063,18.49288365751662,23.38698300382631,23.633445049672794,23.26442813318257,7.074167529701121,-20.878074461961575,-27.43508467377589,-21.550130077272776,-24.90450421634048,-21.25249918698121,-13.04545968931491,-12.399859823323688,-6.287071917223923,-4.363459815631906,-13.713474935641056,-20.83229417609961,-52.91778998715607,-102.34146133344262,-96.29574917304622,-57.069247267244975,-55.757708073885716,-66.67919820802277,-73.43733687504425,-86.84611173080732,-52.01625933991799,51.930206318885425,241.5906820153198,530.5798159916469,593.058863400608,94.69578255773905,-494.84756827363674,-505.7743028325607,-191.13538135044712,-95.40132261320481,-110.56409694480405,-29.528034224468954,8.637941714321926,-19.503426810354448,-0.7897834441090339,18.119861823450574,-1.3488002572390094,-0.5809883369269446,9.073950370900242,-2.551765176086004,-9.91279220785733,-16.25804988806187,-34.94346089332571,-39.4504549090007,-26.98873382934,-23.740776407812007,-25.788800649835277,-16.29641314252903,4.882290092215342,34.75367577630377,64.49117823265087,79.17119997782143,79.56846648604285,75.52315671376562,67.39964541837061,54.8224356383692,40.57671555382949,20.60708924852107,-8.890164830578057,-38.335893258273614,-52.947992205460125,-52.24763398284962,-49.16940346888271,-48.07298464180942,-43.193833084063996,-36.805808989512826,-30.443998443706597,-15.029279802150075,0.5842032764678322,-8.958195325717533,-32.997626556048374,-33.11998056639611,-12.012634265765048,-5.084137636500024,-13.62512567572142,-14.389354806188457,-9.249947976031049,-10.39051134373565,-11.689605730976734,-5.283337771165666,5.203166815841417,11.69644599372851,10.137008506893846,9.508103339613555,16.271178447250705,19.118833804143854,17.41618613924419,17.513744016131405,-1.5875145448018912,-40.198866585832306,-49.37540625708988,-22.85906923359852,-13.171947055266727,-29.340997771735587,-35.34588325621678,-25.5514114670073,-15.377353950646041,-6.087443894131109,0.1625060454589402,-4.841345141361973,-13.868664289803348,-11.279095855906235,-0.8351973527216767,5.2689629671404425,10.086774464795667,13.322471461607595,5.632013212005521,-5.204299179135976,-9.005121043543962,-11.560135124167413,-10.82703509664183,-4.770753818085467,-8.088974323034368,-15.856575838566554,-6.8399995413829195,3.8765891029977553,-9.528171632233033,-31.582554180226456,-42.13020648412106,-46.781186356524714,-46.72951394225754,-46.562862362565305,-59.32787240429436,-70.5155367762042,-70.71790768838457,-73.74714537498352,-54.49956052991294,32.47988169138118,231.31826095963362,525.0264858257797,603.3329468576447,152.33278779811187,-419.6927912052948,-455.7297977216063,-155.64443429234393,-71.78824463136664,-111.30509950352172,-39.07575408294075,-0.6602316588314778,-37.04308237666147,-19.767476948201647,3.226688037440571,-18.301561393752586,-15.285132542714068,3.482114454215461,-3.175356115232688,-9.561013644561744,-10.684155556522988,-18.58746019907099,-17.77808679675904,-7.558776057498179,0.6976798034005753,0.41061011413117576,-15.942557766198425,-24.6849731538136,7.081638469222833,60.1743846219401,93.62800075424768,87.82331502364474,47.20932191879038,13.15028879194131,18.68793143475049,31.2430264528073,13.365845124999547,-20.231010119450644,-45.60926464584364,-57.775253519658705,-58.882361209798475,-53.443524040432735,-47.41203414303908,-51.60736474630865,-63.71050571810677,-57.99815795259548,-36.06982253369138,-27.57809085000832,-23.839470454674462,-8.684835945513477,-6.605038895433928,-17.23056744804014,-7.872026845910639,9.655071642280976,7.992190411071277,0.015484398146874412,-1.9730490140303019,-3.6784103737143035,-1.1205456051056615,6.001949013280653,7.362093442862486,1.4298571609945263,-8.743025815558834,-17.69867527750406,-13.708416659938003,0.7357448072934183,6.140150721160156,-4.003730643161461,-13.51719004888606,-7.5014102034349115,6.081025808870773,12.476600874081836,14.770858362866752,11.343836229886438,-13.284553698618371,-42.8947836907514,-45.29166283616614,-35.09510206266797,-38.21593399335816,-40.92776739081701,-33.264352357074955,-23.81320308291191,-7.223187505764997,11.039978647844148,9.444174102363618,-3.6231505800294137,-9.885348073975834,-15.065164074579766,-22.05451545386274,-27.731895335792746,-32.03577911068177,-30.741153036728246,-34.41603772062956,-45.73352035493825,-43.160578717569194,-47.55197868308362,-79.90513582039819,-77.80815455245903,35.75642847219672,305.4453264733439,596.3463720220368,479.55381606774074,-125.92533791911528,-534.2048860266673,-355.62752560922513,-101.59202818866638,-97.91307195116231,-83.54703195925684,-8.583671715580593,-19.187970653118697,-31.099437764785463,6.1286677501659454,6.803201184544218,-10.269802981103634,-3.9822638199623004,-4.249519688806881,-12.159262589572478,-15.021046412106415,-20.389922899656376,-26.945230398808597,-35.48256245797364,-41.44635475772271,-31.858970670400538,-15.763550950121992,-1.770766694791166,20.247260184601032,48.49259155807127,69.69378611667021,77.35823019921257,74.94425933918774,74.05695023389214,72.90342386132899,55.439332050429485,25.656278060475763,1.5048176522249062,-15.733723808754192,-31.47077905445462,-40.8327306368843,-42.60012826963552,-51.91542224693844,-74.79625307761975,-85.69485127578199,-70.23059317627302,-53.78064623559029,-47.95541640648858,-36.2119594829728,-20.773157958967154,-11.549010172060626,-4.390769433148456,-2.764492482782096,-5.790100182962586,-0.083256223788446,7.400508151435549,4.47492089595854,0.7374735058790627,0.19646572391842554,-2.3820512279443875,-1.2672309635421612,3.9909847664785243,3.064491010504085,-5.196083730678479,-11.802198638855216,-10.026594398012167,-4.432751407528087,-3.1706803140732056,-2.971592840646288,-1.1300454713909964,-1.8595709509375062,0.6458963610809878,11.86039539273974,21.962905260834447,16.157421390396088,-14.959919621344824,-51.01711342272543,-50.64690243403249,-22.009477124942443,-9.017684325602737,-13.226317816554289,-23.401190531839717,-45.72401103759482,-54.28244385038916,-27.191539351058413,-1.3060216137438658,-1.1246810230135722,-5.566629111368055,-8.12590787508232,-13.510269125064777,-12.588909887057286,-11.614650559038903,-26.469452267444268,-53.38960841525524,-77.64933169130134,-78.41893725332524,-54.20526798986609,-44.6781233862941,-54.81026212269062,-35.282148227854364,59.82269678930808,305.8096550358231,619.3027030513716,547.8560690679965,-69.88331651516697,-559.3078478311832,-429.2243648261674,-139.65701261563174,-104.33735574680139,-111.62273962627069,-49.82276626443016,-44.38201124285655,-45.98369960839567,-3.21058997620926,6.4817732388659834,-7.542864645092351,-3.396527970019548,-9.202491130287427,-20.64769939790959,-16.160804830495806,-17.016532034647454,-29.421411055444338,-36.4493414192117,-35.88418970177933,-29.106687168124502,-15.532977007262755,1.2168664493163237,19.8564923271809,40.07402663349546,59.3730888345429,75.62024580370932,87.20877277940659,90.657258984974,80.36606295578905,58.610303844309314,36.98663500527758,19.119364590860698,1.9061891717165746,-16.198106931278524,-47.220659134721515,-93.83515476362902,-120.0189786199381,-100.55266891057909,-66.50101486491519,-50.86432872338757,-45.37035734553024,-37.074968502223754,-29.615768359099384,-21.874035007728708,-7.864577651562826,3.823680141445106,0.4670799851095495,-8.80400175952489,-7.058931257702238,1.8490003489314955,7.1432722034700085,7.952848240989486,3.1764993687657217,-4.477007707004464,-5.609370606445728,-0.5246458692975864,4.717954891545773,6.169128556105697,-2.106792735729817,-12.974779257536888,-10.018333850248593,0.8034649255518342,4.787579584923506,5.089155433588321,3.5840509386795283,-6.220060208957957,-18.715931700590097,-18.909043155356336,-4.814218727683768,0.6304856266110725,-20.567038857268976,-41.15414255066058,-30.474625366314562,-10.33570315648855,-5.513417697189702,-4.507501842651543,-6.033683022244926,-17.9147637985528,-20.900283640914676,-2.144566512158388,17.792197555327643,18.478304054678024,3.6795317923036492,-9.093456224392614,-13.70922470662364,-17.671875058170823,-20.738662407856776,-27.60673376636116,-47.88896094956969,-62.15660787025469,-59.388155183277846,-59.78692809602753,-57.945051256035526,-52.526962472118605,-62.142598172988706,-43.9060576802419,57.93322927999078,266.95810094078587,549.5842983943825,592.2546744679431,96.55104165761907,-487.6365776079028,-498.48173858201744,-175.39938430490508,-76.59020761261353,-102.43879189216123,-34.921524084161696,-5.964716688278372,-31.92923634257244,-1.3045713967522996,25.00365088535605,3.260435350306345,-0.7709210894405469,8.227180176719813,-0.2821312814507557,-0.6783016060499278,2.6622881259914983,-25.401029552922193,-65.84390570501706,-72.11485006686482,-49.19564847847754,-30.61719049286734,-16.54805332636965,3.4385207373216087,23.960314330209265,48.62843879774975,75.93939294720275,88.67441423288761,89.88373173048124,85.96274696225704,64.02012596935367,32.25825676711064,11.554159935016992,-4.382596072402013,-25.037023166673492,-50.453177935931166,-80.25070189684422,-94.02532923134542,-76.80388112439385,-54.89731612519344,-47.85934647503552,-42.326043080875706,-33.85430420256972,-27.360180021709162,-18.38890440946677,-10.002761308365258,-8.956925182475548,-9.324905458331738,-6.7148901090058075,-4.244692785565096,-0.7711446592412905,4.256935089924669,4.737006785184896,-0.4656089760809117,-2.603400911969519,2.6670335474064313,7.235012497022174,4.32764978066251,-0.6751697556928491,-1.3245730056446998,-0.7801610132536041,-4.491124955909619,-11.956885056114857,-19.314474445392577,-22.768952154910487,-21.403590450360895,-19.24478748665377,-17.314570132478305,-12.013491129330351,-8.172245901702258,-11.826667958030626,-14.909488300399552,-11.604495760688092,-7.237423538559099,-2.697157562850329,1.8563751332551561,3.4827960221444663,5.2729307968948085,6.697041742899998,6.365071553807246,9.615987132309991,4.30643538801564,-23.23599463417198,-47.23481791096984,-41.40492165417341,-17.573262179943494,4.089865947008025,8.73964291537283,-3.9153690464441624,-11.169913683595922,-11.67400891658708,-22.657085746066024,-32.088708436445145,-33.13019120151681,-41.60024460206021,-54.2584897405047,-64.18879632578653,-67.1624479103464,-57.5428527270168,-57.898218456237174,-60.07922678140986,-14.30765673231032,96.25922063073259,323.430573929615,597.5511099794445,494.5262406636591,-109.26522289060394,-538.9669092203181,-378.3079104505487,-114.46916125132,-95.35536272206218,-91.1756815981291,-23.9052375322988,-17.864887575032796,-25.358370760855166,-1.6116064341246386,-1.3995779513999622,-13.417174826736584,-8.335432414619103,-5.082113115088628,-12.023135572939587,-23.262367084420774,-31.64097505937255,-30.671194244682848,-27.369131820143696,-26.29931117200559,-26.283864106976004,-28.89816828822074,-23.584302582406853,1.0114081446035073,35.38574672905714,61.96577472986433,72.82298599968935,75.35678387117567,76.36197763134639,66.4104370681049,45.248903608379116,26.225184275971444,5.044840146973087,-22.2864861977599,-42.16285360086695,-56.106276780223084,-69.21631778541274,-64.57478020483082,-46.37137383818994,-43.76495485895393,-47.588294371074795,-31.117843260147403,-13.888983828645735,-14.437242538024133,-6.449972163945855,4.945988862525752,-19.46089308363362,-49.45003493754633,-32.12367911729781,-2.0315182068208912,-2.5917057346763492,-8.280891512130726,-2.3731666896430212,0.4784214594217957,3.89174126077193,15.12106704013338,25.254310216209692,19.66397780836862,-3.987494386563217,-17.111474840665643,-6.540914631890278,-6.364980066411505,-24.88004751389831,-36.57845658580081,-45.001022407124815,-50.93779081466762,-35.85862657479581,-12.246948489734915,-2.9675183105820224,-11.705363511798694,-33.465497840495175,-42.6631902487027,-21.928465618998622,2.73988348075558,6.54673152468105,-9.789379462008803,-31.21018282488929,-31.345931732604022,-12.152339213436235,-0.017910316231350976,7.1766376467815505,9.632423225361904,-6.672374263206862,-17.57436047999304,-6.2015782546964395,-4.969090950564272,-25.233016207498423,-51.03684768639003,-78.06136084364714,-86.19479611122574,-69.2665904008534,-69.90650346244686,-88.56968010151938,-82.71450048390577,-72.8051968795456,-74.92814407400786,-30.409674446202793,105.24593587927035,356.8826444358781,614.5074579429022,487.8828177307514,-110.4840210331125,-525.3333047305381,-353.44358812251204,-95.60419846873862,-107.30566525473988,-111.29937875925708,-18.137062842356542,-3.366798109211558,-19.726868529864902,-8.051893028432204,-35.603096287292004,-56.90249266690218,-26.89632346029195,-11.198055350432956,-15.810375853792713,-12.349801073967896,-16.24116328392028,-16.460609758215334,-2.571081804773719,12.62265942802772,31.358714499148157,17.180518035078137,-50.69207947316775,-74.5681627223222,-3.9685790059151547,58.38692854228084,51.82609152485284,25.774649395296926,12.030226656628352,9.14461666686815,15.973112452776347,15.4764082078604,-6.064309545873577,-36.64167286883365,-56.12897857409668,-56.462740330373904,-44.982801412836345,-32.406543925744906,-32.64927319636273,-52.51973263847322,-63.885652728425484,-45.07436536198794,-19.988217557618178,-4.56595188201976,-2.1625158317694044,-24.339782783146916,-40.72554759269607,-22.22790979139545,-5.27049052587541,-4.182757823210835,-1.3088875032133558,-17.42558071729882,-41.13391530426934,-24.006793941317362,12.90734202557961,24.335631501083515,10.527078036066392,-13.8738291036859,-22.877619241424107,-3.4414590939429424,19.6398622600463,30.778069530733806,13.366551560611018,-42.850606041720766,-73.3123930698705,-34.86451703462169,7.198705760714937,6.982769398319256,-22.124902495998306,-68.57104299857346,-87.84458146862985,-53.732094356417406,-26.60636338734783,-30.19128323845978,-20.684207497062637,-5.970098190950395,-10.035649900896015,-8.527937026984425,1.5288953658171103,-1.8487431116863924,-6.862234802558326,1.7523641584940695,12.694417348043729,21.127421664813234,29.15901825551249,17.52644170386318,-22.05786390729202,-53.527356781937364,-56.27607595245641,-51.33287339615224,-42.97500762746102,-36.70322839699954,-55.158929323320905,-75.9564806979897,-79.41760395085244,-81.4713989639709,-51.83557760478545,39.53407818223528,221.13557698379185,517.885656689733,627.1593168560698,172.09576313098967,-434.4908778595854,-485.1248036339557,-189.58638142824097,-103.7012460951601,-116.45840852154015,-17.80852401921844,28.944072057701433,-8.033802771911517,-3.342233018600993,6.952855802019279,-12.440477459235453,-6.858909465029203,3.343815503563629,-25.810909104978435,-58.165669286016644,-57.42387569106842,-40.86652982874328,-28.2045646514335,-24.696967143765463,-37.579809581372935,-52.714432719203444,-39.14932308928637,1.9673804435237292,46.98641524581917,77.66771478095161,79.8953793875247,69.20268833971608,74.90775674872691,87.15994087786194,87.35392133941811,66.04262530908301,1.796496520402215,-77.00526729914314,-101.4303039794854,-84.0605169531283,-82.09851524038822,-85.74183805053443,-70.7555459122677,-53.736113676684525,-41.1209139793299,-23.814986726290037,-12.482420116893923,-16.314893880217937,-18.765303941292004,-8.826731252049356,0.8244428585935033,8.369792142692319,19.618031881752415,13.632462337466773,-13.391354801907148,-21.06501724744383,-0.5127315079255794,15.113825071200012,17.08540543083379,9.573957242211875,-13.244626553125073,-38.28764132335108,-44.517511822419515,-33.49247594022165,-20.85619839530007,-14.645805706156082,-6.92710342290934,3.556968543235117,7.204003907693254,14.457153967725434,23.3138790410653,3.211018594865667,-23.76936321680633,-11.744968274266725,13.57814243788172,22.63749402824113,21.93874456331835,-8.305995620124513,-55.92277863587704,-61.57917071375798,-36.03614788419526,-23.83319278749168,-21.526083796066814,-31.899332242389704,-51.400198551052256,-44.40258965565941,-22.064507503631674,-15.836080458812397,-6.451173248319357,15.160522423198671,27.686491995708714,33.38447377879375,40.733721202187716,37.63669298547765,10.545688276172843,-35.59269102477528,-70.80476917115054,-70.0732910492519,-51.311193022012134,-53.932412948044615,-83.03708678320349,-107.1635605134359,-111.62474968857893,-96.26381151444144,-43.74493662659461,71.94305580335906,311.86057772445184,619.0076234395403,592.794950415887,33.18870607614353,-458.00582704851104,-368.3912287489759,-116.53595178691408,-103.7085673152681,-93.91920077948002,4.881022824427397,19.981977651380085,1.5140633340053355,-8.933756001059557,-81.85400167496664,-115.28322200346432,-51.51395733320522,-23.615509850525015,-45.500811282474196,-34.95718554369195,-17.728323849109508,-23.452914340128928,-32.507911079486256,-45.070604873973075,-49.36845392226348,-33.393443454777795,-18.05046597501882,-0.24930064144738218,36.03777130847797,67.4174018272591,77.38761065308684,82.18266982287568,86.36797297097222,82.95313010146361,72.90550419223017,53.166779855928894,22.660767648284033,-9.319849250330986,-39.92063348558743,-64.99510496245705,-70.62029756775415,-63.222244222084356,-59.82418735456275,-50.146104377799716,-28.076811983298786,-11.69698157394361,-1.0904796072244167,5.076747193803229,-13.080249248843675,-37.72495376900663,-29.01533863054445,-3.804811951937914,5.494185343997636,2.2877300324822656,-11.284452677948327,-27.144573669942815,-19.370794790216088,5.458143373377402,17.57793543058919,7.681351268176414,-18.85840053195143,-38.38941073503895,-26.809122897406823,-4.8862375222017,-0.36030210684916497,-4.267407175888394,-8.29117379673879,-11.295880422350226,-1.7646091503028387,11.903705982132355,5.16265235257022,-18.16101816121841,-32.494929600365204,-27.99871151109356,-16.373332994815506,-7.548321684046126,-0.941100341128287,-1.2273332141692386,-9.901868594931663,-11.644346954445972,-1.7912607864025842,8.258989982668993,15.17711478994529,14.008604811351578,4.501400481928515,7.15497694749071,16.47828687210437,0.27734736839696517,-25.8694838227285,-24.605993541829704,-11.428335574254955,-12.038883077918113,-11.462714327074515,1.2767418790015217,4.471400987071696,-13.680724297626027,-30.47704124024967,-33.02296160756798,-36.83987610983456,-39.19097568389902,-34.113571156725385,-44.837073299367425,-66.80565580046589,-76.49369659393399,-76.48141069275573,-46.399045047939,29.93108679819042,175.9902147887114,464.7459556897196,676.5079655125415,349.7841760447466,-300.42662711452306,-510.36728876503844,-271.4606330075033,-151.4538169889576,-159.53522184577986,-62.04295064594464,5.221744516345893,-33.519108168875945,-46.590222312354285,-32.41273918382339,-31.811097148063975,-13.68622736340922,2.623197197210274,-10.120113463717672,-26.335685499271285,-30.158073502997624,-25.292973947452758,-21.413284995609477,-25.744059955162108,-27.028264246127442,-20.514125071694604,-10.37261462086304,9.339537010474878,31.271888735129973,44.42511417816575,59.84831246078761,75.88956065318611,75.75722984048733,65.77816528428714,57.2223588616437,46.29813156841581,29.854387139845684,3.0487729677713737,-30.72737431153331,-47.331607436165854,-43.91243649197691,-48.432038516907994,-63.0121621738661,-64.10718053137984,-47.796014649827825,-27.076609035721603,-17.383225885675373,-27.709332779665136,-41.02958652703898,-38.01345036125703,-29.719289800430722,-24.972700961384618,-13.665041868712045,-2.854607558113905,-6.205095639485386,-9.27191611276696,1.401601113160556,10.630121172661505,10.415698500725314,14.15844608013747,16.218048486288954,-1.7152763552704293,-20.187532708357402,-11.570347733358608,2.4895875062076893,-2.395303600607921,-9.118798535716786,-9.259752717469732,-11.729663331878397,-8.562237635387756,-4.787182729072214,-14.08191947791817,-12.140741036538632,9.15875836553749,12.501752074913716,2.290247862065277,6.8897962137083315,-2.107692811951157,-37.44548011465473,-52.81817552300406,-39.017765793076414,-24.35846758547806,-8.309906856471173,7.279776985913685,6.9694961613998245,0.8096744401364795,-0.1956900523994669,-4.860482291337718,-12.610139326044173,-19.081355042715053,-32.14994243167295,-46.76458126374388,-49.803176852632895,-56.799329067478666,-75.62707890422098,-77.1783087240561,-72.04865157103346,-87.21378139267883,-68.70347112677433,24.64269424945124,204.54473626528014,504.8886809759326,663.0793304164083,256.18286622103744,-398.15584960130565,-527.1733048744186,-216.9505163606354,-85.75998141869837,-115.92520065983561,-43.40862840595547,9.449475245561644,-24.13683386432099,-20.927332520805948,-3.017514651629803,-16.946575541006133,-15.408214796512706,-6.868167480254975,-14.94109799259898,-17.299089009641403,-18.520853007152933,-29.256569344472247,-34.76566605876936,-32.33205245865898,-26.8097036655528,-20.601749985926084,-17.45577296149684,-6.8186199490939785,21.590546130233122,54.67180418047222,75.25145833301033,82.00145955695656,82.5291059150544,78.23138395575079,64.4359220082461,43.66733392568327,18.08356002021291,-15.9260791612643,-47.452009370790904,-62.60361432342117,-68.39032082799172,-69.60439344341252,-62.105864121048775,-54.71935460859459,-51.55230836107113,-42.574143196939026,-30.348192918006013,-23.362115270705477,-18.206339001483215,-12.491211703237568,-8.568686890792698,-5.6477833735381715,-1.4679205247824072,4.10647914014627,7.811545992724573,12.261794391241773,22.938105333692935,27.424030957778616,17.045498128727424,7.086922312967511,-3.2593346809840114,-23.587841922232776,-30.462234175635196,-13.115284281400058,0.4730615065875057,-2.2496236889481445,-15.60723640513044,-32.98421237452465,-33.443972730072424,-13.451815806237406,0.054198636376728615,-4.941690407759623,-22.632605358917566,-40.09753644268519,-35.967734418269174,-17.046925113176776,-8.439809033612754,-5.904909893977326,-8.472330097329362,-28.47000501145846,-39.949134399707,-21.24839532925791,-3.905701580137414,-3.404687684689762,1.8485741513631027,10.709467200671401,9.311674752237607,1.9574302454674548,-5.564130424291161,-13.00097722128086,-27.066455355978427,-51.10612444244797,-66.73396941352686,-69.90336500321933,-76.79539323610919,-80.70909783872824,-84.31014274083051,-92.20251644370782,-58.204419082361255,52.48744028736088,276.3994128645735,590.6959948463618,627.9620077580433,91.40346424466463,-480.79540649507356,-444.8296324296741,-135.16923194831037,-77.00974153418316,-100.96658001796467,-24.87489661371533,-3.366458653923715,-27.053394240799648,-5.343478885099291,-4.4566507181287776,-23.304857953750513,-7.3920148571012145,1.220172000966695,-10.04164361050487,-11.674836110077955,-22.093229234591817,-36.34278358095374,-28.879335423606438,-25.204496204380312,-38.09233967299355,-39.74739433045516,-26.321832043007216,-7.299042797793996,22.934956286001146,58.67158799629375,82.46649103245872,86.95849765081637,77.2589888725131,66.4688323550524,59.92646183894806,48.0678196537571,25.206403747955463,-5.446065886504142,-37.95537245715818,-59.90224621336917,-62.9345754179779,-54.05281347155908,-44.55216257587711,-40.372544195204355,-40.595023734324435,-42.03273628249221,-43.91077918874829,-39.02792729277709,-24.83270359538745,-19.00529841325486,-23.562042542769838,-17.280716700051784,-4.366497043210622,1.129187505007529,6.990318487782858,8.602726341775229,-1.2622658308046546,-1.505302669203635,13.707119219640578,24.221579243273478,19.294061552343784,-7.071726473822618,-39.933053783978686,-41.35217466047717,-18.664057724273285,-10.81704584530577,-14.93710125337818,-15.398812606447763,-16.88843327346943,-15.429082387482211,-8.25028490045144,-4.732575974890732,-6.296971221186897,-12.701972762109268,-20.08868379285815,-15.825513325804675,-5.146654670555446,-1.3352944593073843,-0.8394236717415495,-3.6527536929906077,-10.777842777299647,-9.244729753950647,-1.187714637028126,-2.8956075643069283,-9.904946978410372,-6.9802237300627805,5.484483608443494,12.422453050821105,6.2611555575854005,-0.09498872953776782,-3.845177191766293,-18.301904397702724,-32.93066730726872,-37.592588204989696,-47.97306882987697,-59.134199388204806,-63.98903027266868,-78.13242659801175,-86.22942854077027,-78.60751465742823,-78.15733250585379,-55.03686531065677,38.77481214976727,236.23354124417978,533.5029745943901,635.2047075364849,198.53350475281138,-395.0644148460889,-462.7625143831775,-160.31298571025826,-45.48107714703502,-76.82505167362461,-28.85747569323972,-11.201987155243742,-67.02801248776012,-73.05721477917415,-40.47807138894523,-30.480245796296956,-24.56930287290053,-19.62697649134201,-27.99103212833743,-33.968715329355426,-31.82277585385132,-28.941392853162757,-26.189613318260285,-24.992455100135018,-23.637434961008374,-17.43950615661204,-6.617292794261191,14.792229524461533,48.46893378006388,67.8307005179751,58.481185885739166,52.877909489164765,69.47867799937636,82.18626293158674,73.75689583102826,44.721744373336975,-2.029613095983695,-41.879942272613945,-55.23405890603968,-60.32231619972244,-70.36906718144839,-74.06287977586055,-68.75726663306173,-59.28162093712451,-45.45369953341368,-32.25613594188418,-24.01287454243392,-15.295621448550193,-6.78222647474087,-9.694896929975314,-20.18469438940039,-19.300662957079044,-10.663547602299634,-13.099395433100149,-18.250409142585042,-11.107360707576827,-3.411953568417509,-4.125031994833652,-4.583200257362638,-2.6130341822813783,-1.639568229607221,-0.7084910986355357,1.833411037314887,5.691452449527333,6.470390247683472,4.275964442755878,5.161438149281427,4.7684189112197295,2.206294300911292,7.680681700358116,6.716854547613593,-18.36054551469483,-36.898654957670615,-21.38977289859785,-4.831156127167475,-20.815832198734697,-43.670153425287246,-36.30091135986963,-14.90595819614342,-12.326216007870475,-15.397060773349061,-8.984263899920194,-15.384596985303961,-30.80078488468265,-25.54308935637011,-10.92275517688315,-5.2939574891569805,3.2030082725741345,12.046209239315754,9.833352274886519,6.071160627098962,3.1873897700046836,-6.111331402991496,-20.23759504677174,-41.38668219861123,-62.10453160345922,-63.93909575832686,-62.7630859534981,-75.91126253759322,-77.97872378734267,-72.33727329144004,-80.85185968128728,-60.47664036629828,29.709102057630304,222.7411527001522,528.9061820469385,644.1369525699573,204.89196144971478,-402.18303598424586,-477.1820858283577,-182.69795657181493,-82.75199968775516,-111.92130334911631,-41.08921159905292,-8.335193996282086,-50.28444391523127,-32.69225278796707,-4.441996079132522,-26.645046768007646,-25.537913596129826,-2.0694492409191874,-9.857004119237573,-22.23503642694222,-21.12313669396665,-29.854448283992383,-37.2030202056887,-31.29919531672293,-31.48053390749463,-34.14887681443595,-21.887785552709534,-1.7152874859741094,23.84024283866588,57.41385365564794,79.38294097653053,81.75208244061756,81.42300690023932,79.72649388665528,68.17844293747785,51.024296302168665,29.38822174646788,0.6075713164852132,-30.45402288709462,-58.72312212050415,-77.18824120421472,-77.12683220119867,-66.26020714670256,-64.29378310788749,-73.13347492269655,-71.82491862282853,-48.79119042728138,-22.54302108911157,-14.972602989711476,-20.431707438796558,-18.978442099120823,-4.562235363458456,12.358291004148644,20.75883933810606,18.089498047854164,3.1979392201439865,-21.911990478260783,-37.27903525425111,-25.26090874849939,-6.070222350272154,-7.749779671872556,-18.18453854190529,-15.75272021059748,-9.5497078213501,-9.213804200964482,-6.6162185962837015,-5.30058946517061,-13.793157988622418,-19.840339873534205,-13.644917263864588,-5.6510596624981275,-3.640909143032964,-5.25278589028721,-6.9653329789050105,-8.350315058377014,-18.143936918690645,-35.70937616445206,-36.584891776023696,-15.494545023901026,-1.4644642175518854,-3.087784967646286,-1.2209601620864419,4.087933543464722,-4.029531147251788,-23.63072141598028,-37.132745733320604,-41.26403081456084,-44.489444359617785,-45.888161777691735,-49.1734916462435,-60.71281218161235,-68.11693746841019,-71.57114548917149,-74.03923430794218,-44.94267076398274,37.15272753177476,227.24266233820978,538.9576014661047,619.6855727396048,130.14856983611008,-448.7795237826059,-449.3010190883683,-145.25970718828597,-79.78400738903353,-117.34951664669919,-42.66102869978374,0.26058957134173966,-22.189728261809208,-17.493047213114735,-14.14244950263818,-17.632089087226703,0.7039051030280135,1.2725022858857926,-18.14170395020721,-25.80217311625288,-37.71647245135995,-50.28926254975699,-39.72656301454473,-27.90573232633649,-34.32760989856703,-40.487521205381924,-29.578917725349115,-1.7055828896882383,33.36883731948147,64.42826309443859,83.94949145919436,85.69255640438088,75.11952648759535,65.24339705950517,55.71707513850633,41.78023399796401,19.246936642900298,-18.70848629567373,-55.52806215534642,-66.2996537375844,-62.25921451305039,-60.451453072237214,-54.40779244241748,-48.171814643813654,-52.19362832156714,-54.05868760282419,-40.681178747410456,-22.22772059604825,-15.135875145484398,-15.972293492824193,-9.919697382761115,0.587670896965875,12.379415321665201,29.503563476109303,24.170451050522026,-18.19756548421137,-43.01108389993715,-22.145706685230166,2.269417350319266,10.610218426839936,4.222381754337587,-24.11275787429235,-40.45582805230347,-15.84417649898872,10.585636433840513,8.116409887216072,-9.402353211663861,-28.345447132561077,-32.38614191310167,-13.652831529605503,6.68275544441741,14.816403706893968,8.210603427423848,-18.72135969810818,-45.488639444174616,-49.591523445317634,-48.45610868282303,-52.35320176085844,-43.606980893415965,-25.342845799779035,-12.302700554478015,-0.5174116446003083,6.252965269215679,-4.002913505772916,-18.83835798996065,-24.233360798449908,-32.76569752366977,-45.86681783542409,-46.093416529616285,-47.26634310482305,-65.73190071674554,-75.42619608062245,-75.29891247173197,-83.32815484256551,-58.53831178918293,31.290861460870616,214.5427377328809,519.4451066552399,658.0149842518076,236.8012169978597,-391.4788186191141,-498.1327149668595,-202.56747938470443,-81.91353550650085,-101.34172514047079,-28.61055569319491,9.198316078319166,-31.021920807539537,-19.710781842411006,2.673566624109739,-20.666218704700825,-22.483543547047216,-3.3695265225744464,-7.993338854410787,-12.59246571059213,-9.536324443563565,-17.42984803868086,-14.777454208213388,-3.2259744289431325,-24.690269611822007,-57.383494241100834,-43.38295242878872,-2.5195029144580863,20.99156350035971,42.03969127580194,68.44491965201864,73.48207865276952,63.17599661932546,60.805083427308574,58.37635115398332,43.36343822182756,19.404662665524512,-7.890259278888919,-33.74561115111843,-53.005370727725975,-59.93266276351699,-54.35161128737762,-46.693276920426364,-39.100166475140654,-28.74313149259359,-32.20589820700941,-53.72272384151239,-61.66650082196198,-44.69839889563074,-29.712568877869646,-26.5332186005832,-21.608733708183404,-14.962661188908072,-13.22975211364679,-10.392260748086748,-3.541034512999154,-0.09640022685585237,1.138005281411921,5.042061805083701,4.310548926320445,-1.3219234848002905,-0.2513710703986778,3.6876769042345394,1.9211890299626546,0.9749349250932742,2.2926664480499,0.5475763692384135,-0.8218755675067726,1.8379709894429226,7.174616346151867,3.654260753627824,-21.494787179577738,-44.1350336406814,-34.946356632322846,-19.044940827932837,-18.53307479120226,-10.44626149183943,4.099570537708537,-1.2999977824758417,-16.923425391671934,-15.847789254214096,1.9740509055253241,10.214581446497329,-5.675639525144611,-16.794796242783562,-1.255966233774263,12.892536635780667,4.8860603346954505,-16.532863092797804,-46.25063735170154,-67.71757662481807,-60.70128784004342,-45.09572153000827,-51.43348142041475,-72.45979247198912,-90.40775362883633,-102.48732118174767,-87.69787746655471,-19.43255104309632,113.31292063066985,357.45800922545027,621.592434638086,502.3476865918204,-99.53731258533276,-523.0594356433426,-355.31820991717274,-96.43556073864818,-101.53639671518589,-90.35639792953944,14.587669603453534,17.928468443325436,-28.479527169924324,-34.98627956434065,-51.50637724598769,-51.22917143551595,-11.323198878276315,2.7349362188472064,-14.961631480220198,-35.01396614998211,-53.3302735337668,-48.1443110743502,-22.83726954153098,-12.414980280060764,-19.410715229568012,-29.144293913618,-24.4774868847529,7.269054397034285,43.917628908387236,66.77965195132023,77.56448286800529,64.63124292416349,43.496282283405776,50.84691919378197,64.68706421607865,45.02606585265382,-1.3028579303246026,-51.492002530373995,-79.78766632420289,-74.96693555935046,-67.86875686115275,-72.59660536659865,-65.20264385117602,-50.44839532624802,-45.9090696438109,-32.62882318258332,-3.2012163172695196,6.200276842188721,-20.269527974431185,-42.708289877967424,-30.359257395209205,-5.467541565389283,8.162007977342835,8.39779828728297,-11.173261889829355,-34.58435569138385,-27.26272378905864,0.25107257715033526,14.616276988635601,9.129233933135247,-12.411604500502797,-30.804386475757482,-21.01955933227513,1.993466438792293,12.26615374512728,5.536040282961743,-19.092825158542354,-39.164632319749145,-24.329982443766404,5.2670977672333805,14.961895161573931,-0.26465482385595607,-29.969621529591166,-42.19577393523319,-21.83327442120978,-8.419956613149601,-16.08632859468554,-16.766924693968612,-19.473035746728158,-34.4845471316612,-32.50886083224028,-14.24598435897206,-8.67294538533146,-15.893333062458758,-25.047607021749485,-28.556177279470994,-14.202517279348523,10.675893900766754,20.83670527905979,10.035346756554883,-3.026521585874761,-5.61129876393465,-6.43384249289883,-10.70373148254011,-17.557240448084038,-37.680848517899484,-60.95004580806478,-63.116079266846825,-58.11096798570927,-58.95612318179454,-61.338301819598044,-78.9969570255191,-80.00579581794787,-1.658414627580342,176.83196768357158,465.32308761398855,662.2961948323559,357.93712312039014,-290.6812101099391,-534.7045702193693,-264.3472480701986,-74.24124040019397,-96.69777834251076,-58.800433374286186,0.15502633571166768,-17.20260084042409,-7.24695294290639,35.331946916818666,27.16066408664733,-15.847755045226094,-45.138947745658086,-41.7119052559202,-16.132317422459508,-5.833994041298659,-17.5461029530156,-28.407700732317092,-33.719075579544864,-34.719138320828854,-30.052876505110703,-22.232231490493348,-9.21201266205468,8.189989958181325,29.26926197518793,57.50174341442634,79.99038113639799,84.23680184182662,82.3856113012778,79.60264943647924,64.42809951755197,37.520335719701286,7.137078668389389,-20.285706121716018,-37.90505480184365,-55.4888017404908,-85.32869308325752,-103.76949058669112,-85.40936155741588,-55.99308759234711,-49.08535143895115,-50.154178776107415,-36.4043114702021,-19.922222182398997,-13.067960247141826,-8.045290354162113,-6.040273435515559,-11.266554445114465,-10.157302612751188,1.999712943319519,9.849670034329517,6.2215016278076085,-4.019512216786477,-11.86167077112394,-5.998820351787476,8.261352603304378,14.13543623887836,11.009440621998808,2.945389666464088,-9.283497211797098,-11.130045417558156,0.6014601806345219,1.8269012032217518,-11.655088338865916,-18.529379209792825,-17.689640103072975,-19.476558340136723,-18.981680436222224,-14.103146274337114,-11.083977810198906,-9.90536546093184,-10.943615859202716,-14.0982337567469,-11.57203517876508,-5.979459167594669,-7.362278020083107,-7.232417888715521,2.1371616783314717,8.097229469754321,7.407543187320968,4.9954457893419395,-8.861044024750253,-27.9755908488303,-31.545815350665293,-31.853080337768937,-42.4597607870672,-48.23877147867602,-54.74982256690912,-69.71724412631362,-72.79109818615008,-70.06065488490162,-64.96622457096768,-23.130779417806487,79.58238424396168,306.5408060216421,605.0195708533324,552.1113324589521,-37.85048131841444,-516.1319404564222,-383.88933008249387,-105.90689559545227,-97.70282695294743,-109.78702934908426,-24.67992945469409,-18.797944191232972,-47.73372389948948,-15.1668551646252,2.514178907393415,-8.712344834248618,-3.5568354736142425,-8.483793072056997,-23.563794796725013,-21.764164350164155,-23.099444675635965,-28.68229790287637,-20.192660381643226,-20.972519046968507,-35.68480630786475,-25.2984374818926,9.155433212169317,30.30403050236361,39.25321372632074,59.253924515519884,80.02503277592837,78.74109731073511,65.76031297881623,60.86384204059003,50.38799733804625,19.0297609654925,-12.786644136663071,-31.419545498100515,-50.78526029456673,-68.4160524501744,-72.84526785489558,-74.42773740149346,-74.8187049158104,-60.32586754650886,-37.57903799710456,-23.75754836595315,-21.178599354076095,-18.250607134143078,-4.235721360902183,10.876089026095135,19.951342725054488,34.641255493534445,28.902846247015127,-26.356168351741005,-68.85060277555284,-45.333480030078,-10.818472244844155,-6.629499844878936,-13.93368174683453,-32.35451411150773,-47.654890247852926,-29.68905314638238,-7.047974818707591,-7.715828753539121,-6.168400076879614,-0.5116133618119605,-10.219739203010498,-19.383755802696616,-15.40997165979272,-11.89448903217604,-12.651909124789075,-11.017183747608868,-4.153777000102721,2.23044396958829,-8.370527501039192,-34.417200344201085,-45.68311218984232,-31.07779354748469,-12.71500586617612,-2.873812581971766,4.083792586343549,5.6536833264473,-4.51825027489253,-17.50699994636355,-20.976509411217616,-23.821684308522155,-37.86713241111805,-49.61657111570941,-54.7823995768004,-67.98660184933004,-72.46002992145989,-61.76757355732835,-70.59041057435044,-73.95014435085618,-12.029644306300312,146.467127135608,446.0817129529544,685.0369027565912,394.85183708607826,-290.1137263852161,-562.7444156395715,-283.02748794088393,-87.85279280236415,-116.140697250074,-63.5886501151014,7.1276707515416575,-24.775868722516442,-25.55738726853327,17.809574690916676,16.582550959997704,6.121567221945581,8.015804409723433,-5.1994232788979495,-15.362884895004179,-17.970554805491965,-28.121568730793346,-35.404787881784955,-41.146306784283425,-48.61827251208747,-39.55880100096949,-15.886816593474823,4.2207488916107625,20.74457994395466,40.888388321540305,65.85030737100804,88.81518398877509,98.76941795230216,95.18915139349473,85.18418621985873,72.77577482786492,53.49594935359997,17.069924719217124,-22.129496509468805,-39.0992319624505,-55.86218117413941,-91.73494020328853,-103.47728804131287,-70.91038639627746,-34.07315874800696,-21.764132815390525,-43.5199418270591,-81.66856507618026,-81.57938736998604,-42.51612405429679,-16.056684296067438,-5.106810338471817,-4.04199079545176,-28.60653677623425,-42.583457781546485,-14.578601868996017,14.613821571319733,16.467710796524514,-1.266306209402444,-30.33984585662865,-39.533819035782,-14.41461055215564,3.3091924240966684,-4.5135267229307665,-8.67764232629127,-0.8563832929364281,5.8661774428016304,13.165186393192558,22.59163205339914,12.217409990654502,-30.82520703014847,-65.0180691743836,-50.85604355681417,-23.50874895425622,-20.34315373555245,-20.56817105365062,-16.315126465272975,-21.838502495085265,-22.891048489112094,-12.34989087064297,-6.8413796215026075,-5.4525014787417305,-2.2009394119159893,-1.2618515379420003,2.870202266495795,11.105233432787605,8.3149424566417,-9.178269835712246,-28.060398795442854,-41.52671204613107,-50.02893140217613,-48.583734245994734,-45.58745579578046,-59.56944723702624,-75.18294998466942,-76.93245986703954,-80.35311067967271,-61.36905066916766,20.851554392955734,192.5462224055352,484.6289659600253,664.6557335548957,308.6289425893218,-349.1660803794086,-535.6192219276259,-240.83706657965644,-86.63548241493953,-113.55243389916438,-40.458815496621455,24.382931368427194,-3.1775372557744674,6.178124901234304,23.304396448768593,-6.758061343425247,-6.320037693603647,17.321425432743467,2.902577301378237,-26.609045576315282,-46.37582914149665,-54.74114679468197,-42.86253428675415,-26.994145702612965,-27.182815415181278,-40.21125871612239,-51.95398189571828,-35.97332520818574,11.96541324816592,54.69212331253827,75.35620362040527,90.53070725010872,99.51055344038215,91.93083964018052,75.39653116125818,54.630861627953784,21.43863727741453,-20.009752297715025,-51.40205564900918,-67.62961309232335,-77.11356459423328,-79.43044517820405,-71.23533790459979,-60.77204583718148,-53.50830756757336,-44.031354110139894,-31.946397151524145,-22.98408968395765,-17.08552249304788,-13.017358315941518,-12.368092735361373,-10.646520791448467,-3.631492202432682,0.9242144795480272,-1.7076682780039576,-4.136964830747267,-4.724273001705686,-5.884040334948061,-0.8610846734562578,8.702217277230428,8.134619465664986,-1.1259235985426272,-3.5564930805079342,1.4497491027053808,3.6403127535731823,1.9359878119289213,0.15822590345897325,-5.73083745216756,-18.44754796788309,-24.036605679846964,-13.482197863936246,-6.747162257112858,-15.96344720684106,-19.325304000448703,-8.117772407513582,-2.1450809139584344,-3.28080881151034,2.042440623859118,4.509524929345357,-10.871760295396157,-30.240190021806818,-31.738907657797498,-23.59298493735272,-24.23072850926178,-22.09673038988046,-4.027525144996625,10.501500151312175,11.94221446103947,15.391580371879655,14.012693061138911,-3.065446642173743,-16.504622241011276,-20.09220639568653,-25.848900381413515,-28.183042397779385,-40.28799146830889,-79.4986934345814,-97.55557305444563,-74.23802748983672,-75.79258388214876,-92.0454945579491,-37.184033992144734,116.9638935360651,387.9634419030212,625.5479107077003,417.17449644288047,-205.07469803913773,-530.7573146826206,-307.03346854930646,-77.95488548843502,-79.18500809374112,-55.38336438316216,-0.5309287352028775,-27.704006987808043,-32.39388199739368,8.378569419675372,2.6812152494748176,-12.544387860159706,2.689457614471742,-1.4986119399233573,-20.557107380991646,-18.803108189584442,-15.297543705060477,-23.107723423309594,-25.604289042156445,-21.243180374501804,-15.76938355007074,-6.935366652172737,3.5122313663713927,16.728567925442057,38.561326941998985,58.37884837895396,60.63936596767391,54.41923300045958,55.23575565810936,57.45188837371046,49.590473044731226,30.597396716588893,4.894644907770206,-18.425718796407722,-32.462525166008156,-45.18729325149775,-62.039783454955305,-66.60254012990816,-54.039177390068296,-51.776617405308365,-65.1435487850298,-61.801702771889154,-39.90809478202079,-29.475291753862436,-27.931250213499318,-15.422045365228023,-0.9569984718700368,-0.08029899439229027,-4.856794976595179,1.0200610978453355,14.986826837884767,21.772300929933774,21.83396326549114,16.03818694081685,-8.598012159726153,-32.4526764460326,-21.869220794848474,-4.234629177207836,-15.671427150745714,-30.014637745711866,-26.043021149236743,-22.05695534369828,-20.126111565964628,-11.775944815406724,-6.646108239934648,-9.97912065437184,-15.81537460440073,-17.813562193071963,-10.313848633658793,-0.46665014285925466,-3.0575705913403937,-15.056681298147389,-20.169208294108213,-10.468280550712656,3.75274666120119,2.194735096557615,-12.882407530479732,-17.38043258471411,-14.117098803621818,-20.838600201198375,-20.122531379725608,2.2171996296190883,15.649615673061689,3.859781594721344,-4.384294458531198,4.436940936352089,5.354489580053709,-11.772230882774757,-24.308399528573226,-29.66173731711529,-46.9936251338067,-61.886527270741695,-59.62487776739026,-63.277500051284875,-72.25682692505775,-72.9519777389725,-76.19514721226736,-57.8712852014866,22.702098326745386,207.94903521460577,513.1449892473579,646.5574627593908,231.99026925456806,-375.8021033943882,-475.03870561684755,-205.9306262887871,-119.81925375963503,-145.0148534077196,-58.9066015508105,-9.129411832677349,-34.20626867595723,-9.763676042205798,14.707838306209037,-7.8670009481392,-12.018238230161108,-1.313277262858957,-2.8945641950245005,-0.7601882591330984,-7.945890822392023,-23.022763989685455,-15.653222022383964,-9.088476470890988,-27.687914221040113,-39.922260942258376,-35.32654970416758,-27.883396081683923,-2.6675191578680595,39.45115387274976,67.64365537474902,76.59234383121711,73.11474023116973,55.74345066823678,42.03059942517598,42.50241028004567,32.67356986736324,0.8184875521916268,-33.31707030058037,-57.72378960740355,-74.31864100005888,-77.30567970933294,-61.58984609674126,-44.65026712345055,-46.94328358548955,-56.264374930338384,-51.27406132765372,-37.22998092565116,-23.548911432899075,-12.406800832824146,-13.606190024804619,-21.24956761032941,-12.313484282502657,7.966135745651618,15.065393189284727,7.246957239377924,-2.6554755182150274,-7.881963997489805,-6.892075853379161,-1.8384739686154,2.3553313983505824,0.03511034117009615,-7.775945804814132,-10.501297008353998,-5.753597053444388,-1.8677899395498336,-2.392175886924573,-10.785024166044302,-24.850506601140843,-27.380967573141287,-16.009217923760367,-6.761848300638945,-3.978341748353312,-11.423046369554633,-30.732465000493434,-36.89306636170847,-18.451946048445457,-4.49260750291613,-10.068792929575864,-15.212284711141812,-4.566902187673698,13.281058570318446,23.940725582665685,30.47088414956985,30.846940243262257,-1.5524701757064143,-51.25073507507216,-60.26812199446309,-46.28793729116179,-64.16187154667739,-80.79132746807154,-67.50322316118167,-68.75757967736588,-79.64344987630463,-71.18915205145308,-70.1444164380957,-59.49903530127864,12.149722725321965,179.2885618257452,478.00049046236444,670.4103483339754,322.766839905,-336.194045372859,-541.42392045012,-266.93620658318576,-105.61678397743651,-116.1215816894217,-44.435937033078524,14.333639203298588,-21.07302793820986,-24.57540500534349,0.41922546575838027,-6.815274420324549,-8.855044457084503,-3.676396583023852,-12.249917317491331,-14.232922323931131,-16.74997737270984,-28.548911843192435,-26.97890445787924,-21.53356067294848,-30.310697582438365,-32.85812364051162,-16.95393321738339,7.589006249549971,35.94656449707704,58.374660891443185,67.84054880361111,74.67633795915081,78.94230978453456,70.16988871953744,56.241050682225215,43.11046221612672,17.74507317563684,-16.45902459090843,-38.63934332930623,-47.94935644269651,-52.817656696747505,-53.36694239241782,-61.734948563240245,-82.3029316029567,-83.70508108643946,-55.483104553303725,-34.82256022022683,-33.61231361006129,-28.193638335402724,-19.186875416350652,-15.536248089922495,-7.7556115208041945,0.35370473307198225,0.9113707804671165,3.703567776647432,4.320011633898591,-6.430847644668276,-9.964906332230338,-0.7674853731094515,-1.1652774887341408,-9.322568098680236,-7.668189099949728,-2.84475575143367,-4.404051886662927,-7.056709027474913,-9.015037014505591,-12.613360228774305,-14.785222509935423,-12.391943422238914,-9.720242182457902,-12.595298216234774,-15.369400947910513,-10.434481362102915,-4.060463736808689,-1.9494210164765633,-1.4699869874859104,-2.826501567945627,-3.4572715506409626,0.6485980017628066,6.697456558312275,11.696797342330623,2.526733059457335,-29.79531333500011,-48.398454191723914,-24.310318259972085,2.4118090244152164,1.736002128220406,-4.931826587293855,-14.242361295435899,-30.01744465816196,-32.17022012798722,-31.330276749224492,-47.716149480356066,-56.55920574225176,-55.04402158453927,-68.32107041445757,-73.32225405695186,-64.2425595954003,-74.79306763547424,-65.80609821016427,17.07926066829485,196.1315414672884,498.51870522589076,673.0488862626087,295.4218851753875,-359.2419931978465,-514.0962489275348,-201.71394605384523,-56.613787362716224,-107.3443410225928,-64.31998908825099,-20.950170760294142,-52.471694704688844,-29.759365293710935,13.394783346257267,-0.6327501081552711,-8.333162375024877,2.246303661901292,-8.97466296412001,-17.53814607092761,-17.614727831898605,-31.26826074265524,-41.15491491720266,-39.27945526776753,-37.66379238759288,-24.205295581130397,-0.03134806875228335,10.402317152445644,15.719218263662503,37.370623660531884,60.11676106561873,66.9316666516724,69.26699256110554,71.6213486150168,61.64070956078106,39.538057558475806,16.436530651606333,-4.74373947904091,-26.066799965628892,-47.091387817375036,-64.19802088032301,-71.84007459808427,-69.24048471496178,-59.50864727864857,-44.56155286703448,-33.03889303679887,-33.21876450422454,-33.777718830281835,-22.605062877456554,-7.917552012234264,1.1889140460576186,2.0388768147972556,-5.957485397625302,-8.942901540777587,1.8674262447732524,11.885535589218401,16.668211716552623,17.004803284698205,-5.6654943060755265,-38.80133870009492,-38.134521946489116,-12.353674722827044,-3.0007435271659553,-7.073584540671739,-5.156241689222945,-0.0867177206707872,5.905514750136737,16.96759999291904,29.00721522598364,22.459884247658934,-17.75571051266893,-56.45457320080382,-45.39999367395035,-15.310229862703494,-24.92239709526082,-52.028478671094064,-48.70207003082868,-30.379577379321706,-22.403566746114215,-10.831810046167828,4.928106513947107,1.9404576310385018,-13.241285456436238,-19.234569182165224,-20.366125265494517,-18.55969414946957,-4.748686173679609,5.351920756890667,-1.6004631491888262,-6.310999914023846,-3.9765996530770664,-10.361615366353867,-20.175225444964553,-30.009362363265847,-46.681239457703924,-53.773165294988594,-49.46314139931345,-56.01202295645221,-62.07433559833877,-64.49156706112804,-80.80113914876883,-65.68346039985278,26.838671665071132,210.16200827376014,494.34901688267604,626.8797608531705,233.97263587957946,-382.348200624343,-507.4668768974925,-209.82106804967333,-70.48255368634696,-100.21371327849023,-47.021097449588765,2.097622655404166,-13.521793829219547,6.226780977684623,23.25487899038339,-8.659419808838809,-17.963026793805547,-0.6208564932548626,0.7758534074754238,0.41831580638929466,-4.2979543939932014,-25.63524200672512,-35.2824439850054,-29.888461857071427,-29.003149079383387,-21.449928272238083,-13.45717525283175,-28.09927930297907,-31.99571701827375,10.441993469532182,60.825637981430425,78.12735019632362,74.66565317341545,67.83173367510949,60.39173748305422,55.769557773033995,46.92367383177028,17.412262046188594,-31.177690671645333,-70.7901216262035,-79.66935164661379,-72.16984830045482,-67.76264272136031,-58.501807152507055,-42.69489641035915,-38.81260819769609,-45.049335970940234,-41.7527981235816,-28.031635014309703,-17.237396773970026,-14.873319367677603,-15.710242383645216,-13.120198304366717,-7.0857044928982695,-0.4570946671971541,3.1016700706506057,-0.5108215389198634,-4.449870774346444,-0.9196810300458651,0.5972455484631389,-2.9247871059564297,-0.5099731868766924,0.46937999177623624,-8.525189461692818,-9.768524705876615,-0.18689341258540892,-0.828781091470816,-8.321146309557871,-8.983501830346363,-13.985117677417701,-23.007937205957496,-14.86065230302172,1.4607380121371563,0.7234800140684072,-7.893103906074096,-5.968921447069112,1.1041158030192655,3.8705276098419006,-4.260624297598948,-22.868869890679505,-30.205806530952742,-20.16643922402954,-19.067035271121682,-25.92269441224807,-16.498168747292898,-2.48398737806707,-0.16602683294108544,4.838428582498684,14.571735627799264,12.243893891747778,-2.0668053111045275,-12.58577856139368,-14.085087448730924,-22.076643004216486,-34.703406812384614,-27.484912708903998,-25.949911294625664,-66.49877809319469,-104.07354852422868,-101.07406846500766,-80.75503412778934,-37.2974801371445,74.28679199152815,313.0368249184878,585.1907458578665,487.0924341857698,-98.67795516211237,-525.4806741004863,-366.8385115960242,-102.3001044229843,-96.87096875104999,-97.29962952726993,-12.580799047631913,-4.0369817756634205,-21.815198866338907,7.96264308560173,14.828739006916557,-2.4663963985367054,-0.1012047000750762,-0.07693436256651154,-15.30750577924534,-29.202101201964947,-36.75817969039758,-41.2705118727035,-46.81047634338403,-47.58269536223004,-37.461047974759865,-26.60437653515474,-15.332880325875315,7.114218869469678,33.96725681487902,56.572409687783754,75.43882817304016,83.29969110587069,77.10369640491636,67.63745780875333,58.58619313702031,41.67981025422759,13.447641798731517,-15.959201395995777,-34.58014936773901,-46.970921466804725,-63.55996831198763,-78.044251953692,-77.99955926323014,-65.75225193804755,-54.64861863563468,-49.810272702520706,-40.30376690731276,-23.83432414116774,-18.03758593117687,-22.49544584540353,-16.95356413406994,-6.139927461114187,-4.837653117858451,-5.564929356460873,-4.662256257413393,-6.849340933412876,-2.7711365784806397,8.9848412364924,13.081296352370021,9.551540396902876,9.733246483044217,11.797719138656547,13.47796667986442,21.255091487680914,26.8766454051411,11.070703511375761,-17.02824697181296,-29.662460933203494,-26.437574379396313,-21.64522823712346,-19.13293911058833,-29.720998565805836,-53.58778535645107,-60.856125606314,-46.62013800338032,-40.99522646649002,-43.85038567827639,-32.52428540256562,-11.802274276691357,3.3071026527618095,11.137010811013688,10.931019862439179,0.44876021397003285,-15.63152459256678,-26.278454648904308,-29.33344706689833,-35.77070316808022,-44.26929559845861,-50.157390553110055,-64.8087037255174,-74.69900971934491,-63.59201604255691,-64.33519632675646,-71.43009488940511,-29.0219506087954,92.85853560892076,353.5139817382517,640.3965985669454,493.672751404797,-143.71346441495734,-535.3399137168091,-335.57069970306793,-96.71773600532833,-102.29383315510138,-77.364653008837,-5.74892644181071,-30.607160474853693,-43.80122771347542,1.756738104722352,7.716385558586207,-7.08055145810653,-1.766919147980568,-9.673277441184815,-19.867749250318074,-10.22946185754293,-5.465984328945559,-12.04271958188096,-19.48666513773348,-30.286479735477993,-36.58741981590864,-30.49868834533786,-17.389070931253897,4.8657842256243296,34.61840354074227,56.695418164733184,69.67318065907898,79.36305653437462,78.5374889951819,69.12279150531533,59.69367671425452,39.24854031485002,7.016672014436121,-15.482661209145526,-34.303087751243815,-67.39625112680322,-90.40966175180333,-81.44063469675048,-67.07019763259876,-63.83696896245405,-50.79250915335525,-29.16530792095113,-26.86229460418808,-35.661968701434056,-23.3691973439156,1.0823815517910305,11.477167846131376,13.610080433644022,6.263655394841159,-24.793891288248723,-47.05976841779377,-26.538421786007007,0.48028017170359405,-2.2693118978341857,-14.062690586651197,-15.538560998274335,-11.224518840296753,-3.069714692321625,4.02019220623502,2.3953795204608603,-5.132480644154839,-11.30202989574775,-10.723577347021335,-3.5473732071278405,2.464417224664821,1.1767629728527318,-7.09213748347026,-14.831073111358211,-12.143374284023075,-5.021739056064405,-8.212510965014655,-19.382777528690568,-29.17891420490453,-33.79004013562522,-24.60848056487532,-2.2098818426553866,12.936897700270206,11.315061290071657,3.744683078530084,-5.656133637666667,-17.79925407474561,-23.572870886832206,-24.252036273541528,-34.80586324903652,-51.11454957620931,-62.307255433134166,-70.77187687212246,-68.62485402358219,-63.25593655589584,-77.79001015035352,-73.40984713455777,3.7007186595259043,182.26880849596796,487.5732648682773,675.0061609552774,319.5885743889788,-336.00067846261084,-520.5445722996594,-222.0052218707618,-57.484187267651464,-87.4663188214348,-42.70538281619242,-7.399301015799196,-49.336099814084434,-39.621278643099544,-5.00770167983362,-17.185802949437594,-19.879813898138938,-7.217172191180664,-17.0624191074986,-21.795355230969303,-11.241136788661365,-13.138047956697264,-23.783888482117746,-27.07798921073946,-23.283751673877994,-12.669533188943294,6.42133039936947,24.85775113218591,28.667615139772202,25.91585984064581,40.07972212332354,64.2186299240799,69.83943960305484,57.8714050583951,46.5938008132224,34.6391789052835,15.658757946559113,-5.413199076340984,-25.487152001431845,-44.66157197619308,-58.915342341879594,-64.34504124753755,-61.811486702962824,-57.822318444309445,-57.404564600894034,-54.479274616992456,-44.69803503716656,-36.457010516583175,-31.001955066692176,-20.289687365773293,-10.639045322209178,-10.839204045046586,-11.835369250745778,-7.914406447487075,-4.696662031050394,0.41550750224740085,7.440529474988013,4.729390350505653,-4.107332003163155,-4.1864593759724364,0.3422625781282367,0.06609582610569475,-0.8673618157689464,-1.1375512666592016,-4.2704685549785175,-7.753012431296801,-9.041984546694678,-7.012248514520273,-3.4687981385104365,-6.159327783136373,-10.83679502655076,-6.03215746222271,-0.8391951056009823,-1.7065301669371067,5.376827600958796,9.972066442633501,-14.38392699441594,-47.80008683415855,-51.91086022425163,-34.12183623305504,-20.78897513314741,-12.13675671224615,-1.4239382306253638,4.842651685120654,3.2781323667934146,-2.8776785453379574,-13.780975760308149,-24.46121292573097,-31.106552449574952,-41.35924738959176,-49.26359149046296,-48.44143114642297,-57.4153336132477,-70.68649120582126,-70.79383020779294,-75.02043013793977,-62.910591740765476,19.157908933851402,197.57901416644393,481.4922165010441,647.9811044893835,309.1312922756156,-313.0106206915475,-496.4785326087742,-233.00570802716567,-99.16068408631438,-126.6797966130361,-61.03351335435025,-10.19638923652316,-41.62141364343475,-28.089539171712772,-2.534838750912769,-20.06084526789531,-15.38101538799458,-0.18953598142420702,-14.890231790694678,-21.56524583168765,-15.71813957264932,-24.328424802742376,-31.259749592644802,-27.400165447098576,-28.21457545847043,-29.785991545380618,-18.696252761738073,3.3030174603524514,28.93637670199933,54.49668361056581,72.30897158837807,77.218980810175,77.70104509668359,75.15628732490792,60.59868598658127,41.96946653635003,25.37281911779702,-0.8807782123950219,-27.84846731350074,-38.16548815255247,-45.98595846591367,-59.98555877858127,-63.19348437549729,-57.007865655345384,-57.5216613670582,-60.72562946099205,-55.21155868828804,-43.52244130565624,-35.09739554284215,-30.491691764701017,-21.604164809080928,-10.546349831645404,-7.499195962749429,-9.269655563531245,-9.031363896776487,-9.55576363508721,-6.464213785565221,5.743625353154471,10.548339146625299,-4.400992843943037,-16.57683004785245,-7.233046742566,3.5703269926588064,0.8277569710877621,0.6943331412546243,4.7712905642103145,-0.11893748006207261,-1.238166319220726,8.932111845065599,12.67256578977058,10.912806582197163,5.5026140183393295,-20.232044924008918,-42.871028514564664,-31.288023425576263,-21.554116623037846,-37.07265346199157,-39.928961637936624,-27.546747698668998,-28.395120355997623,-24.36326438527011,0.062378607514634865,15.628618093241514,9.539771406986048,-0.3526932789942876,-7.2729007261505,-13.292856398086633,-17.098631694156506,-27.69382933067838,-48.48819910047402,-57.51559905483752,-52.249688139661146,-56.01561931104395,-58.829815134259164,-57.830836084248226,-81.08903414381561,-85.47183914331688,-2.3993559957681754,182.4158303584308,471.8084141271172,643.507879910486,301.90107873164834,-333.34259388490983,-521.8484284438325,-235.50590142062765,-69.89409069811607,-93.43164645191271,-39.996011016479976,14.322430128394132,-9.248944191365219,-1.1079899414878298,12.490510090631577,-23.074015245528795,-36.78231884171237,-24.515302410460624,-33.4990639760716,-34.21987773093083,-17.272093611114936,-23.421939411969987,-44.608814116500454,-46.772249640802855,-34.652395096178935,-22.7721018621591,-10.15454165638193,1.7196649266298358,17.31680164201866,48.315974338245724,79.8897455634074,90.01464641504893,89.24261529650832,85.60267234573129,67.82017135932475,43.30430350387456,22.56147180748669,-2.8393728137891774,-31.037201845949625,-52.462726978336185,-67.69414038129949,-75.38533411651629,-75.79702443635935,-71.83554481133754,-59.13604251180091,-42.9667608523194,-35.664743779563594,-31.544529841641364,-18.724152700791322,-0.5189842901675235,3.5374721216178813,-19.809004723030043,-44.35193009636166,-38.52137053712233,-20.006760973117913,-12.736755144149637,-9.01326081243468,-6.987171449950079,-8.223932257091171,-2.787684046573947,3.679001593663237,3.039668118654852,1.6677732336407836,-4.543224434055926,-16.24294464822339,-16.73183003673605,-6.901068744532765,-1.3621101188069318,-2.9403722817846756,-12.190945272266724,-21.260743833864115,-13.530485335203718,1.7055490331062302,-0.32881959233406377,-17.254149362384965,-27.27905505294656,-17.305399053041292,7.771278088144284,22.894645297303388,7.730359794670157,-20.29269219089217,-32.822290175480205,-33.585869623798715,-35.417950361921655,-35.774321803251034,-37.94060593256991,-47.3535959451238,-60.27474469350821,-73.74051619376144,-75.34160178218039,-66.13739942424044,-73.63655741088138,-77.30641075088259,-25.014291132163464,123.24622235381023,418.46380856171055,664.0065764451826,398.94207857888574,-263.50414954053844,-543.5845986314566,-280.58189853226315,-82.15311633208309,-101.71245668756374,-50.68574708725596,18.082746522782884,-17.092529373134354,-31.54249808535124,-2.7102706615392407,-6.602849053210143,-8.491081930473644,3.4659105000630497,-10.91664325093695,-28.310949029069086,-21.726342506192196,-10.611686868208364,-10.665287681868985,-18.891161058136944,-23.989512729392683,-21.43485173486203,-13.237649063027195,6.791857757220307,28.76387167578916,33.38240424553662,38.834435112308796,63.631151853206276,84.50417339098968,84.60218855626357,68.68887011079437,37.20012973718099,2.7402266825451633,-13.712337612239603,-16.17758336552425,-25.154041256258836,-49.40937532487154,-75.01642461702129,-78.3348064335905,-55.83906981410982,-31.29660990822049,-34.2445191461616,-65.34958176171777,-83.9435517526369,-68.53590456896163,-49.105071611443776,-36.26556284926329,-16.877136382800963,-13.920315801240825,-33.314216125555006,-32.95170063563533,-11.639726044748471,-3.333908564137026,-2.3502909908665046,2.4639589675702425,-1.2906914257202473,-7.519015195692784,-2.48778880160566,3.708413149589532,1.985430114212452,-1.9138884541985917,-7.017596279240397,-13.828734678339622,-13.36503286794608,-5.865318786563936,-6.239640004114104,-14.44320175016918,-15.950985622881749,-11.44982656875338,-8.627439131590304,-5.170064471632262,-2.081316952844084,-6.25979032952441,-18.13135871969687,-27.775554463474414,-21.837471444453023,-5.970606400674203,0.1127763716421093,-0.9833340434120998,-1.4573537526061955,-12.482542991474492,-25.83655426353345,-27.160174382951283,-35.874637257745874,-51.42971811880252,-53.42136473464424,-61.51356815654721,-74.34574307514427,-66.82672071187818,-70.43056651728061,-76.66533058763645,-16.64608505231321,125.84751432993716,391.5437930884098,675.3378774432139,512.8603974717794,-157.13717495545896,-564.3777676149093,-345.0601576634581,-83.50339213964793,-94.0841531371291,-92.4283822595815,-23.975699805039795,-18.85619666900901,-6.368495032724947,32.47106503543604,6.0165977461192455,-49.734081205346186,-56.032472478804536,-33.169133763581435,-23.78775915619311,-24.386327908646045,-19.447401880579832,-21.933965370574825,-39.23518203009911,-41.44969838676084,-19.094071640051027,-2.2195662314475655,-1.5758071875415496,0.9613230151751138,22.29590404964942,60.57679415681157,89.9625202813856,89.22341331841717,67.1092473748368,45.69522326786942,35.894134753480174,29.23010472192335,14.51710415361173,-9.059309461614458,-43.9683774396284,-79.46219010398659,-85.01872349455985,-61.233895481403124,-40.34482957369477,-34.346663002452345,-38.66109370112748,-44.91929577666516,-38.153930474537546,-21.102201528064747,-10.877812743021238,-15.646413100110209,-36.220537670250046,-53.06313262162787,-39.754313995640494,-10.868504566860192,1.9449267794552867,-6.579771025281659,-27.351263470798536,-38.586761935627955,-22.945442243941336,-4.352686853527636,-5.766699163917778,-11.179548250636074,-11.23124867792643,-11.07819141830575,-5.125409311370426,0.8558578220002993,-5.478674078280196,-13.64387201964665,-14.635432946961402,-14.186167174783005,-9.126254286358186,0.15023613292253302,-0.6890570282423987,-10.049105948321866,-12.63402877548776,-7.244040421002062,-0.38415087281487104,1.5526527534494718,-8.785089222461178,-22.260394903378305,-23.007276835984253,-17.754351615957603,-14.777646462283508,-6.808791693023164,2.7012447247311293,8.023714685936438,14.182429364474242,10.544771234462033,-8.029878179048165,-17.158195187074003,-15.748064996347136,-27.1925797147347,-42.116601597037835,-40.63097313215441,-30.17323965435866,-28.13396147892768,-46.2615184139629,-81.15524267170726,-114.94749491165577,-120.24577712230192,-68.90797808247459,42.34593827209528,246.43657889039252,542.6242482742603,611.963433593415,140.15585577779308,-435.4257876015275,-460.0037317681345,-157.69589922202752,-73.11880921168853,-110.15096942918832,-43.79191724008709,-0.5144754633178081,-21.130257550423472,-9.850013482528432,0.6244003853315157,-10.653170806132156,0.44946347398173003,10.535878034297005,-2.0119331443998227,-12.0527400459575,-18.28470355191745,-23.830589935557192,-19.515732790667567,-14.448952563420317,-19.32812312616298,-28.857268205277226,-29.49471673425465,-11.141682054324992,18.0018186649186,45.56897045115886,68.30494248931672,77.19540949274699,72.01984674944266,70.95794712855229,73.82845352425375,64.3271790940039,42.093964069840624,11.878641573903924,-19.571757344098266,-34.96054466491539,-37.40975351990136,-50.538150607482855,-69.85108014599096,-71.84091371568243,-61.304013241823554,-55.259074011650924,-45.46280849159362,-23.461651451669834,-9.140390706395856,-11.389735972636046,-9.520710011692827,-4.456225605545271,-14.620673744383872,-23.66883250110059,-14.633154502177966,-6.817015760454723,-6.738453565308777,1.15578372395699,15.507348726366292,22.438319553078568,8.425858181278283,-21.867713571133518,-32.573213311114316,-12.057435188725137,5.745075298588713,3.1482783546080597,-15.01014983154398,-40.236536843596255,-45.840602706826985,-27.36489804153628,-16.255263572681493,-12.235190214619465,0.5641949300070728,2.9876969918927365,-9.812021102121562,-10.073637888508138,4.596041526476924,7.550752256393448,-10.790280416930166,-28.32764702908093,-24.55065549310654,-8.041294098878218,5.804044734225357,6.087027488663409,-17.378661241559808,-43.008486877443985,-37.19628388359217,-11.20425484772835,9.753943434915719,17.60376100764322,2.807954802970219,-18.192193947773145,-12.043035698479422,6.124895639014305,3.8467540185908433,-15.648452709836445,-43.43503010981093,-67.91380470883594,-64.85620503297315,-45.60712772218444,-45.5444795874584,-61.96252893727757,-84.19720280304284,-109.30663505524211,-94.57787230813602,-19.45408557561148,116.23119403648796,383.7898228341887,636.4639771323293,414.56578477855624,-225.08497370341857,-528.1029757064013,-285.7310483414915,-80.10222897522864,-101.31334870041374,-64.7433694086755,12.813739208704021,-0.1768602266116872,-13.883716236802556,0.4900512629848599,-14.044338968345457,-25.967999393323943,-17.987581238359763,-14.214648691033961,-11.166851546548333,-15.537306406540367,-27.86393953160199,-27.539487723521496,-22.312498228835494,-18.787626486887568,-12.552039687767781,-23.090791029498625,-37.59213816355463,-12.103224246778545,36.57445814449518,66.93650597020824,83.91141811436123,94.98926701562664,88.43258077480841,68.60201767001645,52.76828589689427,41.949672116605505,13.229921395251484,-38.633282535131215,-73.8519012025044,-71.71869355758562,-61.03669501423535,-59.81903822360799,-65.09078979891346,-73.5803593050413,-71.58260661482669,-53.777165023965246,-29.798341404496682,-10.705865481137678,-18.86962036900008,-45.26533354966189,-39.37554545120052,-7.076272090268361,5.65934356574008,3.5988067765312053,-3.000779041999529,-18.52310996956028,-18.313867792810065,2.002524909494255,15.293658825084265,14.389754017812294,-3.414979786526281,-24.64050027052807,-15.280204009353902,5.636395324990303,-0.8065927093157299,-19.30284059710749,-32.621404168275404,-40.87895532315142,-32.78701894891282,-16.5404143103421,-9.91389197552872,-13.83986486653091,-29.69281973293665,-39.644771898549905,-25.343844710028222,-14.858537154073197,-16.359085903226312,-0.9184067767638737,10.79091921611252,-8.871070373722592,-24.33531483406723,-11.288082980045985,3.2979421365218755,-2.29233160982848,-16.764065963253014,-14.749440508555178,3.2250195327586333,9.416936179897,-3.3661893735413315,-26.32345265876409,-56.904541480629256,-74.24752108445017,-62.25658003369377,-52.50309813656369,-69.93575907189094,-83.31831030359052,-75.4258226821234,-79.8621332369284,-84.91492163656312,-35.51911466384254,76.78506615242114,297.56193785259165,599.5271887811016,584.7909513559905,22.68145452604898,-483.1136454324537,-395.12316669440906,-133.60375367768134,-120.89523519848156,-116.5326659795111,-13.213750204459245,-7.130358984485042,-46.000340648316275,-15.696230790179687,0.759798697455139,-14.540067230782114,-4.065167236606383,2.281695335037007,-15.034808579894122,-23.625260704971154,-21.067417412504337,-19.499365843532168,-18.379960153043683,-18.627925422374375,-18.19999155665409,-10.953694861271702,4.532461334320232,22.314268396205403,36.42500852145655,49.79711431101384,61.6440801742228,62.73436295310878,56.56795514180648,54.513610648231236,52.58559871673339,38.49039770974969,10.283580951961117,-20.42263457228535,-39.35019127447985,-45.884774847760546,-51.57616299495665,-58.687098060036604,-55.22023200774097,-41.820633486706214,-40.381623600013995,-52.57655638477877,-51.22619046261804,-35.81139511092729,-31.004900062744134,-31.891631659868164,-22.33639807919721,-10.90098317781355,-4.600521679480757,0.2754196379289482,2.2280582391784414,3.574810474706469,7.952047730546489,11.283705152805334,12.41757352022077,9.870722389133022,0.9631195388587575,-5.617093524688936,-5.518000146868349,-7.159319429496598,-10.56392643936994,-12.443865007061532,-15.417132219438308,-14.9325952473763,-8.808277098943442,-4.213136104274788,-1.8894287656609023,-2.410916009628856,-7.098964721246128,-6.024463072973891,3.359043837935592,13.479673210480188,19.812231147945297,6.473226541827572,-26.917688539810005,-40.39387828050158,-22.700501247293037,-7.848899346018214,-4.7495241084835484,-3.9630592387432664,-7.578016827631998,-7.755183931853395,2.134191205240896,11.88224657502714,8.27219641030875,-15.420245591436775,-42.36861787730709,-53.7038450811583,-58.69061213679305,-58.779925820859795,-57.57829795126626,-78.97807679631316,-103.10067302648716,-98.77906510057865,-77.82614724274443,-30.130202307967433,79.87603738936173,304.7047142979791,599.3786842817492,582.1226474316633,24.608107915542618,-480.80861409101726,-386.87076851634134,-117.94049729380771,-110.78882110396019,-122.05637120561016,-32.61225893412791,-21.172597972948978,-45.64413854470442,-26.9641664487394,-27.994016868706403,-27.459601215614782,4.329467105992837,9.79025039668462,-15.178458144823914,-36.55425539017935,-47.80076414268281,-41.37999109132254,-26.455978705972107,-20.667614744732745,-22.29546348892677,-30.357617112825036,-29.977955115363564,-2.7765660382877044,28.825257009358452,46.59033001774726,63.073221832221485,72.82630620962098,68.93499972700309,66.55455413886935,62.09199797068818,42.2969322625043,15.692237409894219,-12.77998220327882,-43.448985211057575,-60.63427097533224,-59.486602387402336,-58.2610490449577,-63.001699621422674,-62.308208210026066,-52.067729644986784,-35.39353818604182,-17.87385216952753,-11.1943040981666,-14.816324946183826,-11.494617938091956,0.6169877525094911,12.374310357340889,25.199974164975558,25.47555216133296,-0.9900494352803513,-23.99322092037346,-19.493480716996764,-6.9098968190921255,3.391286690408517,5.7989007051668935,-13.469630647924777,-27.902529871317842,-9.005301105796793,17.38946402228864,24.07852228795859,3.453624505121496,-41.29545678094388,-66.11534296325834,-41.172865452522885,-7.33820234575342,-0.7009175907873448,-11.759501942699579,-23.018807148923674,-19.53289124546268,-6.276626873601515,-6.427266268852861,-19.15211903828173,-31.07944438935565,-39.11269540101422,-34.34774985532822,-14.836710406664558,1.363006673085799,-2.171685979439019,-22.760444030673646,-33.469458422565644,-14.375470521872463,15.335849125448783,30.64987043404165,21.510552831331275,-14.84337786170282,-48.976110390409275,-47.26066102521469,-31.162943505241735,-32.53227079800219,-45.41628711813257,-63.74168614642799,-84.37043144314421,-82.88176715138033,-59.36248955055977,-52.53682875859093,-59.933150735766,-30.152250192282143,93.79088762352637,376.48491688109794,676.916656215564,534.6624109799654,-124.56237900065287,-577.8948846113245,-401.52151784509664,-115.34022958838362,-88.68110779786129,-68.60423981893335,-4.006074069787374,-57.25381678383562,-98.40238436198958,-30.634112938770734,4.48301818017913,-11.966109483721809,-1.9120949125442337,2.8201104964428794,-19.589946041741918,-35.267565622184094,-41.58722980101906,-43.217493850534396,-40.28396209439,-42.05555843747206,-40.29276465162481,-26.493995594616898,-9.474908554434752,9.422281977308293,32.154205438306676,55.60979981801638,78.54183877083312,91.80792775441498,88.42795178224088,79.39267954985208,70.18609346577611,53.38301116646699,30.338150915694087,4.673259862248066,-29.299119185351227,-68.44885694870058,-92.1100532822075,-86.14059672456003,-64.53381618875694,-51.2589483354751,-47.21026406241167,-39.27951589369002,-28.58827384230424,-20.197101585464004,-8.830469982552248,2.0062347573115353,-1.457367743273032,-14.718852594332489,-18.314790445104485,-9.959135873053112,-2.636530424008324,0.8420202059228465,3.560713840007912,2.1161146439440603,-1.2073754216655654,1.4471797321517847,7.24831697971259,9.315230529270712,5.58864284023837,-3.9501704520327827,-10.443058010930669,-6.117901872660948,-1.645358821385754,-4.293352155881326,-6.961504134621837,-10.037508939498114,-12.619949408129271,-5.251565183995474,3.7563194581241106,0.072438859436593,-6.523901856867111,-2.314610841137246,7.603429779441982,13.905400440436049,18.552203275304525,25.025224316190496,20.621573937915972,-3.947005522284421,-26.288150949164404,-24.630804947209228,-9.233351733921625,0.5974563070285583,-11.146602908618945,-44.650335757836686,-63.12962286692667,-41.84284518085712,-10.911738594567161,2.4173135300193707,7.758712771095023,10.932258794394864,4.594342389584856,-8.577964862147775,-16.98163438929147,-21.870966856725815,-37.606173669537505,-53.71133858764434,-48.8572505410848,-43.790557997830575,-52.12847917269528,-54.146772820735166,-69.19506286582332,-94.2387230634585,-52.16625375537851,88.29540475382728,336.25632143811583,619.1905600865439,557.6118416910778,-21.74330157951607,-503.5322372309523,-388.6825195303323,-114.4929602661145,-103.54363169848959,-123.66807691239168,-40.35636830010324,-16.255390596960616,-28.17700395822154,3.3254429564107255,9.420254752980629,-13.760921453559511,-10.391702752682225,-2.0447074643311005,-5.618778644188122,-6.756634451319744,-15.755016682966449,-30.020811508659605,-31.01327875566739,-26.29125887954457,-24.709711538528275,-21.056283804784854,-15.783984848477436,-4.1552602637223695,21.69898384764345,50.83337264260448,70.88221327204269,81.23523267429526,78.98888313065791,69.52811253665512,65.3875833994177,57.754069407502186,34.45759108737858,6.868729481860089,-16.47761341224018,-41.684628712784054,-66.10227231365674,-75.65515251392867,-63.40133224612889,-45.77898844344382,-44.28617100088812,-46.305344644233365,-30.34835233198182,-8.48897566428466,5.966802865490969,10.343648824918478,-10.563253733918728,-41.115748926075064,-36.30958285662381,-8.786901908066042,-2.9886485945729007,-10.258503329295035,-7.820293864283048,-3.3416454047261723,0.23238626020458852,7.648295250058853,14.01785636164368,15.60591732069963,7.520552299683594,-10.937789479223426,-20.807779170660687,-11.714337126077446,-2.227442764032995,-5.46866654645299,-12.200450195923008,-13.100442640935835,-7.725131170014569,-1.4295383386419793,-4.836942566835862,-19.53827195093352,-30.576002324897896,-28.428722483002147,-18.33386131359046,-5.373983366620475,2.265304135387421,-4.492669225568218,-12.94653207418665,-9.751361487479294,-8.772166194635624,-13.701589256575758,-7.798946672649533,2.7710119613768285,5.830410091457303,11.513851984411232,16.251443531793047,4.928394201143822,-11.44584924471866,-19.69686665969638,-28.175190829789038,-43.051328055898836,-54.61560288680433,-51.65190333268776,-48.016725452752695,-61.850379450147386,-71.05715336886038,-65.529370090703,-67.6494296662347,-49.69695411169951,30.548155892476103,202.78575738920136,490.09468757271077,637.9832863504954,257.04868022766186,-365.0617006920807,-510.34166648881103,-234.79984987487234,-107.1558868601367,-127.0260207959416,-50.38902208520834,7.9140493414465,-22.2110592116571,-14.982240970492544,12.6605167888683,0.8559801119795978,4.045839027341913,23.527084019415895,4.643716777067716,-30.415104286894845,-39.126761727093985,-31.670207230993828,-21.989002452179292,-11.407382620347946,-17.175949724666662,-38.72635700539729,-42.90072989609702,-23.171267480971732,4.581296302133384,38.921818298431404,61.56678001945551,58.34347907328794,59.95841214588715,72.87355539738503,65.67136781796567,42.46519450267936,17.70346801556837,-17.80706513832937,-53.71428341896949,-67.3361698767956,-60.227109686241704,-53.74878006422449,-66.91841258504931,-83.20454160141631,-71.99283729251871,-46.128854560902035,-28.78850029678216,-18.036675260655684,-22.477855405478763,-41.43884181175386,-41.38179532370233,-14.311014968389145,8.531365202840437,5.115650039788143,-15.129975398366447,-22.283669374710033,-9.704523509308373,-1.4206556684896512,-0.03622471027292562,-1.1157745548240996,-19.89822000083651,-37.99195793148787,-24.85959184686528,-6.277151744753674,-5.144492384893539,-0.09803661440408717,7.365639905844482,-1.9990444718570544,-11.16500286735759,-2.636797346402318,1.3641650744530196,-17.582883748357943,-36.694188198125765,-34.17960997256469,-21.36843609502158,-5.4897202212273974,6.222451296747572,-15.204420827469377,-50.74576429861762,-41.31079491969094,-2.607504901345859,14.899429812449956,15.743845557277965,6.991107395303548,-12.8764813615022,-20.72778682685218,-13.269370847053663,-8.540016050005647,-17.23277635160479,-39.64723464701793,-46.49906991012713,-34.85081137432642,-45.6617531121568,-62.55752426362386,-69.1028604256782,-101.10351569151526,-104.2926142691168,22.748554085580793,301.4232611325639,611.7637416563036,557.5216475535243,-57.3940519211105,-591.2854979894074,-463.82711442413444,-138.6943618012547,-109.14106855722058,-114.5947765060296,-8.111125943047227,7.83712962669405,-22.939778271947482,9.157581063035718,14.548486630536196,-16.449046552607797,-14.685511109367091,-6.340073473542368,-14.174189706027096,-18.041179814459085,-22.5855907678757,-32.44218178845435,-37.1276222631316,-33.43788329993199,-26.156180385423035,-22.508480128858032,-17.72961625566304,1.4680276920734712,32.818308666989964,62.6734821790416,80.37830378148507,84.97332321148397,86.50749847301228,82.43044976776622,58.46352686940601,27.737153990472493,11.975127449833195,-3.5820962242601873,-34.64804006834445,-59.99746854671348,-64.29216509472269,-62.77496147834368,-62.3142873598464,-53.58446811248177,-42.210637127542725,-39.37636093030694,-37.40760951377229,-28.187936644634625,-18.665647671684752,-15.09680810314125,-15.652288845002122,-13.158442877252275,-2.219678444499362,8.25409395241007,9.575504185213738,10.358818913753945,15.10557486370757,17.757739860842037,22.390831180132395,34.96851344961435,44.68017916879688,29.890620229214733,-13.860284005345193,-49.25180084370041,-41.63958545587029,-19.77558149275755,-22.708340294948222,-34.4937637359604,-33.97303293080102,-30.028102422443162,-24.669225403095606,-13.097702657749526,-4.670052086077458,-7.332714148449259,-14.422007275647996,-14.00015376202765,-5.100245327770853,0.09721780890569676,-4.007412721895026,-10.917231110284735,-13.745108977904671,-7.34381854285656,5.6025167891719665,15.26174675972187,19.703408712410223,15.520013634849155,-4.0730486557857795,-22.52269306662863,-24.48233181741263,-29.231417290517914,-41.969013754981276,-43.99964183351729,-49.30743168890704,-64.30424296400167,-59.81856138261186,-55.41881115471682,-72.58900371371362,-53.92461612678969,37.34583050427868,238.91264658415605,556.4143206253312,635.1499778870598,128.57886568106795,-472.2496837551262,-478.21496275588095,-161.36849893230135,-77.55155451874546,-97.570842197591,-16.57205082810293,10.71721237365933,-22.56744384477745,4.478760977285975,26.213720871140517,3.257573039837826,1.9439683830800778,2.4259883838369465,-24.379125387805722,-34.57900256779893,-23.070542372523242,-19.418927059261925,-23.57529587403631,-31.58221496920335,-37.10128159146312,-26.824009146842027,-7.511506980515812,14.201248909025527,40.69153907715324,55.499217404790485,54.2388333843507,61.09395445241287,73.72531696013256,68.7042307201114,51.284440146916005,35.80359282089763,18.67987826238979,-4.101839321930816,-26.28120325319825,-40.3097163012117,-49.24612149785356,-58.59107637534625,-60.40923339483969,-49.92743698022472,-32.68089795023003,-13.780120433416105,-13.578972200228861,-40.02848559417315,-49.63077869860895,-21.533675825221835,2.8670968674019868,3.712679884898453,-7.656351004801188,-29.422913095908804,-40.41749668102804,-23.012838526826606,-5.728567581809287,-4.102380138959639,-1.004825069310165,1.312966305093905,-3.4556944718145317,-2.627933837238576,5.168008115101436,7.835500287517094,0.4648833091215181,-11.42811979923596,-16.017891103234227,-10.593256683119984,-5.452234366996251,-5.429589954866785,-8.382808786322059,-12.954689583361631,-14.957960547071039,-11.05389995688458,-4.984706191046236,-3.8936193761748363,-10.249515025145199,-16.226777036417033,-14.30539041854168,-9.085430773771307,-7.1366879327432216,-9.972344718558904,-16.499107572153083,-17.443946211544315,-4.618071417253322,11.994690687702303,18.85868793335414,16.04266340585322,5.998391151574591,-8.050520392870492,-15.379332351352323,-16.995620790324814,-22.77948660979349,-23.86033741037254,-25.576516871215038,-55.82577374053569,-89.17591819021831,-89.45781446685723,-91.4806971324538,-93.40195853918469,-30.45738155572451,126.7914370900585,399.79791150112493,627.4949398942409,394.33356378885514,-236.42766507554245,-535.0486803540729,-291.0265164847023,-75.95921183348285,-86.96005093510652,-50.9422108691777,17.075459649411826,2.3405012161268175,2.99239123556535,32.902345715659756,23.03273623742198,4.990848841326329,-12.008040562715781,-45.70459067872295,-54.427875076401456,-36.70436186777809,-34.959919883271475,-41.974938619576434,-40.30890158778199,-37.5010023999331,-32.85596696160691,-21.815810302384605,-7.001652980257823,9.121830789804125,26.312027592991598,46.94056105400343,66.68493245727817,76.14645827833472,76.52122106595027,71.22923099575499,58.42044698205308,39.62910455573228,15.092319726553004,-13.26252303432401,-35.7020180657794,