ECG,-4.577676494524259,1.750335444356784,3.466644171955334,3.804792362353181,0.10839749070717453,-14.118858290016366,-23.134445983533016,-8.164704823274835,8.53063283596774,1.616617701027554,-8.476237122878217,-7.609157167752063,-13.026010551969833,-19.2022255702139,-13.875714463734063,-12.559736998197529,-14.282819812938968,-7.506110338673796,-8.142985587835533,-14.758563654196728,-10.145433765676138,-19.79427360248748,-59.708683615437565,-92.58565395098455,-110.27181129190197,-140.74604435616627,-169.27379685872955,-177.4639998847265,-183.58841041163134,-163.47692429993594,-54.89785245525202,191.00233766928125,606.8645495128137,993.6920135020787,881.3677306341111,229.03885458295866,-297.98045122663086,-319.49666132347863,-215.0406553342262,-253.33604011173875,-253.2625539913852,-168.21187518571912,-128.27592802653982,-111.8485591059673,-71.82230968696531,-50.49981763941144,-44.65089137908015,-24.424121860858676,-6.584109474595387,-3.0219289094920683,-4.905996161719312,-8.070666705807394,-8.167819276199836,-5.740302246119331,-4.771753258686729,-0.06583326775930232,7.911497980110244,10.319513889953779,13.51194384829371,28.73066505797886,44.64151675108306,45.07710082907849,37.90139342176111,36.96662940901767,35.832239726019765,24.28333592529984,9.7753024984297,1.046884373780904,-8.672213850394309,-24.413897462806332,-37.09092139601004,-39.16273811033537,-31.672917749280664,-19.1556778798494,-11.933787258278144,-14.565567233416102,-16.078260552532104,-11.915897101881438,-5.705294467457183,7.354571109571906,16.55212085470028,0.9813081142042019,-18.363132220706955,-10.662313011868212,4.611642410788928,4.421011354078075,0.7640599043233358,-1.8872807161435592,-10.848759480093912,-17.73724846375454,-13.673815889552738,-4.7416970219922945,-2.9466020874841945,-11.574207670962153,-16.47933062580916,-7.428467386869659,3.931451452207332,8.546286620610172,11.452000446872095,11.23446234161227,0.9220103532764767,-14.991690175372632,-25.141474246471617,-27.418584581467375,-27.308570214009055,-24.751338901908625,-19.33070979839269,-16.47361581823281,-14.209041927152292,-12.932303426161429,-31.22182276110991,-68.58112306087818,-94.88458502088099,-111.8340766738239,-145.06881707422733,-178.56532687624025,-191.45815671463623,-194.43622664308378,-167.58977913140447,-57.75097275101031,201.1422303622494,646.7762938037831,1031.8966610032628,884.9001756552927,241.10358608468454,-250.9213441382472,-303.93156826459375,-254.86040731528988,-281.4801360304256,-255.69094495303887,-187.82287846855684,-154.5939204078364,-117.18216738998404,-69.49855837620122,-47.89415885750289,-34.443817552054384,-18.238441392653126,-11.543062128407819,-3.226203621214946,5.900466420592355,-1.2930219435943897,-12.759270241120518,-10.243379420733326,-2.755667836446854,-0.3556984674059205,2.146794162217713,6.519721797662112,10.11448297044463,16.90487775495083,26.041658393543525,28.482886683612588,27.757248677000085,33.00577076648203,34.93477969052579,25.952162835463625,18.895043390040833,14.672645616006783,-2.8583300060663905,-27.401383406764335,-37.82939248914927,-32.69938512486357,-21.475537495911244,-11.605263896736563,-8.99077383049227,-8.350912959181711,-5.085023289546488,-7.131808193109233,-10.51388639190689,-4.8006016634170585,-0.39663409716706255,-4.571570902260319,-7.290656261249454,-8.970329004019241,-15.018070744962799,-19.05466487486806,-17.380669746892114,-13.255406512062734,-10.059433553488844,-10.548118082838567,-12.102272953555234,-10.430402771996766,-5.668971866163567,-1.3107197742930232,-4.335513769729268,-11.039688591136613,-7.075788633910088,1.6016380489890718,1.979848178694386,2.9010718967748197,4.610349267303846,-6.1837708377808696,-20.542788849186277,-23.940095324036164,-17.852863939805577,-9.192926898073424,-9.886919752819288,-16.33294738548398,-7.931011849969725,-2.5937511180160175,-32.68991111876686,-70.97005065312449,-87.17962621510097,-110.40108614703243,-149.01153347469977,-167.59981443880167,-175.43488687574393,-191.41734160348847,-160.66156149517008,-20.325025499262694,273.7568540619425,717.6776985497019,1016.8012795886316,753.3327488778141,102.73975157604065,-290.48097283043165,-289.2102262770205,-257.0095462733853,-279.9587837268539,-230.96578141541485,-164.62073743144583,-135.09031215442542,-98.54545559760504,-69.75870305032002,-53.54697100098127,-16.55151612175281,7.919069670867337,-2.104567659804786,-6.770618039592247,-3.3051007024865804,-7.816921768494801,-6.606772752918616,-5.798968379234342,-17.82766994749411,-22.022154751009836,-8.236601424079314,5.272685844986,7.534148668493114,6.200550953904658,13.970913385577141,26.638097067421675,28.001510653545107,25.872064664343558,34.58854232162188,35.73737939647708,16.98775337397771,0.6436362609805277,-5.450299574627374,-15.977767950729714,-27.32651814070497,-29.974105572584733,-30.00582933456451,-27.843827252048975,-18.424790723274654,-9.673560466330606,-7.96794581020472,-8.28369186018276,-8.928510455398564,-9.648840692466639,-6.097294536407526,-1.4893462903082977,-2.3492657954562333,-5.77504680378604,-8.797764788582993,-11.637846536788727,-9.453656744710443,-2.9036008400398465,-0.14545801747415155,-0.7144907999800818,-3.609754021164651,-13.477640127541267,-21.602999774814688,-16.142919373409384,-4.702052661036182,1.465454093213804,-0.4189086370206425,-8.371774929557432,-10.439547172439418,-1.4349658484497674,2.985995563703021,-5.0679591117858855,-15.980930698508885,-21.384000035297547,-15.892347744839299,-6.345697625159545,-9.166038288535795,-14.652078406854935,-5.056917862863116,-2.7640209557946545,-31.15190530022794,-64.54132732974148,-81.14241453238677,-105.8641503647151,-145.2943303245634,-164.46992727943035,-164.20653413382152,-163.87578823658612,-122.32498307959025,25.388838511971414,339.4715029818424,781.6353776588643,991.2156784062072,612.6513096372191,-26.437143913667704,-312.9690377980111,-272.7218486609979,-261.9008070695857,-268.79834479407026,-196.22375279785874,-145.58461850478716,-137.59356122180913,-107.87351745509305,-76.50220142991128,-55.1656196822631,-26.76143186169536,-13.609604310877891,-18.245894354385936,-16.710687475602768,-10.014150469013387,-2.2564666377447438,2.461149353877669,-7.763399107020856,-19.151193420179464,-11.348894787959491,2.9159562562512438,10.532366937106401,21.355460499632535,33.86075444801736,34.71664045215508,33.419806705537425,43.92438253599608,53.539601552843465,51.98053165652725,44.92050021129995,25.44757229715408,-7.390209871544673,-29.754103540452135,-34.875755000295335,-34.386615821315175,-26.004661379175214,-17.187388109957986,-24.005840199537335,-29.427205096599593,-16.32323298798246,-6.252261868430512,-11.417500977792862,-13.802465372120075,-8.947128577646431,-7.882271824798469,-7.88564627691305,-2.8908439754462627,-0.448402149059115,-5.9165139468519055,-10.67733785400656,-8.807776456066705,-6.60350459011034,-7.449375406119708,-7.04012474607266,-5.653215967975047,-5.010135357776386,0.13620863855292775,10.394903979733368,16.029486187419856,11.23641792040407,-0.745701007280422,-12.114590779691316,-13.679759306504543,-8.174051591609604,-8.881735066571526,-14.05692878584981,-13.66374180289402,-11.584636671687399,-7.568893726706381,2.971566965917905,3.1066636982062548,-13.295472670218853,-20.516071025291144,-20.298811188557863,-42.42679961792945,-75.06150030301525,-93.24071714029475,-115.88421051956624,-148.5978510555999,-162.1672682133312,-162.5928659699295,-157.33531437166545,-93.9537867833073,82.02631163657898,402.87511190366575,791.5337604860946,895.834016476698,457.83095925863097,-129.36759320937693,-319.7306646947022,-227.14473832973317,-212.82370094579437,-233.348444795361,-173.8781082921721,-131.8400210652577,-126.45312805012011,-90.04347417248485,-52.56298593554017,-38.51739734336401,-19.671245448285443,-8.119003661865438,-14.876244825662798,-16.69086319759147,-13.174601866342442,-13.460834344205614,-8.546942682238164,-0.31743633826432216,-0.7904936946607624,-6.033914686228834,-2.026302967216994,14.383458890690322,31.304284411604502,40.0879635194634,44.71411610944189,47.354171437939144,47.819656209389734,50.06494799639269,48.7579612731156,35.054892284759674,16.838672369867243,2.5472017638410627,-13.327250405535256,-30.33788679632587,-36.752400163716565,-27.894840074333636,-17.048510003124132,-23.616962216886424,-41.19862436396481,-42.09653494408836,-26.003906421608324,-16.310994206527404,-15.22103656317418,-11.66089082093134,-5.056028184173419,1.1183431280243585,2.0728545779371608,-2.014171170283234,-1.1039411237004142,5.093293184405837,7.3354574896167595,4.26851928018343,-3.4468657411855137,-10.707210379437011,-8.496633311535733,-6.4604891146146475,-11.365158150637829,-6.591238222729501,-0.11629046224802053,-14.965326698275735,-25.978972478381884,-10.841264124470271,-4.118344642058187,-18.639465721397862,-22.73379032725374,-15.471668231006802,-13.788776229260904,-10.511329965533214,-8.143171790848125,-15.36970131339067,-14.90396125527595,-6.534991629425146,-23.07028845592926,-61.66911517246816,-86.6157324236597,-105.22668115588856,-139.89865097689125,-164.3157424465911,-164.2716509907803,-163.98663867680045,-138.94142694458773,-23.554664547579506,240.60277882024513,655.6447819130922,954.8720969550694,732.8871075400186,119.0929235963608,-271.59279308707175,-270.9048010500031,-230.64293314519963,-259.4189175773313,-219.88784167046524,-154.1848190439691,-136.19970896109018,-107.48840034444513,-58.327580563433344,-36.57724668250948,-29.735439172236564,-13.424761155535151,0.9187204908273614,4.627093400646597,2.5624864434296555,-1.2417313588290355,-7.735062232197031,-17.791534704846626,-24.081529404254518,-19.70414138678384,-9.521844911498052,0.1342455707740875,10.325911692902157,21.136833748413203,28.73809017369694,33.30781926424474,37.96032579482592,42.32337595360128,44.3457861410123,40.297935406182525,26.457339493364827,9.48989671323547,-1.218335696942749,-9.039998138909247,-17.556907480920106,-24.141081270345136,-33.412842738309614,-42.8772339129946,-35.03626857904034,-14.413776475120397,-6.763734744520626,-11.729442911688274,-11.705810559223533,-8.240152866610945,-5.6477312390429795,-0.5417508679747272,-1.338695779126077,-11.312945716580458,-14.682734278306643,-8.885300307895513,-6.055186582950789,-5.959373628436861,-6.542697918900643,-10.276689464708129,-10.506155085093653,-4.8371963428858376,-1.5264856501065474,-1.8831333680693483,-2.8689682657594524,-4.167716609655358,-4.993807673587607,-7.193560178046614,-11.22026198479978,-15.606409185753549,-22.383534662196997,-24.784188055663392,-15.867990458857403,-8.531917027474634,-6.29895922135964,3.07558777086024,3.515122425114173,-26.20344480154504,-63.25065460920594,-85.03875727585628,-108.29332344343732,-138.4640539562066,-156.1049545123962,-166.8835937799029,-177.72523502112048,-146.9026397440988,-15.541207817140446,278.36672603210604,714.6163168273301,975.3637443600461,687.4482390901962,67.69950893054181,-282.3811554868256,-268.018933593727,-238.81331144854414,-267.88644905629326,-224.7311170812039,-159.44317355259437,-134.36602977873008,-99.04675522489234,-60.398797744498836,-51.26011921414347,-38.63076223898303,-14.253385342690212,-5.38671482297347,-4.308491048640967,-2.230569390748805,-8.120986124200812,-11.62586080478524,-5.903637251710499,-3.6838676574012617,-3.7902966369264544,0.691846726519378,5.328986931749116,13.205992090906191,26.656826091493265,33.86469655347135,31.764476942730827,30.215165127766383,33.78140079398692,37.82858261950953,34.307769806704506,24.308620609753604,12.22591602656793,-10.582079173472689,-38.387755151008506,-44.00984043090332,-31.54270438968143,-27.38521877817285,-28.209036801713502,-23.92139506165158,-20.605864412742186,-14.886616612522632,-3.1780012997735003,3.9785903572547188,4.021027817575128,2.429326487006433,-0.47742203955726126,-3.591831341456963,-5.276331148712234,-5.429819448077893,-4.203566561469769,-6.493376936937855,-12.062801893604538,-10.86498825199298,-3.564259342389869,0.6088703040515089,1.9823427025527653,0.933518993126297,-3.515968861255626,-2.1728734133938943,6.197452318955688,8.723449145172129,4.12212877398413,-3.555240019973809,-19.91280070182506,-35.61036660278752,-30.90382950469597,-16.539554991981475,-14.406894036635638,-15.04373940944648,-8.249575275508242,-15.142821075783598,-44.89952430407681,-74.35230428689297,-99.71352512570479,-135.74875203071613,-162.34873681180338,-163.58921938249497,-166.09520154470772,-155.6308204191072,-64.01208082225332,163.7715008909405,551.3238441809817,916.4621034216656,835.3055433922007,256.46317080017354,-235.97860558536144,-289.8114867062812,-216.06480559127658,-244.153160677233,-236.13334309387267,-167.93667082776057,-138.10221524023436,-115.2405418795314,-69.35929921102846,-42.740908271469216,-32.36220181939363,-18.658412742421238,-9.699331707697596,-4.75738594531078,-2.1679721729141725,-1.1123101857783553,3.202410430376542,-3.607569232159502,-23.23412328853062,-26.570355929481725,-13.02013750153047,-2.682972954614584,13.745026534266211,35.68498785446011,38.01714701618201,29.603250300834382,35.505917189802204,46.278538797629835,48.26384967599596,43.436342301537955,26.301248346505986,-0.6032306368489864,-17.49316992245054,-21.65087554040722,-27.149861330666695,-35.21521209295115,-38.85527479929318,-36.39481839735,-26.296340944945772,-10.084073609538745,2.0791547408677573,5.266636050367643,4.6536229495021555,0.7202266078510569,-4.556637844396532,-0.3101202559531462,7.483630459654813,1.8020204937813684,-7.995809187692748,-8.072322137283948,-9.138358652916702,-14.609645973351707,-14.864338641142272,-13.186441126846098,-11.782494951054222,-6.547320236036301,-3.930205795142694,-5.67525452276438,-4.08908145322992,-2.4924664310153517,-4.7235241383118876,-5.208837620479137,-6.2904930076031285,-12.066693324552698,-14.231930283924072,-9.779845011616867,-7.18412154714505,-5.8372269280508355,-2.2227254253071873,-11.017175862878057,-41.718165631196996,-73.17514817267403,-93.15171334461462,-119.69803579769938,-148.58342404003395,-158.5785188186833,-164.48783663620915,-163.27799752856464,-99.22028619823422,70.85366104780516,388.696047582852,794.050773713291,919.6369727442939,489.030102038387,-100.40085602478517,-300.71498178346644,-223.07479801110472,-218.16148990164197,-246.4239882638932,-194.32719100938434,-144.77707323465737,-122.29108364408052,-78.8811825843292,-48.20127590514259,-50.39258928810477,-42.56016788508258,-20.61718296169233,-12.31763131042253,-13.446755654047749,-9.479198534117053,-6.897683065307511,-12.056619970288583,-14.037115030765886,-6.635895571398429,0.5849878686895451,5.2427891947957725,16.103114982697132,33.02484737561925,45.852922369320495,46.29062876616825,36.181142417762835,28.576129185710684,30.549325695363386,30.843200312827012,17.69626205809648,-3.8948685205844162,-21.46392383070809,-30.550528169202487,-34.20821619749966,-33.61785619562812,-29.17842352654317,-24.62905411703176,-20.779952439907497,-16.513355566969306,-13.924550696579043,-9.730450761875915,0.3319000331852333,7.907618681536085,8.694239565305491,12.054384861103888,16.159719138335326,9.531482607528773,-1.5793531634993476,-2.511862893432099,3.0451627350816057,0.2000501150276257,-10.190429527318635,-12.331336321745809,-7.2296588374937,-11.985614278145121,-19.836887235718656,-11.930665927625812,-1.601973932388404,-4.351139262550568,-2.5586892311742098,6.975951742252867,0.8636542526100044,-15.882710134059355,-21.896455362449288,-21.180623609027013,-19.27802484012927,-13.51217086552213,-10.910120703637498,-8.150451910398413,2.161675986268545,-0.24926125710441838,-27.436674739990167,-60.81664872132893,-99.57863098959827,-148.53029894346912,-176.37088523898316,-175.92720527149447,-183.0422931445146,-179.82320374111112,-101.719549923058,103.87811086204889,491.68172836362555,922.9625988514717,945.7863444463645,400.02168232536974,-168.20844590841304,-303.2911954880385,-241.4451420479117,-255.57648748878205,-243.520779380646,-173.60566764683188,-153.4021638709496,-144.36710182845948,-92.86704804201977,-55.85145994613754,-44.93463256967881,-28.538429646071982,-18.08340789784667,-14.976798065739935,-5.673916283072728,-1.3536957592067758,-4.127506134528705,-4.364577110831021,-7.578734080144425,-11.989892849456101,-6.971654393896252,2.5061644393681677,10.178181125215858,18.857988630542877,26.3487709528384,29.597068304375483,32.299123141042315,36.79313269263333,38.95773660624223,32.38605482646913,18.497516764571984,6.190944588334779,-3.331957455801941,-14.0917295332967,-23.517947482883383,-30.15157995400162,-34.21746151549958,-31.08494569007094,-22.605664385291195,-15.453884315184116,-9.171462418760536,-5.98833909783216,-8.167709935972345,-5.760596729406964,3.7706159049076304,8.633146697134894,6.707375690995608,3.851242304134395,0.1702588154161333,-2.787744112969115,-1.398805306311866,2.379496788849547,3.6462661427366765,0.36529827646427115,-2.9517764832128357,-0.8940053716502998,2.696283338061301,1.2275955605972744,-4.480237061187227,-9.226509335250856,-8.043330928769576,-1.54760452014564,3.850894934408327,5.097364171593636,-2.1453652877907103,-23.395615785160505,-41.94173408990871,-35.01120224218756,-17.090359786333636,-11.71064222515233,-8.78521769997247,-2.380111191262543,-12.815109515470162,-41.19192128836137,-65.7302297397222,-84.52511711340978,-113.0656177943075,-148.5965080343246,-171.72592980551394,-181.87737054827542,-185.81699464709928,-153.9945631010909,-37.26487778675124,224.25081441998734,648.6170379138727,978.2354025609536,792.5190921178888,180.45915709301417,-248.61895415197517,-277.95676918159825,-239.8628979734812,-269.7450093621464,-235.1198794180425,-166.05862787823122,-144.95088485834378,-121.24298203342963,-76.73315494558467,-50.424818802025236,-32.48470810668802,-12.529553307318874,-6.6289571924186,-7.977581319785237,-3.8823729105524194,-0.6868830582427528,-3.223238448764615,-7.182709655550109,-8.484252218818988,-7.004905542058877,-3.543231990607701,3.6021182541453163,14.198463658476575,23.350840783373823,26.389926593236027,24.618098217477254,27.613318061605362,39.35698699709431,45.97351936379357,38.07196407414642,24.852804433181074,10.325853568479717,-7.867634735968725,-20.500685274541766,-24.00079340368636,-28.90965212832159,-35.348518514888866,-34.84694095273666,-27.505608211296096,-17.107859778071088,-8.60237281422539,-5.397967250332673,-1.601949749408436,5.923794968455724,13.015653171826024,19.323624045047772,20.096833542491858,10.285884638600695,0.005383745501491788,-8.111919986918547,-20.60656495989423,-22.68462034781387,-8.472378195104495,-4.652364972858617,-15.416912280750829,-17.353953054239184,-13.263527366033333,-16.61022490854316,-17.703108892460147,-10.382764396571673,-6.450441458822954,-8.567023634624384,-4.824281931196108,4.716589569420268,5.539996531238824,-2.0258568244458885,-6.06147748027454,-10.401222460861618,-20.305887934482126,-25.927372194718796,-22.721205496097035,-16.354569306629,-12.068753287263316,-11.683153985325486,-7.606071780127007,-2.3575699054480825,-20.861734391171154,-59.30027174238143,-83.19847562004824,-101.33876694397392,-138.46252183039024,-167.74489740020374,-173.12193458980224,-173.9783115255794,-142.51329268216284,-15.027674166799159,267.8623132133505,694.678774012366,967.2842303059487,693.6098751162442,65.50066035382773,-290.1835897113682,-260.19583614800797,-221.15852123204007,-254.44370566260366,-210.06786064900666,-143.05096408168856,-127.90534759955733,-101.48918904546537,-61.56193739588764,-50.54580782663515,-39.32829329409229,-15.447967875776527,-8.433890426485217,-10.586140858661821,-5.780688714000068,-5.486468474583479,-8.275068286038938,-4.895749784314624,-3.9089454636194727,-4.66411727500627,3.6074373855931294,14.007462836960388,21.054115693105228,31.102511850391277,36.28824248906678,30.143525833818693,28.648471402776273,36.615015784321194,38.61741843124634,32.362666658749845,24.72451238512263,11.869306070567447,-7.302191586640067,-22.849129942514907,-27.612721033071438,-22.999776078530417,-16.43639239548808,-17.271247012486146,-25.23626628517581,-28.610458414049553,-22.475462070426197,-14.912326065106896,-10.520780816489259,-6.9643612253367895,-4.648728618538616,-2.3687163741657375,3.6579370456154034,9.428353470512397,8.87002116287415,3.115245012319674,-4.325250475964387,-7.954374112613166,-4.440859309993549,-2.6224242875347983,-8.995514440556642,-14.934459490559515,-15.058459304481426,-12.99310785018068,-8.95028426024042,-4.735196121939932,-5.188470554004557,-6.478371692926693,-2.6047248009563315,2.0553155365219453,1.2556175634991167,-2.0220946393516073,-5.244482179361789,-13.94568719065305,-22.7259071152765,-15.452674780409897,-1.4605900880469171,-3.6245354560688092,-11.356231540990176,-8.545902356221799,-17.0233362499925,-49.42238309236268,-77.04175393001464,-92.55438519308595,-122.97907464930589,-158.83904050772682,-172.10145201111817,-174.20118800535894,-158.69331068320562,-76.09556381397974,125.15624765306833,500.670738225612,913.9911809079141,915.5653737401092,357.43208800352625,-198.25382210523142,-312.22742880785285,-246.4651012161882,-265.0172608976434,-252.48135104787607,-176.09203447521065,-138.9377483250859,-116.35706675377347,-71.34377436255114,-43.24795448440567,-28.85698287735732,-4.563429832307634,11.863672081138365,5.337867063972148,-14.558448040145763,-28.583021702854985,-26.012885707548413,-18.66910762464205,-17.598694640914374,-17.34021811767257,-14.43908086924799,-7.686111618236291,7.400516870645315,24.696732563955777,31.9533618357224,31.382078421625067,34.149535083193555,39.85839257655262,40.68045197203754,36.419568247221434,27.195587952810204,8.880661186637669,-12.931981475477958,-27.473511738480376,-32.211053928452976,-28.462753714515962,-23.019937708321883,-24.715253010277255,-26.18781732241434,-19.10876286813637,-13.686366833524161,-11.99922201808138,-3.252410953698215,5.753237766535463,4.384040012079295,2.613644940812626,7.450427523589292,7.726349416158683,-3.2253462828706727,-14.613010030475769,-14.466121745323457,-7.6903618969229015,-5.744852424583044,-8.111460140575705,-11.532055414304335,-17.101677602013147,-19.119409607663492,-13.443296469818609,-7.027068651150319,-4.677188775102184,-6.202041196127748,-8.874883782308709,-6.135989322937466,-0.13451998309547442,3.2578577041801324,7.352225366719029,5.454424575565902,-11.708570743777464,-27.38961404217839,-28.69073591149446,-25.57790223011946,-19.603870882046067,-11.430877169338391,-10.78692059587614,-10.030412680821968,-4.955172511915828,-15.90948888375083,-43.16670571874985,-67.31660650052743,-97.50359995864068,-141.41740548868012,-169.1410754854649,-172.70631391381602,-176.6225959786189,-157.80231156107726,-56.34281187281843,184.53209136803957,595.3715830135886,962.4897133332028,844.9209843964052,240.04404292068673,-246.24197699469676,-304.66473620712435,-247.94741234724387,-267.1183269876545,-240.27265538439508,-173.89516922057715,-148.94961580900826,-121.60107916008887,-74.38548231919316,-46.4806287068148,-30.210762041600397,-16.42043863292494,-12.032850480086754,-5.918300475788101,0.28087918527076994,-1.5883524752762916,-2.6799286209565416,-3.900251090276221,-8.587161989593415,-7.802472191464426,-5.434927634583609,-6.637153179991827,-0.5964633830713968,9.663674225678522,12.250558465829618,16.66629175806555,29.12429756954334,35.47052138811891,33.62683294899071,33.45460595906693,29.298402848880784,15.18956066481421,1.7408608561162735,-6.757721848874246,-18.218374625462594,-29.202487621483655,-28.041999277399697,-18.162294477404423,-12.386257455115315,-11.197083490485348,-9.204682180805776,-12.378538226350692,-22.94782370907527,-25.067067271897198,-13.6508425819799,-7.4836515615696335,-12.150044115186748,-12.12750939367152,-6.228147641109047,-5.535763236666977,-6.313431132528981,-1.6013497740767022,0.5151378881399467,-6.745362566800992,-13.895791799578099,-11.460864735979156,-7.7034595642097,-12.221894390761026,-15.074038864621002,-8.540107260625318,-4.514316636801876,-5.844928563969237,-2.9083688360363027,-0.2666233743313029,-0.8216669865222119,4.470380122381334,10.795318786959195,11.447598785429548,10.510921009654528,-1.6087737445448695,-27.481503449833905,-40.32450508464338,-30.961481403695544,-19.052785802965538,-13.042604941920462,-10.733980752126865,-7.830406121884208,-0.32814693129697403,-6.285154095033073,-38.58605209859853,-70.07346839436788,-88.70659793485532,-117.29004389767613,-148.70907988031098,-164.1433588888532,-174.37424284860236,-163.7398897970243,-89.13037943580161,95.17945841634247,455.401854149351,861.7859168445175,875.6600667359927,355.2955628478649,-171.6718570088906,-288.4392936525115,-225.6789524027007,-237.73376200906807,-233.1794742322511,-170.72853263727563,-135.9585118391127,-113.47678591469912,-70.22291054695424,-41.70580413961484,-30.83571717573152,-15.192533778821034,-3.1008305548849364,-2.7520937239783265,-9.518854014851875,-16.494192863159952,-15.907635286434001,-14.138847629569359,-17.503179612301054,-12.835131563548245,-0.03795516540025545,4.303779184214564,7.28821352369531,20.80807948752476,28.916900188720216,24.226500824886706,24.957932490612787,34.31646463146128,37.88856051414778,34.655903911218594,29.67135828940952,18.34098015426526,0.23309397716945401,-15.623416982761299,-26.465624761163227,-35.73735911894786,-39.96367005661698,-35.2893170931668,-27.60032015581791,-21.925005427256753,-17.353845918229723,-13.559578502441243,-7.604985198694148,2.281985959204299,8.647318879417856,7.048581839497059,-0.10375818205105602,-11.91644674633413,-19.367760850158735,-11.935111213724122,-1.3941248877792063,-3.2836758493537417,-10.181079628109018,-9.950527448494295,-5.355880973297406,-5.191890636528473,-10.189727951020078,-13.215050054828751,-13.664910806245508,-15.669654829837462,-13.392639189986287,-4.768944273229703,-1.6643165262806896,-5.80043697362883,-7.221179990702478,-6.187172285174913,-4.847555989679719,2.2158809234989647,9.835341355666493,4.799506808944749,-7.850736083232654,-13.790914580658836,-15.37107375317641,-15.082819765903754,-4.892393173412827,3.0287806470359477,-6.968339036938165,-11.626605784379212,3.470845096470592,1.280241822714876,-36.997119614250494,-77.32139250476052,-102.01054096528514,-127.03765048421695,-149.94344369687872,-158.9188054286248,-161.39065478310454,-147.02067423468804,-76.1775618625531,106.44292424875326,459.579064219848,845.4855067348341,844.1229128390119,320.7824248045378,-202.20398046126607,-299.00404198805154,-212.6419151374763,-223.74806903782218,-227.34329943057548,-162.10485521482894,-125.75349206055854,-110.67099328469983,-74.2918862549826,-45.95018563757136,-30.903867729010706,-16.774303618864632,-12.46138635721736,-9.957404192961505,-2.5846389712875464,-0.5696065175387339,-1.745920020219767,-3.4832915886651925,-7.9189062091272255,-5.928576120911512,4.882354572503411,15.04156659121386,21.37671572845405,26.839233679601897,34.94062045401147,41.808280341051685,41.04245741379242,42.32608135635005,46.09081556353961,29.3955862305746,0.059521463218736415,-9.832162240014831,-9.534731346571993,-22.070800286281262,-37.612075770346564,-46.21282950462909,-49.27125701614804,-42.39041223861504,-30.599486208032936,-23.677364901888907,-18.252635288515986,-12.071161942683627,-6.6121535590333025,-0.19063167255956515,3.077876165779207,2.849215970778058,6.596308749426435,8.34195125679437,1.899617955645171,0.9114625129505534,7.214419742738306,1.4853837164357042,-13.301249724437458,-14.654195204900514,-7.514722334599483,-10.578336039452612,-13.99093030826017,-6.7003310019648445,-7.580864724872221,-21.07447437711791,-20.68862846275564,-4.919717479022827,1.1921254026973571,-2.208763888183384,-1.1596774512918984,0.25849738146898105,-1.1287468106847793,0.14124954743036788,1.3162306098218135,-0.7526920344574215,-5.231844253069092,-14.93697499925213,-22.007078123364003,-13.450554919832749,-1.7747434321318458,-3.3121916762934642,-5.0474023012486136,-1.7940040285473922,-17.53587707526237,-51.97276695042092,-75.77607415370363,-93.89749952032827,-127.10113545210424,-153.67548897536153,-158.60068046446625,-159.91759229942215,-132.01193493695797,-17.562180221583603,226.37410427417538,608.940318410621,905.3334234934551,713.5817135580554,108.89435132446685,-294.4642541109646,-276.80857178815995,-207.54596745242574,-239.30114666655112,-209.9448873128483,-138.57461182814234,-120.5075101253121,-99.67857844492599,-53.88641215045854,-31.135491766259932,-17.812445865794896,-1.295081559349569,-5.300655348802543,-15.922917633771313,-13.340767126550254,-10.301544820190916,-10.114291296573192,-10.18301271204287,-15.693199817247057,-14.613328956769088,0.7700207730888113,14.088463568423752,22.631578119890925,34.15291515048181,38.68087308650216,33.89062138812999,31.672911753260486,31.6892687671006,31.62508315140824,31.33715172801776,20.047056258826508,-1.1303614831301445,-16.979442820298683,-28.551410860430583,-39.25673939516088,-41.03758954920244,-39.55912050666684,-42.05413273498365,-35.728042938009864,-20.220537235458078,-13.561724035159106,-13.554938624244947,-7.820799359141345,-2.383763620528498,-1.500330187732505,2.7273359637868966,7.549917568469454,5.298378371382022,1.8748528134798867,2.191222215664105,0.4493077326644972,-3.8290235050489834,-5.338330948634468,-5.119628879399018,-5.488501845511747,-5.186801709457315,-4.7447914753813105,-4.099584472076309,-1.2377869669424655,1.5574492319750046,0.707713561619471,-3.6669471912480276,-9.209679405070116,-9.10040450105555,-0.6327528886161655,2.5448848493967873,-6.978065119636781,-14.322627974743252,-14.408781902483224,-17.567097432374897,-18.625746462514947,-12.078720768267004,-9.992246808468167,-9.776153669890325,1.2224805518608264,4.427838277616399,-23.71500012488836,-62.76005039200318,-84.89234429977373,-105.84563912703629,-138.93833948310834,-160.55240459067957,-171.95808797454268,-186.3922244312679,-153.16470695662645,-4.206193636340856,309.42881085993446,758.4904973751815,1013.0595814624202,685.2537223540589,28.31144250428037,-313.4833291265758,-277.50957910537727,-249.11079165689728,-279.521843273895,-228.37916899426537,-163.15662617423274,-143.1837425815999,-107.03581164381802,-61.59514323281233,-44.41849780410164,-30.8299340367677,-9.94422739793107,0.9423925840656686,4.03721455190874,3.983841965932548,-1.390638977448912,-5.377187197292624,-3.92578738477647,-3.3209246528772773,-4.265519779705773,0.3054350240293129,7.698691421430889,9.084764774266167,9.855052766629498,16.691640416799203,20.041648219731034,17.211631713960013,18.180618092567432,20.51414032159682,18.778825954999043,17.654987005993842,12.277118062825199,-4.428977006819192,-20.52270371284405,-26.430375592871965,-28.964201955746553,-30.51852084309308,-27.81706417468497,-24.290420823152605,-21.7785859363754,-16.364592167801774,-8.65573613698298,-3.6140607102921045,-3.1826116667862063,-5.079965870848142,-5.043263633863891,-2.262157214799208,-0.22073891818333102,0.7050894307428663,0.45399712357215627,-4.363691929589315,-8.504142692766466,-3.696617182181786,2.480103053563652,1.3537025443954214,-0.5981848833018031,0.8519690022091879,1.0950748775280594,0.9542518497790482,7.366437568464012,18.242356665467213,17.42789569569064,2.007294544684978,-6.164644461790282,-4.395602952465332,-14.373799768282446,-31.99731795709637,-39.230067354122255,-38.92261527380438,-33.69392775976708,-22.829688110772906,-14.372296569648569,-5.831915887932464,1.494589102622779,-15.580185105396513,-54.63309940849474,-80.96116009002186,-95.36850902812749,-126.42792334508648,-162.12415979320508,-178.1664188758626,-183.98447625404083,-165.6770829122565,-68.57678136985079,162.8225555742972,558.8538180081149,935.9231306467334,869.1484448541717,299.0354798320815,-207.86984062410434,-293.1324892320128,-237.63143541561806,-261.3558699926031,-242.18936469071875,-167.36514111600258,-137.41622112014596,-117.83252844038967,-72.64901161684699,-46.46197576831767,-40.28588926852014,-27.67577391862035,-12.934520167845392,-1.5742562528238686,3.2022106605992775,-0.9436292759197009,-3.1308824611250508,-0.1273663460856298,0.13202429456676512,-1.9604442893765608,-2.3422126943373947,0.8225361270147573,7.052142899301737,11.239451285129284,14.061947661714774,18.642222291937014,17.880182741267568,13.80905099999356,20.600327375634862,30.795362359191902,26.082210127758103,12.115904431830389,-0.1973365047375104,-14.027304328342339,-25.904305545133642,-26.124497659713388,-20.236773355615206,-20.42463315263192,-23.3711455869375,-16.207791142069276,-2.294226964647031,0.17201215771727973,-9.679055433992133,-14.698533106135196,-11.329290926810652,-7.79199988124212,-3.7411842899833125,2.6708159741554773,5.501876601002536,-1.799657615104433,-16.90449063292993,-25.917543139953132,-19.822240121147846,-9.193104507179324,-6.904471921583976,-11.304705061983618,-14.432544862324507,-11.757684476501176,-6.043113967281972,-2.9555572354594197,-1.230773086885348,0.5087858280013826,-1.4758865437047461,-2.579322753173054,3.2599795210421245,6.2338908953249845,-0.274295524070844,-5.867008875469153,-8.655903235442,-15.958702145613628,-17.30095360984645,-4.103106568129174,3.3130787839690434,-6.292676482438422,-11.84170657563102,-8.483479010126814,-21.383568723069352,-52.6167030604544,-80.05254852147237,-108.25003255441968,-148.1458036501088,-175.83548958620173,-181.51817322977843,-184.14262581007773,-158.88823082779894,-42.83498925436692,230.7031418124201,671.9860644373601,1003.8393420918273,793.2458683542669,155.39854676970285,-269.0767129364052,-281.19022509232445,-239.37820154641307,-268.83471876422107,-230.24496363400493,-161.6989678615404,-139.7096502015188,-112.17906045832828,-69.51522786312104,-44.8828503050417,-26.92293130708482,-12.943013371176125,-6.654487920043113,4.325600949772522,10.264515492732347,0.9985708613211557,-8.92140035107387,-11.728506414830356,-9.904802637204234,-6.908747181511753,-6.299722074392308,-1.1113643355362974,11.15750121544853,21.148982014737406,29.564963549386817,36.538328841278,35.68375985977514,35.141738123466766,35.22048969368976,19.39860415156661,-2.6911456195766146,-9.5593689355908,-10.801264156452145,-20.571225549261257,-32.18168199373719,-38.87030007031103,-40.48935502374792,-35.37662657666342,-23.285737962044337,-10.751594072037037,-6.370002771405691,-6.871614864897506,-3.9631740488928813,-2.1944943142977813,-2.5237252982730283,4.426642247201326,10.668718422256461,3.8761482771441376,-5.404543714765863,-8.97070368804383,-11.167297662744117,-9.451764491443285,-5.320990216823425,-4.692440472697907,-2.259320016905484,-0.27831378456172295,-6.586403790081855,-8.954242129533986,-1.5939847291230347,-1.3016709635633958,-7.779544588450241,-3.566200023088978,7.900287005441666,9.351635082500485,-0.09781364387831282,-8.681816013198155,-15.171475083537036,-21.5521441281007,-16.524767285211677,-4.917833391820132,-9.848210805811318,-16.284760490651497,0.572120093596487,6.376101306421091,-28.113919941595235,-66.49598966030676,-85.21839846560971,-106.34536382863449,-132.70594554921632,-150.82706507387232,-165.63999093400295,-162.28191227499354,-95.22245204649096,79.47170046086674,408.2089048833448,802.7778949898069,886.7303932244333,423.51536161250954,-162.80513467937828,-333.1510092031041,-221.30306520707757,-202.59442246165398,-233.683331734525,-175.33328822750704,-116.88025824877022,-105.85976216599465,-78.10567138991367,-37.406361939181195,-20.549779157153743,-23.918098482105645,-30.64002486166374,-23.091468195901147,-7.928474873378278,-11.177859503028387,-21.30876363810991,-13.621699810166302,-2.7198928299171694,-3.666090063511266,-2.1109537464431347,9.781475215550293,23.321527670596716,34.840400063264376,44.266168122679375,48.227998250404625,47.85733544134287,48.1492024997569,49.08243940383556,46.51383839381907,35.48156835158346,14.912524268321263,-6.020675672621607,-20.92023851223015,-35.93501284029446,-48.47301206673467,-47.95907502070633,-43.33173542533112,-45.905590752119366,-44.25901577867942,-31.228547443521478,-17.52289528994001,-7.6678796807880385,1.2769431709059607,7.950286802690989,11.085499287345492,10.404276477089716,6.171241097731976,4.438952657487857,9.241446680559278,11.52148338849107,2.370821004032017,-7.983175829649046,-5.166545245325446,3.1567523322952233,1.6800816716007585,-5.4614935771619955,-6.4429100202525795,-2.844249515609052,-3.011915225144792,-8.55803730802066,-13.888221610306157,-14.050621559362508,-12.847058155638432,-19.11213962602023,-28.358096055392767,-21.922041456852092,-1.5057674663735199,4.137316055671299,-9.463415052652156,-13.987911944083407,-10.005567155507915,-28.543116612434773,-64.00886051350926,-85.27915410995904,-102.8388156626646,-137.21095635210986,-162.80220622771537,-165.2159894710942,-160.55152266312422,-118.35553618152495,21.101202641633478,303.52407864076787,707.7029697446196,942.8692608888229,636.8745131425071,7.418911145296349,-315.86950025953325,-259.13547318016657,-219.68414512085633,-247.74807409698252,-185.01977297549928,-120.32628607424842,-129.10227092973395,-113.78904814407984,-64.58758649308528,-45.43937639495654,-37.47425918724227,-18.212170538508392,-11.732183199779222,-16.394926816519614,-12.909532604460924,-7.805957707132158,-9.581886782515124,-10.063287804456571,-8.454086460419859,-11.144089444882026,-9.02941661926094,7.795024045350379,29.54091554767757,43.110335621023594,45.839343624411526,43.0332975738751,44.00310898320838,49.76253119028016,51.70145400108474,44.01257667400278,25.61443495246226,3.071183926599147,-12.750160844003526,-23.195509493442962,-31.92376835981286,-32.82224520698995,-29.678536371009816,-32.05094455927841,-34.39864798197759,-32.26697736167141,-31.019779158416142,-29.102122401993217,-23.06452400520182,-16.722946116766046,-12.239667469836874,-7.5176702724045406,-1.8712282835947995,0.8625666944274393,-2.09082665029746,-4.213852228214893,-0.03530095853754389,4.952728651490926,5.684002698551554,1.9992731886298163,-4.543608374974504,-6.9899682426212255,-0.386498693264377,8.11948805832842,7.124005017089029,-2.9346687885817744,-8.099845669192213,-6.696684757005393,-13.70758413646599,-22.961787708391732,-19.542281255283903,-19.458485035585362,-27.880504785307437,-20.32544195610165,-10.049693358239926,-31.603078260681126,-65.64177251712817,-84.23355965357848,-108.57209472067373,-144.76679857936873,-161.01205091584828,-162.5706206016855,-171.07786244878955,-146.4865412709799,-12.667161910580433,306.8139091428434,770.2270017326902,1004.3197714155634,639.8137480666887,-10.101660187021086,-312.24611183393193,-263.6119356287511,-246.43316259201274,-269.722999294442,-204.43706520663898,-148.23594371588757,-141.8271037988769,-102.72644719490737,-53.48165055782887,-38.54265622505547,-23.39656444165954,-4.225361631796616,-5.87787825985081,-12.715424477252384,-9.174147552958544,-4.884926511066158,-5.363467424498779,-7.522954469322812,-6.387388645772617,-0.522111502350235,1.8421584565066098,-1.8023136147749685,0.6323352439802861,10.877052101025622,15.650889480654161,18.096215113063444,30.814384256103533,40.84461961794952,32.14312671980786,18.39238868273812,10.54219082792099,-2.025480886113323,-17.589080891177964,-23.62778071492253,-24.288227740952518,-25.36024112560316,-22.237746415609816,-17.87963715633501,-16.799718326386344,-12.634975543775276,-5.552435269223679,-3.252243008295956,-2.0936651388409278,1.8722201187414047,1.1351358305924926,-4.851051788784636,-7.8338969077264675,-7.20231797605579,-5.286180732036916,-3.5890632527993134,-7.393466247417447,-11.788282746737305,-5.327210965504589,2.0152471754487653,-2.4716560578459497,-3.919760793936385,4.5583337436011675,3.7123109573836786,-5.610294840901965,-6.123248037472845,-5.9102295961166575,-13.977705886354421,-19.395845143422314,-22.249739055091645,-25.946848422618398,-20.092901260833575,-12.577601869423114,-25.72185430445566,-53.852917140946744,-77.43546644169021,-101.10554068108371,-135.68141412532307,-164.9227090712731,-175.22902726676108,-183.2441988126583,-178.67408392765336,-103.35045702988107,106.63562340978191,499.78766318152736,929.3725490846855,957.6516369710727,422.44861117482236,-153.91150363485482,-310.59179716093473,-253.92834008780807,-258.6433952546959,-248.45644350351856,-186.18408581158593,-159.43293066920975,-140.69696575253735,-89.31034282203912,-55.60042012165993,-51.06269278694748,-37.181998086154366,-11.777725783744408,2.684256605186807,-0.4210382566779387,-7.493072197028546,-5.899806910225134,-2.8094134175711787,-6.137306020500084,-8.445620062377,-4.6355920842052,1.6981540620641393,8.735776969970754,16.066300988804315,22.31214961732629,27.87459233417365,32.821912904247185,33.99593585801983,29.77133575819697,22.81073060840839,15.003068398871509,6.569043261614951,-3.3561106368455436,-17.87841856136823,-31.615361785257242,-31.18449994976197,-21.622759939868715,-21.13552721359675,-25.43604197410353,-20.191009451390755,-12.814487499895014,-11.345488885575126,-5.397312094801029,5.516419992765918,6.911878944143425,1.0934013404076843,1.71127132304661,5.8327650516299805,8.268015038868434,15.258225387067416,18.589670659497166,3.655511092217047,-12.226533146845103,-7.827969582474324,-0.8987699263923687,-9.444157972558331,-16.6127752864059,-10.551941025604716,-6.446769431079815,-13.141833278916721,-21.380123091383442,-25.214417677229736,-26.248258934741642,-25.22344816823761,-23.08835482200873,-18.445410857809687,-7.808130647645889,0.35722455285275245,-8.515283160216054,-31.80173657003472,-58.64477999375067,-91.56271321402586,-130.8574735911049,-159.7476552842324,-174.49978796166903,-188.97305487654435,-182.88565064840282,-111.03087470088083,61.66521968442487,392.24203942019113,811.0629700949777,929.1844637206688,486.984575816208,-99.91036015064427,-299.8023024755509,-231.39649993312736,-229.78052467863301,-249.8143160412409,-187.06623227843727,-134.8277478874215,-119.82448583688158,-83.99264184783443,-53.3147588350692,-51.556391001788754,-40.02712474241402,-15.263351660568308,-5.770235103574102,-10.186725771522042,-13.049366082047882,-10.774130217129837,-9.380507782682972,-11.382046486225885,-8.330650551758387,-0.5294028373494886,2.312458657702619,6.620157873763736,18.311211440351514,27.250848042268252,33.4554161965565,39.60852949881304,37.21683566859122,33.91012063617559,38.56646746756065,33.419658319266645,14.15508008674177,-0.5087378074864373,-12.555586562196801,-29.113605327344104,-34.36111076649975,-24.74138856617825,-21.585908723581767,-29.14351686605687,-27.968656873021324,-15.403177777472253,-8.972699098754319,-7.69739359635054,1.5898248767584935,7.921652402754988,-1.7980627661402444,-13.203307222418545,-12.614034482879262,-2.2852536840917494,12.211641130039776,18.30569639947032,10.78464597240077,5.129100365630869,5.203165708822262,-1.7115011741759645,-13.557925849986786,-20.51121019284598,-17.841269105466978,-4.608664773208712,2.8740796425868282,-7.555903232204756,-17.056325026886306,-18.676932608091878,-28.701763190360325,-36.47559745213874,-25.25630782173294,-11.2397686971678,-3.653664485965738,1.6604620046750629,-14.279602007780259,-54.76961502718187,-84.14456423908845,-99.1020490880187,-128.383322603045,-156.9828999962847,-164.15099244088273,-168.69871339420482,-149.7542707565113,-46.842101395205816,179.09572038588794,548.7828478120391,887.1221966314215,783.3504071349707,208.28087241004295,-252.60253547824897,-281.60425215250996,-210.11232051946268,-245.13624226546582,-229.20682523764356,-152.14933519163534,-126.3027942041726,-110.14455687404056,-66.36968451391316,-43.911906142955765,-35.47414583287903,-15.150393539919385,-3.72334916560267,-4.7317994904929535,-6.147538029536488,-10.952458817086764,-10.218823426053579,-1.0397375007803262,-4.370572325888521,-14.009693052228219,-5.290968746141468,6.313371017364131,5.416936507747543,18.60074981730248,45.93793808243186,50.17652868065724,38.790270252000695,44.614739701693246,55.22755553630536,49.101099237946364,34.258000632515746,14.956129011927686,-10.253429444810036,-28.67240426705063,-33.04748549111325,-33.579070317842714,-42.32463135365937,-57.23136206710687,-59.86920017714767,-43.43507296931218,-28.52204647575178,-25.774177289252457,-19.437431232236698,-3.8902597134832106,6.271541122429284,4.85250523051787,2.5787781712170155,7.554890234325898,12.868209765328873,10.766780561984875,6.810504791284353,7.3347705882454735,7.795959602602395,2.1974899844245517,-6.5722324323922745,-8.522016524033663,-0.8858325905609306,4.748919771614695,0.6376125362148599,-7.066338882562114,-12.633809613685465,-15.578360952613636,-15.982572957230314,-15.787649743928782,-16.704002304750027,-18.18956775793614,-17.8379615514447,-12.90545753391687,-11.531974119680616,-29.08994159335194,-60.13041187438917,-84.98927535550476,-107.64812626954443,-138.2945590742459,-160.05128150560606,-170.43218564839185,-186.44363248342037,-173.39378715270976,-73.53391804149811,156.34210815795478,564.2334971921579,972.7619806284862,911.2777773478788,305.67916377489433,-226.6740266229105,-307.4762559411733,-248.29975616548649,-275.3473575977879,-253.33838179998423,-177.60226328948872,-151.9537527901187,-129.20200954388702,-76.89966738126677,-49.26150771410272,-38.120882371726594,-15.701578582273797,-4.675529162598597,-7.808763199593784,-3.531304683030097,4.0973827753489225,2.295425395037217,-5.7957836473231055,-10.001212759579762,-7.413409899255587,-2.3761706656556356,6.2689654498229554,16.140292648434173,13.17002666484545,3.703999533130511,10.822947169370185,26.941050938887045,32.81848340497985,33.79139183953937,30.67413831666858,18.389574265639695,10.301895150635358,4.173136959235478,-18.25061167285046,-40.877311427855254,-41.76000428130517,-34.60964598604836,-29.341409504037486,-20.243365414931308,-15.390295024574751,-17.79356781237637,-14.667872646976539,-7.320667180592082,-4.261693646393178,-0.4081242431397385,4.57970319468267,1.6859065871163068,-4.2751382877063016,-1.4230913125395173,5.515892459178625,4.58914192187194,-1.8606113587456825,-3.6898972593725397,-1.4150091207183397,-1.96777300459968,-2.193489971399707,3.142589410450163,5.891481342836022,2.5489141270013196,3.7582956937078267,6.079770373195549,-1.5313976121217507,-8.97529332202701,-9.883846220550321,-13.191016729201124,-14.075715631952782,-11.099816855546958,-15.319703468729625,-15.059764604364007,-5.048528400037121,-15.79412263529219,-50.51257198090284,-75.34583776654371,-89.66999031835493,-117.84315351389027,-153.4946313623691,-178.10069948688354,-194.59848123480018,-193.09095136620817,-134.94161731494708,19.284715710551836,334.6265011181173,789.0646396848904,1023.7885650006274,667.5032370035651,18.04581176506479,-302.9080696465584,-274.4431263473146,-258.59489951947785,-280.07082336487645,-219.7370280337239,-151.3294806543296,-120.72448798496677,-86.61197287265553,-65.51266052893362,-57.607164869840126,-30.528733986680955,-8.338025898076474,-9.718325878984992,-14.833496086114103,-23.871820681920575,-31.167357489464216,-19.695287494199025,-10.087785897123013,-17.42699296965762,-17.559679394694065,-6.114194480481526,-1.4051907330425557,2.4266046379287793,15.616327832525277,25.874467125641132,25.49350538173399,26.007834788356988,33.485238001301845,37.37282662742714,30.876407143714385,19.610932324079037,6.0836709631844155,-10.06826405493598,-21.160890516158076,-22.856343183532104,-22.367059584853536,-24.566103143830976,-25.873107153003634,-22.36398171073724,-15.729107012263576,-10.474617290927977,-6.0548517904536965,-0.9885756234821628,-0.5329881695245344,-5.812110417557893,-8.877461134548593,-5.633369146393186,1.06027183021137,4.412199768334852,-1.151571820102692,-7.2981425648621965,-2.581568515044249,5.576426425351559,5.725873653055956,2.2163805337776044,2.511061236206361,4.5380645453231745,3.9187395264309206,2.756161697771108,3.5497643793947224,2.9800212046029513,3.355422247956115,7.255400390567244,1.3157967781992177,-16.87408209029384,-27.248792302244773,-27.75839795705229,-29.73884589985724,-27.667829755561296,-19.1344387330747,-9.035583016465303,2.253029838233644,-2.080470296209114,-33.42896646995751,-64.09758549014293,-82.41791223414238,-115.17992479136413,-154.1982341545619,-167.0295174871172,-172.79689579271587,-185.93673190654042,-150.2103597790506,-9.515610175529076,279.2412888484057,706.839660418651,978.4350733814186,705.3676972506552,79.30881480775479,-285.7446030983274,-275.084576431161,-243.0572058020809,-270.271669380076,-225.85395112994163,-161.18423250177474,-138.87300645096974,-106.65331951243189,-67.64143570438993,-52.32348421014548,-36.75129264967654,-17.428413466981535,-9.531539461645096,-3.1817805405695267,0.5656537510745636,-4.497385087395415,-5.263686809715821,-1.653015088125759,-4.03944544108634,-4.890927810764213,0.2008079371240541,3.411033848261642,8.092481307681723,18.912242039673053,26.047708916853797,25.587528252354268,27.01389017945915,33.44447070001752,38.27474692674109,35.47918515609758,23.87186561172153,8.698765894663206,-5.305318715366623,-19.351570612215863,-29.990288816067515,-30.428612215545176,-25.148778028650362,-21.748636306629727,-18.27889695367578,-11.036035298474848,-1.564650894973564,1.1464265283255202,-10.375229685025747,-20.04746751378127,-9.405633772689256,2.8958028798077127,-1.1033969182721464,-1.5834212985786573,7.6929642626755905,6.827085729304228,1.1578126041448238,2.2412498817655298,-2.7572522646193143,-11.56424335310931,-9.237421938892844,-5.491675005673237,-6.386865070743145,-1.41736858794264,1.4362836999181496,-5.934223051873303,-7.2697538005608635,1.393964700229299,5.799518820245655,6.4383254028179255,6.449332521852327,-2.928876869758003,-19.097089484760104,-30.237408381957078,-33.97517678247618,-28.46074414654057,-16.296177760862918,-12.586699152414074,-14.85615865736257,-6.385723625727323,-3.6857512284994325,-31.211410425529174,-67.12359013252217,-88.3561912922557,-113.19660430491744,-143.00985884025914,-154.21830241637883,-160.76181050505622,-168.78182525185701,-121.83838699382078,31.814800637643316,331.60885971027176,744.5637370756853,942.6231992686205,580.9992073627941,-43.88593355987531,-321.1752033295855,-251.24696098137224,-222.3407050088917,-251.80654053241022,-195.39952159949235,-136.00644646358975,-126.23861301412296,-91.49368590693254,-46.6108575881119,-35.329882653058064,-24.966536415061462,-8.118401984078915,-7.655372306567386,-6.673579894775816,4.673584240427953,5.596294007084905,-3.6263953092879504,-8.616510736681656,-12.085189766224627,-13.934849792517758,-4.578076276158283,11.525645389262396,22.704902228203537,29.436506629130136,35.984177892707535,40.50890665498916,41.40963178462215,41.38962974188063,40.97352266849579,33.37529242383782,15.442389801687604,-3.026931606169627,-15.216541289457075,-27.05169500565955,-39.85067577713531,-45.200188466641336,-40.70188503800182,-32.4553566198469,-24.742719554294816,-17.669254097111377,-11.036065401196963,-4.951413466129257,1.6910532311478779,9.511243786291852,15.62907023275745,15.441277741075172,9.44883081259112,5.4612589980199475,8.604345631297488,14.680203401597002,17.98687916939841,14.277402338111656,-0.03729886754104328,-18.140557988240655,-27.12251222534163,-25.905817822551825,-20.822728395565207,-15.918163306891433,-15.521672590927079,-16.455056043234052,-10.655279740534098,-4.481017540225814,-4.618338429869684,-1.9307329028753415,0.8487233536629333,-8.918533835771207,-18.844224110021408,-16.519877603875823,-15.58269120717808,-17.248508659622992,-11.808524722821282,-11.6966975239392,-16.467178007766417,-4.678882083999667,6.345479640987643,-17.969307828306277,-60.29983745760011,-87.49800531103361,-110.2888325397416,-141.69908273837515,-161.2159505784576,-169.13534310274738,-185.33732281946354,-173.91886475798117,-65.05194929416236,206.8751340899586,660.3805248846651,1028.3098946515613,849.8497451971498,197.35276539937016,-269.6816922245013,-297.66075284096513,-249.74933835124995,-287.11838531028667,-256.8962114627522,-176.8618449839766,-145.1102696083833,-117.31836514131501,-69.32260200562193,-45.533165239060494,-39.24541844195833,-24.82096457626056,-10.204106708611121,-2.1678179847702808,1.1118449685707859,-1.4810379009284276,-5.969073001722247,-6.4328761996813455,-3.605202496139192,-0.4626129206309013,3.171896252503009,7.515822101430235,10.648023336367551,14.536752262997593,23.56854466201645,31.824981170319152,30.0945142064643,26.360884065530787,31.313807646960072,35.045221109775234,30.259163148958457,25.263474014321318,12.126304967169823,-20.46611311139116,-47.43321734957363,-45.889353278703254,-34.28315089300127,-28.251394395011662,-22.00456929623349,-19.88738641380378,-23.955715086716523,-19.385783327389312,-5.148785102187377,4.811611061587595,6.961011379012273,2.1804911309202684,-7.684780051282525,-10.216024417280755,-0.5883457765443953,5.010865917241363,-3.7039749647966964,-13.641348079956195,-12.118703795872655,-5.785455157686322,-3.847729235727492,-4.183334039076042,-3.75473467732297,-0.8450508906974559,6.012019701908152,6.521155079143668,-6.7620780711739314,-17.302162466057432,-12.803412383298916,-5.0006512244749715,-2.7656618796468386,-5.474614721860409,-12.876897259993825,-18.79781415798603,-21.23066406469217,-25.42791930884311,-23.87597040980529,-12.64976371657422,-7.497641353344086,-10.256146784524418,-7.358413251291015,-6.889128058303639,-26.116269064878797,-57.14937505753177,-81.8031274040183,-105.47165857947334,-140.41727060339812,-169.39305364783922,-177.3693310672444,-177.16486754254515,-150.2768763161074,-30.60663358714214,251.0127402856306,679.778103235179,972.656849989387,744.5868133626946,136.3482898307667,-255.31117850067704,-267.90256843058796,-237.98603267276752,-262.9951491886458,-214.48842527273075,-154.49541680207741,-151.60574772796275,-124.98953855554073,-71.1513370800054,-47.75053732684532,-29.822128146389513,-5.52009902906887,-5.111315540663615,-9.15045974932243,0.8284409541613584,1.008603288651365,-2.4855515935367194,5.774243456446754,1.9272258503181128,-11.920665620998419,-4.851925967115651,8.306084236791328,7.61526995362116,13.505262183273173,23.852741537079357,17.138670522363615,10.15120701906942,19.28815125634309,28.168683784860665,28.825376092311934,25.22872116735215,15.054071983096346,3.662189742472088,-2.6347593202416366,-11.031879718311655,-23.347774477626558,-32.05202782664395,-37.147682722972164,-37.92214714907037,-29.71727439408937,-22.724655848998687,-25.596093263677375,-23.54913661041683,-13.228543821062726,-11.459465565523232,-11.007203000692428,-0.9298385976211776,-1.4757137896453152,-11.53374993212749,-4.562242280462584,2.1151170667581702,-14.603335047211246,-22.8696306424822,-7.108631077409161,-0.9906224991875838,-10.660467820309224,-12.2710367566206,-4.796076991144885,2.016466640713082,1.5056817169716226,-10.657196858295615,-16.164419338455108,-1.9011286921728328,6.971800923123036,0.05929119116250625,0.21430052085144524,4.737748203645603,-2.7693811575073504,-10.197348459463225,-11.382319193035787,-17.053518975127087,-20.7385342869501,-18.063789127396895,-19.565080414697835,-17.17804879532207,-4.143824214205573,-9.084098458592617,-44.78598267515181,-76.37928750651973,-90.7030897320389,-116.31964201859925,-147.96553168267656,-159.1637983535505,-166.6464948159736,-165.52577047077972,-89.08467961711608,120.48936766494202,490.28838879970647,881.2608392315016,889.2157497417188,365.82057930321207,-179.40027693465785,-304.75789288130716,-236.37041881886842,-253.86070798247363,-254.47475195342798,-177.89526089141194,-130.52678737419333,-112.02214416309769,-73.07530251465863,-42.97405326406046,-36.40961245094957,-29.82432436279726,-20.698178483332793,-17.620470454652878,-18.63279147005685,-15.21894431933849,-5.676427693628334,-1.672559834261019,-7.070170610549379,-10.964302844300757,-7.057634327724397,4.382154936890052,17.40131984537875,22.840811763845302,28.61784537990872,42.99139491660588,45.763339907289314,30.905866696821217,28.585760927313242,41.66938033759224,40.53113257627339,23.36732668504856,3.4149180972464057,-18.94909514004251,-34.04847925730588,-38.460095740307445,-47.57297051904813,-51.8882974568465,-34.368655888066016,-16.492651777682305,-11.669949068287735,-1.5027308973659714,7.641439127886127,-3.893088187243862,-16.151698982370206,-6.240009273643796,4.731818923165612,-4.507496449146169,-11.67436309779341,1.732091334403572,7.451473371529122,-10.491302909986407,-17.661809177364873,-2.784574120416117,-0.47556247153426234,-14.121707392611363,-15.198298009971403,-6.437958099436607,-5.205253962166994,-4.4868091848266705,3.0152924180884604,4.061858230943724,-8.077730936918657,-14.544832575803966,-2.5917041388404165,7.9042765012992175,1.8739326781343664,-5.801290005200212,-8.268037306095628,-13.029881698775373,-13.180160784051626,-5.757411666914864,-3.3326748527612775,-4.111268386618568,-0.9893852990637919,-8.603480733422153,-35.80850139713582,-62.97706928975782,-83.4467838134425,-118.81008774176269,-160.95505050775046,-178.27970449617342,-180.57332431986913,-167.67796819619542,-77.23323950352882,148.53153141748467,522.5491967085003,885.3411135934571,838.2716807874376,281.5130813885881,-230.97853918295655,-297.1135967031337,-214.83259851328123,-242.91604635038152,-230.26721786389862,-150.38862255444036,-125.87156432842758,-107.2339875021622,-54.805841915960585,-39.013677487994755,-43.71103525800222,-25.658717520227192,-17.367239591455515,-22.843022593982397,-16.18211948062644,-6.609823223359996,-0.6982097886440535,2.6352047501237337,-5.252477827365826,-15.354376481236232,-13.762547240567308,-2.394478960244624,13.790551097265752,25.92260171773264,35.29185737478058,52.15079576694117,56.42477224145504,38.37177450573396,36.80141088954133,50.19398869692903,33.884229656694316,6.2309524925815865,-0.9815824421985422,-17.555321525397318,-46.3687515619139,-50.56722999138192,-44.143544420698205,-47.68249993252826,-36.8471471584684,-17.396353607607082,-20.63897819576072,-26.67041792411156,-9.298624433517503,7.683796821336426,6.280628629383619,3.0244199802094727,7.619379177821964,14.294790348033004,16.34996661814077,8.174340773971949,-4.306179730451795,-6.985013330102486,0.7174991257980778,5.712088153307954,-3.8489699671196718,-21.413136857910544,-22.456865340959123,-8.321435624325211,-8.913768506954982,-18.276984823242593,-9.205676642489827,1.9733126373191432,-6.5389833539962865,-16.393387918976742,-12.686972304463659,-6.988477625776262,-10.693642421444153,-18.975214508195144,-16.987814710178263,-6.170686709452703,-1.739890394383254,0.5714374080289772,3.1167841834908536,-16.384906617083217,-55.915417786575695,-86.46854563166727,-111.2367466158212,-145.02235917223288,-170.95242445565904,-183.01954291280796,-190.37199889448644,-157.05015213989427,-19.189346876289108,284.0794945328058,734.45751176349,1015.752013672918,721.1526128184057,56.02191420156971,-315.2476029111008,-275.7134503693312,-234.7410763731412,-274.73206657816246,-226.51564212459886,-152.81137595090985,-133.66805145912554,-101.66604358769351,-63.401810860178784,-55.561574851922764,-35.82118953562521,-8.362546883037304,-9.964317333435787,-11.233910327524146,2.0480307065115113,-0.771645214791171,-11.699284149607124,-8.965285884334612,-6.131228309635437,-8.451222413980405,-2.589083090509259,8.123758892829091,17.142959541957357,29.570099761657417,42.11627232179515,47.226006922545885,48.130929338713635,46.56406729096493,40.43966777174641,34.124467832276245,27.613698263504425,13.923312805277227,-3.8088615096176746,-16.436640341153556,-22.612404571681047,-26.27042333974532,-33.34107094308606,-43.357030558307315,-43.49128962921225,-30.944456018394064,-20.276005883667512,-16.122413451730978,-12.98214493546215,-11.494030934358104,-8.926875018518597,-1.1867885601745023,5.563414926053925,7.762129327387251,8.145832592960005,7.118697035259208,7.578822691347117,8.888761111590922,2.02571027185275,-11.221484274617314,-16.876291616947327,-9.28076544501294,1.779855054421482,0.7332901916534382,-11.481664555114108,-16.982402377589718,-13.857608981088806,-15.364209805052283,-22.549371698762464,-28.662173932561572,-26.677838743724635,-15.18240203117,-9.48389723020826,-12.539539161893812,-6.463030936966817,-3.0565867210629474,-27.637432419265863,-62.57087791174958,-87.97310292079477,-118.98475796982693,-153.11242581460144,-170.29098738366648,-182.51633517385702,-190.0842895427915,-142.7929253362728,13.878244556587532,339.1618890019682,793.9995340298918,1018.2865959169941,656.6694937238757,12.764296394705092,-300.37179099149466,-265.22652899009825,-243.7895693951782,-265.29864462694866,-213.4119502219487,-160.31312118117611,-142.5688086901602,-103.5205368918942,-63.657340967134644,-48.35390455855173,-29.89975087153735,-12.723351834997448,-10.716512917040916,-7.895757573811469,-0.17970601054077306,2.7518579234904834,-0.08148326423961905,-2.5878831168736554,3.245000387810107,12.62241042958819,13.661655725265167,10.597316395958387,9.503821352445742,6.817725134713948,7.449560451631985,16.06020951218839,22.845762200248387,23.17307056095324,24.196513974910147,26.933867957682427,25.214935561947,16.89902330783667,2.8801488229379064,-15.58259809671473,-30.551430094640857,-33.58258376596675,-30.765186819290292,-29.28664524168251,-22.670353472439118,-13.181374469212464,-14.44964218643452,-20.18790723705653,-14.797364903157206,-4.838139652652048,-1.7303750841174192,-0.3424375893893661,2.077588317281874,-2.1891215859950197,-10.22634944221636,-9.622091942658667,-2.9319398195772397,-2.653161212450815,-7.124454868068124,-6.654720664624875,-1.4995578304713462,2.4602384123683745,2.546840578367309,-1.2429940862016053,-7.017796653058507,-10.000631252736355,-6.91278233995267,-6.027819412358266,-17.554836353999818,-30.04333404991651,-26.628810816951216,-14.503056463662567,-4.785098710677996,2.3011757244187407,-6.177459171721491,-40.91070469193454,-78.42578548095794,-98.55754546262884,-118.92896739037754,-150.14546086078445,-175.27665743489115,-187.2354757536206,-178.1358919067381,-109.47534007348257,84.51120567969232,463.3678433985875,888.7915118368066,938.5899730661582,435.9904686638952,-135.41772698355038,-302.03886568263835,-241.62501022978597,-251.7779387136867,-259.76233594376924,-191.69085853701446,-144.87880320682262,-125.23324309850867,-82.59373780484893,-49.18726893657124,-38.638263181604785,-21.398358994385468,-3.995832236554694,1.9772642126580813,7.203292102049112,9.420550527205073,1.5555853384901788,-9.280238938091415,-14.313048828202202,-10.095045373339104,-3.047075424523296,-5.339855808432036,-11.742967581080215,-6.415185601348939,7.241813304003696,17.102981130633708,24.45410936230388,30.93358023093237,31.86558633799089,29.79632968304253,27.881704607109494,18.680917290150802,-1.948107234602766,-23.57768613712347,-33.306006228829546,-30.926489700342877,-26.75552875637923,-25.074366940303584,-20.50551756165886,-14.588410676618176,-14.094425090321884,-11.84822751119081,0.1359065950090983,9.760798825390854,8.057670126043618,5.128387377132981,4.533431203996355,1.218787328664673,0.13585499843479631,0.7820288297212628,-7.986296057399741,-20.096775332723563,-20.19166568361021,-12.489289080470446,-7.29670162961939,-4.064536740752079,-2.4831603597379264,-2.6606795046305898,-1.4197457710320176,-0.8261922745004568,-2.1572815639324396,-3.744056256535316,-12.657912328517778,-26.62086593373233,-25.82714023612054,-12.164210392230139,-5.390036989603612,-2.447361059731703,-1.3636419866290375,-20.776436772299327,-54.69287141522281,-79.21558512282323,-102.52607025014979,-134.406680956934,-154.63687816573974,-164.1904874983542,-177.08096566768077,-153.71426193818937,-38.77714992919988,212.66063860362334,626.0162686874307,970.7396692853113,799.0898872532823,156.98879069762836,-297.20386949383226,-289.0133794090966,-209.48141640808205,-252.44656551649962,-236.7851983597311,-155.11676279711278,-123.13326967073962,-106.28153233105857,-71.90449892944248,-57.17518416269873,-49.62674369686353,-27.952467082699897,-12.430062264626699,-10.897958180641524,-10.930428059279926,-7.914099776612794,-6.226075290335615,-7.595259276044288,-6.4029789132259936,-3.8449612367009536,-6.646581166717933,-6.039373015331699,10.218975015540021,33.300230738775255,43.1443043103517,35.684788295705765,31.036319060714995,42.344768422718424,49.571912506481425,31.63292596047672,-0.722790988406715,-24.82061513494265,-35.07741782823926,-44.713964669004575,-57.842727072125875,-54.32222756183514,-30.614272857571443,-12.32058869037512,-1.3397310967131157,17.934965203377015,33.75719957512162,36.665027947469135,37.23957755554493,30.73442327074376,15.083631823712938,10.475271341491057,16.25679437424999,12.921709352216322,0.759456543392039,-14.84268728506581,-29.37897369466228,-27.113084612335726,-14.195425055123689,-14.491760838081609,-18.003763971827535,-8.827021825370682,-4.737798384683355,-9.355778296622468,-1.4638100545692474,11.098083126613725,3.41535701039847,-16.81508656583901,-22.429618537266794,-12.713100377228294,-12.242051806379738,-22.293106436849403,-20.266502244056227,-16.463479556004778,-39.16504697477111,-72.15196226162158,-87.83459439473901,-104.51835735928069,-139.41945114384208,-164.6655733423508,-168.19961801657044,-172.94980072103024,-154.55751129320618,-43.553878121834714,217.2137053674574,644.0045489826383,1012.0750162342797,860.3564145439261,183.14230928604007,-338.34551643139696,-340.95921350665986,-229.19472228865084,-270.9267306028199,-262.80281540788513,-162.64633014491895,-125.78684309911182,-116.61336830063689,-64.86878672135059,-36.552951034604355,-39.05855720526681,-20.422828194098344,-8.803689177212235,-18.433009288651498,-6.598675384395008,5.141015081695475,-15.409519718101876,-18.42768235316357,5.002887045116696,0.33790002221514825,-7.269101612773083,24.72054141147347,47.16732885379244,38.091673354526264,41.38582060236223,53.9843648116216,57.953650669097534,67.82835911808915,62.44816375272081,24.153263452098173,-1.8150009220052787,-2.387498673439629,-15.422067097218612,-35.30359224300196,-40.278109228182,-43.29740729488959,-42.044391449382935,-28.040087143649238,-27.85337690859913,-39.96266984060462,-21.499780727995322,13.24200957922421,10.908081004296042,-8.907892627306786,5.936664637798305,35.62005276294213,32.73462763452996,4.6784226352324865,-9.58905990399116,2.6530133197614187,13.754927055899229,4.416488277688606,2.8504988319226623,15.992949760504706,2.1312636758529617,-22.967135169398457,-3.9010766946343276,26.420183368854225,10.769729643062934,-18.51837418505462,-15.76783821003154,-0.3972587265462657,-4.001364315480815,-14.345849132176156,-5.7907324695134506,-3.8764197378234577,-42.557466953638794,-81.51204898507018,-91.97706260884588,-123.30747352031344,-170.00010048061168,-169.59533436687522,-160.35168046292546,-194.3296667974102,-190.90948043417126,-86.09369483947746,123.34767107777503,537.664073199465,1057.683401301922,1109.1001068793419,436.73302290111747,-271.35292828480203,-401.7134905916486,-267.4998272166186,-272.72659488499767,-284.7973838343731,-198.6602563728804,-143.09827307304928,-127.28852114940844,-89.42700950406727,-52.76885782641597,-31.735520064984613,-17.915103717633855,-14.4141503046719,-9.470198793306956,-1.7639564563438057,-3.0547411919395344,-6.4631856173719555,-6.60300548763524,-3.7268286892736047,3.3891858291169283,4.699012348508894,5.50520281791006,24.49280198089566,45.78802851691322,49.774919213813355,51.48698537061758,54.49453953806577,45.858564011368614,36.25084676105659,32.855924402760905,19.092327142981908,-4.972234858448914,-24.14114885282985,-40.35474162072947,-53.516535454304226,-50.21245851092057,-36.60293861722959,-31.882275194978398,-31.29608409076726,-21.58130920636539,-11.007128484169662,-10.879980830051982,-13.973977405968721,-9.306047879953518,0.8274501631640518,6.415081394356995,5.029558366724119,3.9864405630201256,5.014523038521445,1.4792052693686077,-4.53029117326742,-3.8138108408218994,3.2674726949313273,10.343683271540417,12.424612720427579,7.381185767641027,3.9574336604112883,8.78380180696286,10.863414375254756,4.892835563481309,-5.619184712835949,-25.923621138994307,-42.07595898567149,-30.227108831268225,-13.1158849636073,-16.563549172457545,-15.677723622812096,-6.872436428652367,-29.23839451029965,-74.92323689960043,-99.38825875074261,-113.56169744819853,-152.8117836620907,-192.09319034868804,-199.27083933964408,-198.87082307041837,-185.1848982755029,-83.41684810618159,182.00553282657032,637.6690279820759,1062.9323863606398,970.682541592789,301.0985198018175,-277.053666365862,-347.621014059378,-261.974633924046,-291.8147153823643,-277.9115782536562,-191.00479449380077,-152.63160103273265,-125.6997968687551,-74.50028378735826,-53.94030996735947,-45.6067911154843,-15.996630828924658,-3.0556417895216725,-12.683508468651155,-9.893322199099863,-2.6646110083176,-12.003280983250978,-22.949941598212412,-21.037196579533727,-16.34340567830032,-12.426183182596027,-0.3613175416796217,14.88418785294301,23.565582712203007,29.36401865592748,33.27700379498724,34.33943623352345,39.902854485445054,43.56931465569315,32.71357781033302,17.19499808702146,2.8736662103697963,-18.39286752776466,-32.876018695723346,-27.325412084788567,-20.789356974026497,-23.89792573455704,-24.298889324293864,-20.426297893834953,-17.055206796284534,-12.575232432044206,-9.150851585257405,-7.352567970950229,-4.6766419078829315,-4.068761877776291,-1.7916816074923236,9.12749123746076,15.317958069746851,2.1104079819970387,-15.292687265735752,-16.081256304267505,-5.626031669914754,0.6442322572721757,-0.40650127664175173,-3.625930339833463,-4.743665209711235,-5.9882685968592035,-13.469587900516473,-22.855802217629112,-23.156185630970207,-16.5950904458634,-11.326534666541317,-4.935979996178608,2.8733237776548606,-3.0816226372205087,-34.43609861998911,-72.82574707738635,-93.88467368530718,-114.97753013636583,-156.17286614852657,-187.77085964247044,-196.06314425219207,-200.98732540547982,-166.21700526513018,-12.563305076332057,324.14071375071524,803.7386925219754,1079.590660150786,755.4242537847499,72.78623021020118,-314.2143709695607,-302.26366217397947,-269.18707828217725,-299.9128865834746,-254.60806566369416,-179.6353740768805,-149.9884870545913,-117.56793805232687,-71.36991696816384,-49.58012965270771,-40.8721682334442,-22.089158402145262,-4.084827228501684,0.5813883646131046,-1.127641506285336,0.6493964531151839,2.1742948567616303,-3.3644142181841445,-9.101635428557135,-7.023348345206216,-2.5626825932955324,1.2241393499585858,10.572659697614998,20.433819379842703,18.732432760033507,12.999563976729602,17.081843516045755,23.650694999183845,21.381462807275568,14.851960175875796,8.996322767912055,0.48586476243885457,-10.838946965368178,-19.310080044406693,-21.928381519299673,-22.830977284969286,-24.58348738563795,-21.80004954905155,-14.232031028013584,-9.851994089538582,-7.650982234392103,-0.7641187690668279,7.618350891184831,8.78879443949841,-1.021556585645488,-14.451120058763678,-16.666531232563898,-8.141966923829855,-4.678521611925454,-7.150744328642229,-5.220426218627795,-1.2089826950702562,-0.1791873916983313,0.7209168386172387,2.08968760662059,1.4169718171377106,-2.558673261186712,-9.093578990641582,-14.899308881111047,-19.842513213353467,-23.820932132219266,-20.834887724827606,-13.15669695982654,-8.449702507307926,-0.2502367919831112,10.127226420139948,-1.3598278696081643,-38.156286188190435,-73.92609307023976,-102.17553007800765,-134.84151629516884,-162.42267761162506,-176.5373180699351,-189.55885861422718,-185.6571363267811,-119.04083091466705,66.17347488125742,445.90741895872253,906.8940675678789,993.2150092812858,478.9141883138459,-132.39197266299408,-320.5773773133617,-260.3191726183589,-264.1511835988507,-265.32530132663663,-196.53989973565356,-151.8710603301864,-129.70099353575904,-88.95861511264225,-64.00256841995892,-52.96680083684197,-28.842926645976377,-13.074272889505433,-11.805693855693569,-5.578971698718846,-1.1585831215943259,-4.771986548490503,-7.035672547154853,-8.896908358181378,-9.508866901766062,-3.0536356540680085,2.099926198272991,1.7896460879709082,6.737749076404687,16.717870020836965,23.27984653842081,27.78550845666819,31.14962722333677,32.49166387532471,34.099535261989715,28.835108687577083,14.404204159233075,6.331123995766046,-0.27178271395731457,-24.97525265536438,-47.348287855224626,-40.178175320761824,-23.782811438114678,-19.767933489330918,-19.302860722078194,-19.131612416944805,-20.194648144912858,-13.258856191579106,-0.702341107848369,5.427290862137113,2.9946087567839115,-2.7330412522113274,-3.111940457887986,4.450015664473455,8.548929939310348,5.771307112907809,6.881836358447984,8.187426381071695,-3.461194637914147,-19.10841770856785,-20.681571031460216,-12.50239766359722,-9.473135007952639,-11.861285021736993,-11.2698994474961,-5.609971461788202,-1.0311253299029843,-3.685788757684655,-8.344023947442693,-9.218838899498543,-13.87630885334399,-18.329091108387033,-6.753536056473518,5.693380151778799,-0.8600439114539249,-6.026599373654122,-4.082662798795523,-23.93821227270638,-56.71636017529263,-77.78211813639938,-108.22045797261141,-148.7187822260486,-161.6974774267463,-162.96247222058116,-173.47023820397823,-138.22627697554083,-10.54573817507709,248.38680391995794,659.2537152846771,944.3042279557635,684.2232849469355,53.173890709068445,-308.298793100396,-270.9670833320589,-215.17294885137156,-242.7108672063179,-206.79899190511236,-142.76199427068275,-125.28299560732953,-104.4009833584179,-64.80996584622422,-41.3381165464507,-29.50611999738973,-21.21402136006528,-18.874687025690285,-12.274511600415082,-2.0912612191000655,1.8114472301377411,-0.7714332622643525,-8.898787962571252,-15.320252182816752,-9.664483032200494,2.383674964394454,16.363564807970626,33.63147002966732,37.46170391961517,22.1966331235517,15.941449251530317,30.043894914012327,44.945831255194946,49.324220799712656,41.88040208119436,24.69043126441112,7.1785512177336965,-11.671985335914712,-36.377161350534614,-52.897790468707576,-53.26227026802314,-49.221409292215846,-44.07491191021958,-31.862278945539074,-16.47504041781255,-6.953854807886692,-5.704743094594132,-5.570702910079934,-0.29537451310036467,4.931156642716422,7.216442862800035,11.194092831841106,11.067509913101262,0.4250871381843506,-9.049664670161109,-8.437978409996195,-5.534851010872568,-6.094106308059304,-8.284931180538143,-10.210991674005644,-9.997752096125796,-8.999134213200687,-9.249145992364792,-6.455593347061775,-0.6383421627820383,0.4910228034745785,-1.66474252451283,-0.07215254632129486,1.486479434982492,-4.468427486679538,-15.184044444259062,-19.15135667253577,-11.273804447397119,-3.0147549349039657,-2.1190717065762,0.5739865256216792,1.533494303945771,-18.05209092593326,-50.73980321697004,-73.66093105363646,-95.14784370068274,-129.80679562263913,-157.6550260262937,-167.16440106177046,-173.6145318730955,-156.8061460187944,-71.89950106063051,123.20805585267365,486.1027260783306,880.2161988889625,868.13062841144,320.3810742258976,-211.79813484601823,-305.8808698147146,-223.43295681605406,-235.4600184975395,-225.9135024079171,-148.6198434050875,-119.59728981070418,-121.6139999025711,-86.29439684558653,-47.28395676977771,-35.24013143131704,-31.709960805152438,-26.440760643532844,-19.270757289993995,-14.05734030025706,-15.862309041720707,-16.590535738564935,-12.506062417783703,-11.674689305328037,-10.379515872118823,-1.5470553995034155,8.218483685932608,15.404044572714572,24.312972961789114,33.61420427077891,38.23207649605607,35.19180697531872,30.002127914415567,33.670548903334414,37.97930604036169,25.116427842313797,4.46765523011422,-8.200471175395244,-19.364523247374066,-31.45529219185153,-37.35776328044235,-38.664089450409804,-34.61648797205012,-25.025798965683627,-19.08005396114581,-14.12393526999831,-3.943967357120796,0.26463187360486806,-3.2516145797604885,-0.3757922170350225,6.75628393528892,6.497791640939916,0.6744045743527494,-2.5439661712841133,-0.1985036474721813,2.388537810866991,-0.5133528216015826,-4.208069425100593,-4.17487787233971,-3.7590928953371527,-3.510655734324594,-2.0583711609043824,-0.032608207614240214,1.4752742556660419,-2.5647273631041667,-10.337220754312256,-9.624133714987124,-2.48002752435287,-1.1522900068706274,-3.328005085680619,-4.740387231619614,-9.727514540788505,-15.058385318140601,-13.453638648694522,-9.046574056919802,-9.096100840802109,-7.79582312380138,3.3268963895563815,11.737791404215669,-1.3085675261351213,-31.093438961218144,-68.42849154849554,-116.4563157604216,-159.61444035568178,-173.07335358670224,-173.5240261533295,-182.23364774130505,-163.99641235191285,-78.66359055552041,114.15432833964545,485.60386947374815,884.0501454795325,853.3146225360597,296.2665560758726,-213.96447562868673,-294.40565858280655,-225.1039632358819,-244.98188440000598,-234.679876993609,-166.07225524334388,-136.2741956018378,-117.75595841542085,-73.81781952367429,-45.797419245824315,-35.38390702137244,-21.11142178543107,-13.723723691821569,-11.860763771146786,-5.53057635606535,-3.619482520228697,-8.499150278273486,-12.099196054695959,-12.482087032022196,-7.714823124073201,1.6402642619812298,8.027654976965202,11.263532832239509,17.793090095718092,26.288698400098657,32.003765028919155,35.76711674753207,40.641160143344,45.57812663803942,42.39057878995058,26.16271709416649,8.356449412117655,-0.99831223656874,-12.6661064276204,-32.59057089623461,-44.96588658399508,-42.72885688170509,-35.68318781234856,-26.36006012362727,-16.847775291959497,-16.202096818125227,-17.658094349761576,-8.565545440176004,1.5847020500414288,2.7752152370262912,3.308417916426299,5.303511229439058,3.047042373930246,1.9485668106708065,5.965499527851287,9.429151156488945,11.827615760864596,11.885793245444404,1.8701456072686398,-11.297978061593458,-10.144922110263394,2.342179434223672,6.735050517757099,-4.255593076429815,-19.061649313959904,-22.34643798836718,-14.175979538017835,-8.188008145963401,-8.284287602128149,-8.813475522552949,-12.043449998877112,-19.857454460263586,-25.694365132745062,-26.525944310608494,-23.31825504667797,-17.006885649805184,-11.264030773520986,-6.279544935510678,0.11759883465467524,0.9934465076508321,-14.33211704384189,-44.59509586254123,-74.48593670616712,-96.68271789694553,-122.1737124753146,-148.3526620207163,-161.7964100591471,-170.4753551266043,-163.35741404360246,-94.42221693214037,84.37314821551391,433.1667190760891,845.2036240021008,896.7004517230159,396.90222748593294,-153.08474741308123,-289.01541910858714,-221.4860243402253,-235.43482090942095,-240.96475782107495,-176.93842818890985,-133.75687108526392,-109.9286328783064,-75.39830315761775,-57.169417697241805,-46.58407570809594,-26.475856065127587,-15.156386569602724,-9.627276167641476,-0.6618006073449862,-4.095562761599041,-15.61263186308204,-13.942931461736155,-5.680553278400431,-4.944255312134153,-4.258653639106505,3.518538509022548,11.936007935153269,18.374010361655138,26.367202369792643,33.50592539373798,36.90509239234348,40.75970828812999,44.190933220154974,37.27036468608323,19.976677799467375,4.758843670412704,-6.151950679153373,-20.60804839625432,-34.33782632738908,-37.079751886920505,-31.71159150268,-24.97370727806765,-17.68319337899717,-13.363790290535231,-14.366422493350935,-13.42902300740555,-5.180416307845169,4.297110014439731,5.91434021347472,0.12571241840177372,-1.5808249415406905,6.809110868636193,15.004584732652749,12.10320682228921,-1.4079983550367636,-18.786228681327074,-28.763443497477574,-25.209168228851958,-18.79202190989437,-18.111294377175078,-15.890654968831846,-11.278348410970455,-13.031236823904528,-16.006891290400745,-10.93001743732322,-5.386694987169204,-6.2440371817798574,-6.397824511002581,-2.5162429212193835,1.5142110600690728,3.5369828804720562,0.5859485473839179,-5.965896921278656,-10.125414709191276,-13.500626895279172,-15.28837366376601,-10.021734883849888,-6.957865336136983,-10.297047134042524,-5.397055865188904,0.33703429938992713,-16.878173732530875,-47.970290867295596,-72.4199173999629,-96.98037125075119,-127.64435908789855,-150.32346478135153,-162.05325415569206,-169.4555837347792,-154.11915844913773,-82.69714467020142,103.49336314405821,476.98003502006196,880.6783935715503,872.7544784284095,344.3288203672595,-170.05846417973046,-276.5225277692829,-216.12216120147505,-237.52320035126797,-241.81497238699387,-182.2126257503346,-144.91371465352572,-120.68230248845177,-80.25514059087395,-54.17697076463463,-38.25795661407086,-17.15654795260495,-10.036049394091553,-13.49939446519399,-8.933612723077506,-4.350925912864788,-6.6828762946734805,-9.0347504431802,-9.783717806716668,-8.061349632754268,-1.8274865007855219,5.4151562749742626,11.737888035189433,19.508094153401075,28.438157842983188,34.78692006581984,38.44397316112652,44.140002837268376,46.506884663859026,32.84914743364103,12.709804758578752,5.053927214403122,-0.30193465868989744,-18.183149268818852,-35.261021674631536,-38.24436095374516,-31.017320850868586,-20.36150330408502,-14.752051377182704,-15.346111659852248,-12.198839762442105,-7.237010194065956,-7.990164409587777,-8.576032834523275,-8.793822756744406,-14.8458561660187,-17.462027932805626,-10.617556591797733,-5.847510076801221,-6.589059547109926,-4.9819143711496565,-2.1611187348512253,-3.8261786090803795,-7.024084696733414,-6.398728294890784,-4.367216367094935,-5.069109801342657,-6.384356572274896,-6.487385544170607,-5.858875696834367,-3.1309816869240894,-1.4571762457212092,-3.6307476090052404,-2.8147781679164297,0.975073007535503,0.6024998982495333,2.533386059199895,9.23720072277717,4.799365446034162,-13.946948015287806,-29.668781239654706,-29.890504076949657,-17.366907491045165,-7.14495443634544,-6.145857667181273,-1.264673479125447,4.975240441403802,-12.174758369891368,-47.56024050598532,-72.85935214169587,-94.11266640367376,-128.1517799431123,-152.5601894674276,-154.24943993314582,-159.74895090543168,-155.79937613826525,-84.7708842503627,95.35910881283135,431.435534944386,825.9612058788231,880.3397297804063,396.7655382359462,-153.88236783410233,-299.3265436985663,-225.2253276978625,-227.53984937013172,-230.33760554040427,-167.0414338628749,-131.38948336349478,-115.96036412712687,-70.47088097469565,-36.10146648349581,-28.159628313225216,-11.622947874608457,3.7060232888675735,-5.655010313463908,-20.58749215589021,-19.910782519470374,-13.304442497588344,-12.959432797253015,-15.092046227046058,-16.170726495208402,-15.484461798309004,-5.497861705377327,13.678011023794541,27.11972330348538,29.810453928863595,32.34112732181285,37.23336994986613,39.234070689032485,41.14046753052243,42.34056650883554,33.227965044482026,16.508567299578267,2.9119182367592638,-8.547121677779899,-20.362064139887735,-30.83763850160176,-40.064759570764195,-41.27468418200495,-31.552104735796764,-22.761118851453652,-15.422870876375837,-3.936486330475887,-2.3773528671644115,-13.182168148063543,-14.901722646832997,-5.687161589808532,0.6435486388582667,3.0061686489786137,-0.1645227879152351,-8.76298962755261,-10.041397026251978,-3.8405103939317655,-3.1971463381722334,-6.902328326193961,-9.144340311133842,-12.900302612958633,-15.464576786302121,-9.853391136822422,-0.40160030104961564,1.3198891347074735,-6.325930527429895,-10.164207095288486,-2.7965029952529132,3.9472097959644747,2.9024308475249523,2.031218541357223,0.6736790515739663,-6.316929905664072,-10.627311138739888,-9.255180567483038,-10.0316758760342,-9.759719545301056,-5.026449429909309,-4.372546639572441,-4.957778919172339,2.327479359083889,1.8386861625994388,-25.264852948847356,-61.049741604854546,-82.71645826840148,-106.97372103622662,-142.12904114089392,-157.6704572598448,-156.73942422387927,-160.6001446430439,-122.66107281988806,15.927604720729235,293.91294417020777,700.0241647922778,934.8277040661021,613.2890321895621,-19.045723728034453,-320.70552308520377,-251.37793497625262,-215.16537331573085,-247.24082624958766,-196.17558705811794,-138.80215863737018,-128.05956769452388,-91.67304638036796,-46.020607617486476,-35.28107355560328,-27.311757754392225,-8.946190879218399,-2.2257025723296096,-2.4128026767731967,3.4145433570990207,6.381625549352453,-6.027384532031554,-22.860680795450712,-20.93102650666339,-4.58137326202878,4.188991247104087,7.109186998304562,15.005050987110241,22.790032149038502,28.785242270853914,37.564297824770925,43.97010568844923,44.707272809073494,41.68634753245216,30.675380636345906,14.002750074520833,0.11630251648188761,-16.175946856171073,-36.07438558944703,-44.55227860137329,-42.07471446741334,-41.7262550164031,-37.50420303475509,-23.639373373223346,-15.041838350351334,-17.045234344133092,-15.416966079255078,-5.469029453316065,3.299969223308876,6.052031711156268,4.2830011928389755,-0.3032872617140967,-2.0938590428156303,2.9956759855820216,5.8664943366614,-0.07043647791632246,-4.114810454088975,-3.4284155225701873,-8.767006506571068,-13.626383611611683,-7.378651596116871,-2.5328402555880007,-5.81962478740785,-5.82529881242268,-2.226859443760679,0.07496834763817439,2.811803953291154,-0.7478941762901243,-12.134428215102536,-15.968238348614731,-10.331421991057683,-8.87973938912527,-13.679693629216395,-19.74976873388119,-23.319069737268187,-18.777588755030507,-10.055346479385364,-5.493953754578925,0.27590761013605913,8.706824832674053,1.8790046714674702,-27.471492754954678,-58.10355971398731,-76.39084388710032,-99.96433751664748,-135.73904530165137,-162.45074070644228,-179.64819883997393,-190.30766775811585,-152.55796267292732,-22.014871021127192,255.7349403888367,692.5474864953297,985.915786012303,717.3957570719342,81.0864996370992,-284.34701731417107,-267.3400880935832,-236.28822215232117,-266.00221528270777,-218.94700330844512,-153.16659601654447,-135.0303960688334,-104.49230290452975,-61.689754399729495,-46.082916263678385,-33.88138784872999,-14.000721922456794,-7.233407967603064,-6.49883508700221,-1.8764846664635613,-0.6339825871467433,-0.388200296073844,0.22493167687555982,-2.464429902753462,0.5425497455271611,8.019405064253725,6.691490160789048,7.774690661475514,22.864997508026107,33.86107088561901,31.76472864556468,27.259094230768,23.132743697606912,20.98423313051303,20.012423875421547,9.034159618125994,-7.794681343250437,-15.497883759050818,-18.542429393225767,-25.22622543283599,-29.89978058654219,-28.179282371425117,-22.28560929173103,-14.729770923272834,-6.636724117524539,-1.5443258692752089,-7.570883590101722,-19.957321564851764,-19.875190826314448,-9.143259797123115,-5.563711447053379,-7.2122278261299115,-6.4193408308860445,-7.271357834699936,-6.943936002054812,-1.0607737948174218,3.0992038057998332,2.626886302963136,1.743792140446061,2.9172128674715943,7.668434931026081,7.776109063161956,-6.543002613971851,-22.04162446046918,-22.590565284444097,-16.007340480271267,-12.323733475536812,-9.81267156404818,-7.105146281960696,-4.644368517509978,-5.3576440595825225,-10.818207885847979,-13.940265347334524,-14.34154297166485,-18.318016711332003,-18.705289733060603,-11.703819689358856,-6.7482187075922155,-0.4815358483453558,9.025561887240098,-0.8133999732648931,-37.0624969814467,-70.95298610340356,-90.0534460370944,-115.98608508505697,-149.76505885735236,-167.3592368601023,-172.26562647881323,-168.76360899173486,-115.54110792381266,49.55501852854459,390.2858958237638,823.7372480190534,955.6471233313675,519.5597441879308,-79.52737366336783,-303.7045206370173,-250.48353947440773,-246.03883805075264,-259.8600078986405,-198.5362764519992,-145.63052474275935,-124.86794036153147,-87.35493044356102,-53.170396653681394,-41.42959028602911,-29.66033112242466,-15.387387862290058,-5.936353059831045,-0.4553810177654576,-2.2123282978628396,-5.762421761369811,-3.6400372928241502,-1.4508587736796272,1.6775056115987343,9.604703961223068,12.624647480195655,11.293180232052155,18.39181057552926,30.295070917967813,39.21693114783838,44.4485669089039,37.44105896342123,20.732230074783764,13.484806819973787,13.555200496646282,5.6196228568545425,-9.025134802162592,-26.94945716993295,-44.525207740256796,-49.704301915721615,-43.207054237720314,-35.12087242002074,-26.521431677704086,-21.098688187969458,-21.240036724658218,-17.47808252867589,-9.521978140060234,-6.092845774378723,-4.905388042204089,-2.745782609379363,-2.0363214608810836,-1.4737271637198468,-0.38141817813897383,1.066401812184063,2.920643619814175,-1.6782112430321021,-11.436980907992961,-11.42972400422273,-3.367447916300234,-1.7865515691459315,-4.448640090306885,-6.17800242979648,-10.008599148745846,-9.45289859646579,-0.15374654215351669,6.177192800663182,3.556244772748018,-1.3415593563296166,-4.174823399261832,-5.68356232777521,-7.713071050439817,-10.176545336078917,-14.434244557185576,-23.584594865243847,-27.130850259089296,-14.26939859850767,-1.794136299441078,-1.9292039037966795,1.233857069187593,4.805801284144962,-15.147219924013092,-49.69350611491565,-73.69275473115752,-95.85264764795723,-130.22108564139995,-157.56318842913163,-167.35263283423987,-174.20984009074562,-157.97002931354837,-67.8389664273496,150.75673735819845,540.3596408711198,915.6635267599511,842.1296988247619,273.3905972555224,-213.96196524308357,-280.48956303764214,-220.41338332876603,-246.00585115308544,-229.4735273105513,-156.4815556487822,-128.53278212304588,-118.64422234444001,-87.48972399548094,-63.19436295942194,-44.226662439272125,-20.868296464002743,-10.607742696999349,-10.217442887557137,-4.111623551981086,1.8130468393294024,1.7674509311130393,3.8430519206275484,6.3744869176159185,-1.3589330934590294,-9.915477883697562,-3.077072821954131,7.799714965146373,8.741499569638181,11.128401541881619,20.52566331679954,25.626793401468056,27.201641453817324,32.993512269029026,35.58360858888151,24.217917714268477,3.2210716844937473,-14.898626708950072,-25.125453135330837,-30.20389821277241,-30.822571238072562,-27.32378256373172,-26.037409016045338,-29.85289571830472,-30.46897281691372,-22.98875153380964,-14.786463043222955,-10.261993220692524,-6.007503090913813,-2.772360206382224,-1.7826554539758597,-0.14997458242030426,-0.5105092462736369,-4.147674627698882,-3.81236292901597,-0.9386169213075046,-3.23828156424055,-6.529606875863715,-6.552550425627471,-7.8193054550607926,-10.518198780535489,-11.310012415187341,-8.398120400635875,-2.764031606715296,-2.379744371157262,-6.480256568231177,-2.676078037647942,3.4202414282115967,1.5793116283566615,3.1512400246519103,5.916761995969079,-5.333091003576204,-13.430723151735036,-6.265608965662155,-7.148157302129544,-13.361827183949362,-4.635128332450133,-1.6957963077920724,-14.95946702473601,-13.93531527593774,-5.118903494158372,-26.056991641649457,-62.708543508155216,-82.27368741730811,-100.8450754239016,-131.70261162667202,-147.06368417156997,-147.16361620756422,-153.94139636994183,-127.34776570738191,4.179473526190037,290.9006266674256,693.32933470357,901.866922401261,573.9059465569201,-34.35760769775257,-318.07242830737306,-244.86492305124918,-205.28879500966607,-237.9668739181427,-190.5306752206299,-131.44214627441744,-118.57979095253143,-86.48163909611311,-45.23902714135703,-30.570377899114106,-18.584892816977867,-10.31658712374141,-16.433157996422857,-14.84278156745033,-6.478067825060396,-9.757464870608914,-15.687170742819077,-11.450863086145471,-2.333074648173417,3.258798211902839,6.659163343277113,16.622081858841366,30.869077787827887,36.56900598052962,35.692206246222725,39.15048293150983,45.82696129396742,50.72488557758185,49.96985269522549,37.16783034319049,14.952921504768627,-6.086818424768627,-22.416344494978553,-35.91826548438856,-46.992837606559476,-52.132591482928454,-45.747379626031325,-32.78376449586122,-25.022585404492727,-20.077401530725012,-10.03218665626949,0.06604707046664338,4.779685504011184,5.790441260431604,3.1213656169236863,1.745253505698205,7.676786110767662,9.393365366359063,-2.9665256046949544,-14.917933444375091,-16.24711284746764,-16.184760614667944,-16.30553300906737,-12.126131173337974,-9.970099933964644,-10.98289118122336,-8.320653107435788,-4.976051521187424,-4.121893788315585,0.41559513559053585,8.771173943432606,11.753607736812919,3.7183565235298985,-9.357603559437258,-14.793099076159823,-10.78650517755705,-8.620134744060309,-14.842978779378832,-25.36734338801905,-28.917625501448377,-18.00122304166623,-5.85726801123587,-5.789781968098993,-3.94944219314376,5.576906865401112,-3.958410748790838,-41.38618446767006,-74.45866197492055,-89.61484026248195,-114.49544708428247,-151.9516933956468,-170.5335024959724,-170.9571657088851,-160.9626570878081,-100.02066277527854,71.81012694673092,412.9893168795245,832.1456350223358,925.9399458892578,451.235999785907,-136.78288906683844,-309.66245756757417,-232.76825340052977,-239.30761172266665,-249.65356338199496,-175.07394461083254,-130.7299362989907,-122.85994698567669,-83.34614324943865,-48.423405516311846,-40.90141067293932,-25.187060555068733,-5.290821180854344,-1.8968038587784335,-6.254178742811746,-6.649465308288168,-2.7313925435190924,-1.6818487235421102,-6.967365993200907,-8.958052380708716,-3.492800925617086,5.626697691745703,22.095949877754236,37.573048170705405,32.01467519746666,16.877886576066977,19.096046126847664,31.269777527493478,35.658329276526615,35.39651180739422,28.664041995668434,8.716612524864725,-13.189521162309203,-27.299312902221537,-35.74334496455984,-36.68139471302294,-34.25022134591493,-37.1261465908696,-36.80668073124208,-26.44871356657731,-16.13164642057406,-8.988799358874594,-3.832408472290828,-5.600732072847773,-7.158835181095551,-0.17820572835214143,5.8160370989851415,5.6687649919512335,3.9030699404313722,-0.3021437878519837,-4.459950719406919,-4.304801762490705,-1.1888030453290952,4.910802206674026,3.5896890456617,-16.09982949969255,-30.81939265376514,-20.668660830735476,-9.263320540086395,-9.753866965910184,-7.042664731093076,-5.234284050797957,-9.936649465056366,-4.879321979414188,5.841567671295586,2.038789399579958,-9.584302728783264,-17.31224082240073,-25.062313412326418,-25.424954434546926,-11.680615312017043,-2.1783458435473833,-4.53273650457867,-1.9857454582592258,1.8732126383340972,-15.110304162056165,-47.14335858209263,-72.17378294722238,-96.19162076452153,-131.09330162423933,-156.75868716957356,-164.6812223657476,-173.77091492773712,-157.58004137242503,-56.09826248500166,179.03735271826375,579.6597850967795,952.3128110101346,853.8522428655633,250.7895076607195,-253.0757205282444,-320.0246746993597,-258.8853413134657,-275.75928143838405,-246.64853934869274,-174.77581563839362,-148.6635273731334,-122.77844881449315,-76.91808298235686,-54.199299415773055,-37.87179835116461,-14.677844833698927,-9.895802696479475,-11.868127184764049,-2.4180180261007465,2.769701728901193,-0.6355157876324711,-2.8009500541314765,-4.902435031763861,-4.546910839749707,2.303166984943262,8.98203281255725,15.208359248501004,26.07318363045397,33.18822947990036,29.566794663152557,25.9236173820252,31.776842714815707,39.09772790095924,33.20935914937491,12.628882039309836,-8.603101394999186,-21.472198303358347,-29.938176203350466,-35.52402333440514,-36.456665523771676,-36.49841855101367,-35.911194959942875,-28.668516959246205,-17.35888907576654,-12.649364728840908,-14.830220985988436,-13.00401594569057,-5.7769137208475065,-2.6574135894391393,-3.141426887546274,-0.47610798695322387,1.2407637135978824,-1.7147022043234905,-3.3771573050001873,-1.0578515993464706,1.3676364503021112,-0.12852449365152374,-4.349390928423707,-4.902102867763734,-4.701023652239385,-10.740488750628852,-13.08440281299657,-6.216751759625266,-3.5000912529633066,-4.371229903243112,-0.048701606994763225,1.8520135696336286,2.3180504750130204,7.41166453505091,1.486315350125107,-17.43268355442391,-26.120767433277067,-22.67094098285753,-19.92065295136573,-17.4183249458609,-14.91494385585009,-10.65254053580757,1.3645917833130774,7.830499125673347,-11.498217155791785,-48.97750279999467,-79.86188685030909,-100.84471842228616,-127.92163062746027,-156.19480899973382,-171.0594727732388,-178.38108799570315,-161.84388661510144,-71.35199190793762,150.91404056146297,548.7208858935535,936.0316496321901,866.1761573817092,284.23345202391164,-218.166906534592,-289.4696396976368,-230.4264639168519,-256.5514710080377,-239.94146376910305,-169.15700238314284,-138.9407601166124,-116.37416409952692,-74.29225176677461,-50.70149486027057,-35.11607466106399,-10.900707486177517,-0.6008670953274375,-1.022616630431287,5.394914643955982,4.080125518359775,-12.812458370761277,-22.886006045210678,-17.764123299385243,-11.273717792347117,-5.373471449891941,3.947580377349863,10.278909273091005,14.72098520834935,24.910650653242676,33.8009951300393,32.76473679898525,29.90451883727777,33.96083367242073,37.23311858977585,26.949065615105305,6.504968753775308,-9.223804111730443,-19.252037789564145,-32.170551694891074,-41.43990860160956,-37.958956984654975,-30.263301270091546,-24.479732512025873,-16.31226091055433,-12.630393372617533,-18.90401653920694,-19.819154137337065,-10.190171175424176,-7.08372583656055,-11.608027668501393,-8.736638613159945,-1.5476322742640178,-1.4108202201143456,-4.882169064940523,-6.190909190080784,-7.2381124256712255,-7.825066246835743,-5.635929894094833,-3.1596433035283233,-3.833986861744904,-6.510983775080916,-8.38010701521106,-8.277586202293573,-5.5581194142284325,-1.604954629815941,-1.2319988585563344,-5.505000751331082,-7.952748325936444,-4.232185562706654,1.306790504903793,1.609163371371558,-5.671716827403664,-16.1382278275262,-22.71970011895373,-21.65873268040276,-13.72533601031552,-4.589755834442482,-1.916219188288558,-3.642729666650384,-2.092490064625519,-6.621887414657543,-31.402432100748246,-63.19431573956918,-87.87232712270507,-118.78801513020154,-151.26036358029566,-161.44797390640866,-161.1824441498248,-155.06964490803642,-99.725252449909,56.37347627565447,381.5826047617589,813.6310998633352,951.5323343288305,512.0890131951353,-90.21880462521952,-311.4598723860301,-258.2176899509749,-252.40580721705425,-260.316667361937,-200.64803675657183,-155.2327517335238,-135.10748550468836,-94.7307440171679,-58.32848550590982,-38.33764888279088,-18.026139607640353,-7.553959693579095,-6.263561969635745,-1.1678571422377857,-4.220892536884371,-15.540943140567862,-15.004137429361464,-9.233879961180499,-12.195239365146398,-10.678425454397338,2.1097138018297246,13.200797843196717,20.712889862299498,28.354570482674603,30.382963662818746,28.941928496523012,33.279397099136936,40.65374287491615,41.563514769208304,31.693695663567695,14.524870014509673,-0.22235585040368555,-9.299731701154169,-20.8730272472783,-38.114086762912585,-51.34770274438775,-50.37217866075273,-38.064071935394374,-27.552689723693938,-22.80589966366462,-16.557290709654964,-9.242185374855886,-5.479055474296288,-2.7103450536682807,-0.5457380148648614,0.41116995810845935,1.9456346153683963,-1.666512611006869,-8.392251463149563,-3.8240641993403415,3.6707218473189904,-3.0664291648400575,-9.874792072646613,-5.384657776339722,-5.6086163144009795,-11.086014136224609,-7.01682589771414,-0.021033136944154762,-2.2680797225467533,-8.757077468234566,-10.907646225157606,-6.135398562491641,2.921934567030883,10.368111717130999,13.692456785185758,11.192496231168468,0.6366687226838117,-9.217476682682857,-8.584423342462216,-7.747536846771617,-17.206329119356255,-25.045064532848247,-22.158292123161466,-15.338883939376984,-5.537666613787382,1.181132223062665,-17.50391290745417,-53.89314319170744,-72.60881587815572,-86.2780503244083,-128.06599085175446,-166.51120519537415,-169.14266466135487,-162.90620547344128,-139.96158474722665,-36.32608607290484,206.6801971996102,596.6728609913166,899.5552636810163,712.2611266163617,112.44611472393417,-286.72379541302644,-266.61845214907515,-195.54675238722405,-228.71459976084543,-206.78468069789207,-140.05934093499002,-116.60143022701914,-93.6066712152782,-59.42991765321777,-49.33137473910133,-38.90900224173781,-18.55808625594305,-13.260675333175719,-12.19835603606078,-5.038291281546936,-8.299338837083518,-16.816409415628037,-13.269340914236963,-5.121768807087957,-2.733835036507582,2.227349896345297,15.58002552774163,29.501110640526427,39.02529355456346,44.71010497893886,44.59784773928395,42.92266792408853,47.79891002049495,52.36070527357505,44.5946318770262,27.40312282623868,7.668629871044017,-14.686038709908178,-37.65595803071635,-53.39539506464969,-54.94489312433268,-45.78051317542297,-37.72792959013116,-32.51224839006558,-24.3081510694029,-17.752781462139062,-14.78295834447545,-6.928881937872539,1.6010952663513578,1.9564001163271278,2.397211182371624,8.713976469701358,13.657212419277274,13.466256574122742,6.396050336520281,-6.930801555894526,-15.302818200694457,-11.759543614846466,-3.9067178110923333,-3.4717288000036213,-13.790573199089383,-20.713273254831385,-12.917308101507736,-4.442739461254673,-2.8715083264972794,1.5017391847676471,-1.600985099713487,-18.214430614489153,-20.622625143230966,-5.1064302658054235,-1.5176232373997713,-8.7592544523243,-9.07660471797368,-10.810726777384872,-17.221212977594206,-14.41292843516118,-6.276951925560915,-6.449784942515095,-8.99032866794433,-3.8170693877590267,-4.8225277692694135,-31.55821042065902,-69.90382915607879,-94.96883887925638,-117.65055046010164,-147.8941786760843,-166.09740554577087,-174.16279656561758,-175.3353906674629,-126.59019041006195,19.428372053822102,324.16395468975134,767.2820148945176,988.2131483272864,617.9767588443021,-22.301875219007854,-307.9403206399238,-250.4889076914804,-228.02343131525197,-253.1171092581581,-199.59804497340093,-144.85557215498739,-129.48990510876433,-93.65338429990966,-54.50264424635181,-41.78962918274174,-27.579237305314162,-9.204692700974903,-5.615578183183601,-9.668991254869969,-11.4907849729167,-10.76124665825434,-8.661550691732259,-10.325343457859969,-12.198992729032003,-3.859811185749674,7.684356042444984,12.297316130144733,18.941182576399264,28.844673024870957,29.276355834096094,27.968341141408494,38.633266664396636,49.69671549547658,48.481652110190005,37.201751007361636,18.664922269530692,-0.3465845685230313,-12.599849773734556,-21.79653418026222,-32.44417334389702,-45.90909042056461,-57.38844364456605,-51.45790464860515,-31.336945569422014,-21.187355225896518,-20.151051584321024,-13.184021633926115,-7.1809046051293635,-4.879892896019324,1.603466122426564,1.6535832502163288,-8.82468773926453,-11.169633632981927,-5.0051295673151195,-4.210032201987577,-3.3865444815908425,0.20870132472474268,-4.189738673060825,-10.981823408697597,-8.050697217787668,-1.74441719743497,-0.48163955108097767,-2.993716696223016,-7.120052035775419,-9.203133071486288,-6.927976361058914,-3.08459576199915,2.3035120147873123,6.755329141750863,1.2964156343493372,-9.428226922923553,-12.399784559874131,-14.01060424004833,-20.71177900687224,-18.200859573529694,-7.092620950164111,-5.52494827544591,-5.259013710083865,6.95013463650498,7.27846257890605,-24.00930896997786,-63.967667897362034,-92.40292835597124,-121.98685409147403,-154.09896579381143,-169.74138303632978,-176.66471316446015,-180.97448314790654,-137.43697080444468,13.014647620598652,330.2021346327383,773.7643612874044,988.3892072711578,627.7023959089753,0.15670982092337482,-293.34270791975246,-251.07957238754773,-231.53692201844328,-253.71423828336395,-198.10947046657174,-140.2487950708877,-126.89008630377023,-98.34104607767277,-60.84647545706822,-49.17575082673419,-44.967216053735996,-32.32398424229764,-20.52731096853482,-13.909237751785145,-9.649525824886432,-6.770430272026058,-4.071572520978034,1.434277143353519,8.863487251996496,14.969301538704507,17.30600751748784,11.837136059108097,5.4946659740409505,12.122614193552948,24.152306173865924,30.13295250050237,35.98520882207031,36.01830987300494,22.243367767609733,11.84410767281943,10.191301899362983,-0.5746865006354849,-21.69629744946462,-40.34698425613758,-47.901973253384476,-41.642001739951205,-34.20976551817577,-34.950042203501106,-29.977060226698526,-17.0464239184914,-14.709708838617225,-19.30593868439646,-10.924240642750036,4.2867836755132345,5.714546587964637,-3.929330497002642,-6.124678124707,1.0344813645011968,5.123265512943549,3.5687018427316115,0.7960375851868751,-3.9674514353299593,-9.375407453625222,-10.85319072252533,-8.336357917817462,-3.960680272055777,-2.5727589657427252,-8.292915776014988,-12.54197098190691,-6.850584782899055,1.2572597998087822,5.169409739340351,5.379454417535067,-1.3344295085186353,-10.581825668022436,-12.189509705561399,-10.746936832099749,-11.409841148810475,-8.860598042066776,-6.884886148157232,-8.300043490492214,-2.5307446275677528,5.212244264586407,-6.806107174633368,-40.06994212317626,-73.3978432466148,-94.70951058770837,-116.29157533848334,-144.4293956230841,-162.02033228335944,-168.12487715500149,-164.39964727103734,-106.44149024034377,60.5527955076534,380.2187018668245,788.8689674483767,927.7183373757948,502.1999014777108,-105.81153070382186,-313.4038005187954,-221.21638282311358,-217.20541227991032,-257.0810366287087,-198.76370336719177,-143.44064440202106,-133.1065492315456,-96.97282044990334,-52.83025421827254,-35.32877016426923,-24.39969107482496,-16.81148577098416,-14.4891925920749,-6.780482650618019,-2.6685931584795206,-7.852798109818021,-8.958488401656783,-4.833930698427359,-3.6338651782901064,-0.6874989959356936,11.254720474876654,26.62917927503085,36.4525108034928,41.59353932402985,44.85136942447362,45.15658950209017,46.30665995643884,48.39830868951574,42.8028937899823,32.53742533773653,22.712626961879455,1.6250478005357323,-27.840310094687588,-42.75842640221152,-44.562553606059794,-48.723383720183406,-49.824770088658894,-42.966101587486136,-35.39765899994299,-26.473378437660873,-15.597070507725093,-8.003136200321274,-1.0216071137742535,6.554432489727757,9.704019979475948,12.019998400984854,16.8991465546912,17.551018016610158,10.250020551378661,-2.2241422421262556,-13.016014071159955,-14.099509412685912,-10.122045844490605,-9.76585917843783,-8.317670322653345,-3.8147033991890584,-2.0760696351787313,-1.2512617815904523,-2.188332672457838,-9.048590621785031,-11.670111015544595,-3.0226302665012312,4.437100132316104,0.941926059915053,-7.054681339026608,-10.323784180923028,-11.38591315818256,-15.584457371336558,-14.430908701995389,-4.8077150199763,1.0505469808650112,5.896150330581599,11.212524898599503,-9.059370423915908,-53.46206524406007,-82.4557279256523,-96.86710274816252,-127.4520953382403,-161.21634362488876,-175.43596640111548,-186.1050166116111,-187.69109143395715,-129.14973690198002,44.797737485300104,399.8554027584148,859.528725306243,1009.221157702804,552.9782812493398,-86.35642581716539,-323.2252380592057,-259.230805048244,-256.436652594934,-274.7891616859199,-204.64117111723098,-150.04487450672474,-135.1862533737933,-91.60265720173399,-49.72462782182815,-37.26409352385208,-20.04766533123579,-3.2935529253401796,-3.588743726615707,-2.8047883403231992,0.4240329000897205,-3.6736193606112835,-3.266059129632584,2.8388103862924314,0.2687304384014375,-3.52788282070928,4.977795107839949,14.310042286316245,16.754365558085336,26.64222233176624,42.78971335747818,45.168170251757275,35.09444361672075,28.63695415843077,25.790709638160664,19.895607957376303,11.18395737641999,-0.0035139811378410712,-13.013846086277997,-24.83930392323104,-33.39701261040109,-36.907744125641116,-36.11701404806551,-34.05866159087033,-29.518575257144434,-21.86186388766429,-15.434546730612215,-10.925930784728106,-7.636581527791066,-8.041922454095445,-7.1290103881126115,1.42478523845611,8.425402934871347,4.567917811248265,-1.6857238388627405,-1.163739777294623,1.57622965431195,2.1255424931535476,5.487259601982612,10.419123815362983,3.225061413741349,-15.221412563804193,-21.73367491429039,-10.622966913710465,-4.313675463788263,-9.6680066520333,-9.937577329812786,-4.087293651015809,-4.844529502226312,-7.090006187960164,-5.509768471994953,-14.066656088669497,-28.901205025174896,-26.357194361057886,-12.866764111099494,-7.083055681047632,-1.4802219106874315,-2.1737070802590743,-31.51909029902055,-68.6431082487373,-84.74594168841192,-103.00622014701936,-138.36171449927085,-163.3785371800226,-172.45033403979227,-172.21291595850965,-131.78148745159808,-0.35056129470268615,294.07095214027834,727.8464073013569,958.153934169028,635.9481052000449,33.52579192308509,-270.9647057710662,-244.54337548445793,-223.25695392905624,-246.14216682549764,-203.9695643196539,-157.9856977391318,-143.5958426475181,-106.51283212704305,-66.61580035268462,-52.522517696364766,-33.83995279393567,-11.334088285367535,-5.336255528888479,-5.837222819876189,-7.810988192857586,-11.794987024434953,-9.505893753312503,-5.226153332977706,-3.600587332436586,0.2905343936923206,2.530356342710572,3.740079393424683,12.81874764157347,23.289115672926854,27.834042155340548,31.735048651842426,33.966931427689744,33.61821228662782,37.09443556628996,38.41492068568549,26.61743154784474,5.991395261357606,-12.815568518997328,-24.28849125905899,-28.573349251810473,-27.764582101560762,-22.479186166615484,-18.195671776764836,-19.658751550002563,-19.096370673650288,-12.333951484576627,-4.826491909517813,2.1554625287064706,0.331824178643771,-18.012737724753222,-30.910030102346774,-20.88992764991701,-8.584947261700655,-7.310282195059218,-5.316693259166634,-4.015195764062145,-10.552564931001964,-13.53276517171683,-6.097059587324836,0.8825486792347412,0.23126125135937237,-4.408068252717168,-7.461287098028027,-5.726247626482408,-0.7368191803812163,3.8253986832163953,4.7265088939995135,-1.317038561928328,-8.841745511554423,-7.775468690472103,-5.320538496231595,-11.564696568610216,-13.06384828277832,-0.6507319881700617,8.728907121404617,3.765365710885936,-11.295195283429118,-35.138456744565445,-60.79955045233592,-79.93964084907013,-106.13724119480172,-143.0879744934159,-161.89291678188155,-159.17156514883385,-155.09820498750136,-123.54003398065544,-15.019776042430735,224.0062407399843,609.534435156482,887.0471537448614,662.1439294890665,71.76471409490505,-281.5324490889452,-252.08238007114878,-200.19646776267194,-229.68497426466095,-198.67032360255558,-141.96815613141496,-123.5695335515555,-92.71418844641772,-53.77489244616808,-41.30811315997656,-30.34062742099686,-15.715794142923194,-12.096357249826053,-6.590884570308791,-1.6817863760303524,-7.090449371704199,-7.256115665804931,-1.7897532063938222,-3.651404501934488,-2.463736017903223,6.759734124005465,12.243744613126243,17.80195799647685,29.596791718206656,40.27810953640098,48.886255392025255,54.076784025757505,48.454112428278066,38.76661188446917,30.429288881314243,13.681465933657362,-8.28751431758267,-23.4390495448044,-34.336781399852065,-43.01538605871292,-45.522619069936866,-43.66300004114652,-37.86383841941131,-28.12408939230569,-18.180730711356425,-8.1895990224865,-1.3077427484445145,0.2058457604389794,5.506922124371041,11.419341709789858,4.863519665713357,-1.5571874853326735,6.253075696508804,12.437434977230557,5.311635696366491,-5.924657567444555,-13.28009166989401,-14.96268928999056,-15.181521884265472,-17.619359694569134,-15.133700866745574,-8.446891394535928,-8.616137572148396,-11.649201463911602,-10.43583044008929,-8.174715197677884,-2.215952804806127,4.641020767766218,0.16082641023112387,-9.108595291724605,-12.752406663444958,-17.643748632479415,-21.20331228680992,-14.890375777785675,-8.470590890360276,-6.384178779355974,-1.7239363660847342,-8.113340856399631,-39.36110113495316,-72.16246461391265,-88.5156211593006,-111.13013223026523,-142.8940694560878,-155.12359449332587,-156.73863398001984,-154.20213119238352,-90.56657868534882,93.47540360020614,431.16152408157046,821.1329899555922,882.0992795630223,399.3011106818047,-166.70390398354735,-310.58921146831426,-219.60492366054234,-223.90363574320122,-235.6435986179774,-165.3435070973427,-122.43004509182668,-110.35865098396036,-68.15188171806997,-35.36320818735287,-36.07895579875841,-34.58408100535849,-22.998857748787344,-15.25856562651613,-13.502028169328511,-14.162946963605364,-14.51037915528682,-15.157612557554032,-14.113753501124028,-8.915375131457973,-3.477842179735175,3.897296376726001,16.246988481229735,26.33147192771057,35.01557031900076,48.5091702811515,56.07743495961866,50.59508071749633,43.43127952470332,36.506024779948675,19.885525057467248,-3.3275362634045162,-21.592537505255336,-31.988966852491906,-37.288327122258835,-38.27840992989419,-35.183112042177456,-30.716561355706823,-27.43518991208761,-24.542764601317565,-20.509167278557307,-14.260812750995159,-4.877760124998243,3.10671525568889,3.228759785185373,-0.5127080987893713,-0.9228057956328506,-0.7030290114258069,-1.7891881114447088,-0.4889304600699056,-0.5910949792114568,-6.011362671163905,-8.757914891927328,-5.258715858959505,-3.297815423692091,-4.630453842237269,-4.482953614074361,-3.7816237479374486,-4.582744035129291,-2.2314034147668025,4.89194282495381,5.1758096345565825,-7.788711503070367,-19.110509088684537,-21.641820776444955,-27.347464594902892,-29.95529766493035,-16.179543615141554,-5.008895655780925,-10.357422714199743,-13.471568829510124,-13.843022159168703,-32.39401486169636,-61.842026731578436,-86.75985415403898,-116.78377772731837,-150.09644502536753,-168.039672059083,-176.39169444059704,-176.11297622112647,-129.30347163982756,18.02870911806221,341.0428888751432,795.8668504320297,1001.6962520903995,622.2552078201885,-9.278179298663488,-304.7361351434542,-272.3233337600849,-251.93504475365998,-261.84232362901173,-201.0091227613197,-145.09600253820895,-131.80444415120294,-105.82449765105062,-74.45231124710983,-56.50671949983602,-34.324581460830366,-19.01222208593097,-19.7262004682435,-14.16903491726789,-3.7316497922475413,-3.9435162841412463,-6.406053403782284,-6.473344903434956,-10.346795848897212,-10.552646011943935,-2.1115697209911826,5.572315527601981,10.714223600369476,18.054271159453776,23.989350386838062,26.579098020527,31.724226246853643,38.92803125464135,37.42928678002013,22.998656397061012,6.862821344824779,-1.8115364427809553,-8.718060492197123,-18.537936760819203,-25.97024912372834,-27.830162292111105,-24.474696104749,-15.547443443565452,-6.794778841242078,-7.069032665738089,-13.83604731296396,-16.23222263514424,-12.176358323928188,-6.959569110985916,-0.721356013641822,3.829189891018565,-0.7293521417778788,-6.955084265067777,-4.813886856903537,-4.601912701568628,-9.657358785288304,-7.82000948241787,-5.781327286286796,-12.25110744251071,-12.819895452451027,-5.440258749273976,-3.111677249783206,-1.7427048704424415,0.5855772858281263,-4.415233910172319,-8.066083767830548,-3.045278597783412,-1.548013861041042,-8.022168378958312,-16.417596951565677,-23.8485823403985,-24.174462634137996,-15.339152799491448,-3.81146038090845,7.769323796510427,10.229108262022175,-11.390455816796175,-47.175152040091064,-76.8251799602528,-106.84208158792462,-143.31863915326895,-166.7867640755179,-175.59564677879462,-184.40303956523724,-168.1729525083097,-84.71994643096363,116.0409876569507,497.3276051229066,899.4758195701195,882.7557029642301,353.3331976767402,-153.44834218157473,-272.03373890335644,-241.33538206004945,-267.5528508302696,-247.84268404411154,-172.46486083778728,-137.7573709124374,-121.4227803414835,-90.1527610626541,-69.76236463623984,-50.11703512319589,-20.391705974976805,-7.299356799452461,-10.283644327408638,-7.65693745320052,-2.599536274983272,-4.010206028427746,-8.888798290445568,-13.554739294636601,-13.626810141937657,-7.980142319707976,-4.924113814605942,-3.1652597157126934,9.231245763080526,22.840868386742432,21.970073866559588,21.65729229604137,33.346367455975546,39.252923242394985,35.11136770882484,29.577199409298473,13.811299119012112,-9.759840597242924,-21.707215475089004,-24.843443070555292,-29.127735248841276,-27.170886819045684,-20.359496329995245,-21.234081234660078,-25.161169043528325,-17.439804237438338,-0.9407882829692031,6.35926270976923,1.4750279566286917,0.14643842427444653,4.315712946898112,3.650459202605373,4.127268995833532,11.725857501996442,14.579824414457429,8.528668314527962,3.2023641147058903,0.47351285077766825,-6.001454993453136,-15.348003613859804,-16.038237875732534,-7.4769722661794535,-6.432638981397249,-10.701597077442564,-5.3927829707828465,-4.270208183394647,-14.169801296127293,-12.86017504904936,-7.072877546115503,-16.355903211766147,-23.632021279940986,-21.49609546214719,-23.687603832176748,-22.586918570826526,-14.942766415704465,-9.584267228176383,-0.5179041717157773,-0.10321107292169884,-28.63332719134454,-60.35780402388441,-76.72418582293035,-105.01401354125785,-141.2408804331327,-153.69082535210578,-158.60148856740733,-166.59254526469283,-126.41361893733014,9.99251557619408,288.1134513288888,694.5568780038766,923.5499466959033,614.5187769840846,8.691374986001605,-295.6841036142137,-249.57612280926614,-219.4459473106438,-247.68069777336592,-195.70746099180434,-134.35801908919365,-125.11772194502734,-99.95622349661724,-57.66355434336826,-38.23434982941291,-25.770899583249026,-11.733933042620887,-6.001091917538034,-3.7771536500010896,-6.329954998065997,-12.42358474439649,-9.602812818406747,-4.625018210826292,-9.374110426516708,-10.70314270067434,1.8118044175865098,16.254072896071182,26.967405275934482,38.34761323879336,42.86897084011934,38.00226477238005,39.564834266979254,48.15454735779336,46.94248058677751,35.222574611317526,17.937770690994157,-6.553615005364992,-26.553252279130223,-32.998467685110086,-36.93763407309032,-39.63096195586907,-33.39432488579341,-27.225257492644992,-26.26454499502128,-19.115163332150182,-3.726973642617917,7.6556887768957536,5.783441922372154,-4.78596535326499,-10.00151476671272,-5.265657267056596,3.4787792086176417,11.276164644689548,9.0056872433573,-4.517816498257314,-10.025301951657655,-2.730577864931213,-1.0508203466264945,-7.020927357075486,-10.210084037822876,-10.386663512413236,-6.525444603131053,-1.6600897211082035,-7.283312418818426,-16.437409975514882,-12.850753654517199,-4.506408801406534,-4.695317445830685,-5.753839189007433,-2.9942488291944045,-9.066003007045726,-23.928505553908728,-27.38173949409557,-14.912969957024416,-4.213289135255522,-2.335257772049875,-4.165016328691015,-17.064315714360426,-47.11580677193558,-75.17410674144458,-90.30782124790508,-114.26654621437106,-148.93318724574044,-167.99415478717793,-173.44697231795527,-162.1421349641138,-84.82464232262444,112.8131136095719,471.62083784935095,866.0979023436656,887.7976015994418,371.07193199144683,-174.3560457763357,-293.58208279425315,-219.71846655947377,-242.1454712917071,-246.74094433557138,-169.59513396364983,-126.25392750414353,-111.82806655044887,-72.99129026259786,-45.98129650189072,-42.25088225289526,-32.842337383835,-19.585842461433813,-10.70697028101798,-7.045576280256647,-11.130327215827258,-14.009843737030621,-9.943905016856508,-6.6892090580362265,-6.329782582727383,-4.918458347088986,0.07488556096233623,9.608218060075995,19.490860268421876,26.883125272235457,32.39314092098545,34.377486774051164,37.908849658512935,46.36554636541838,46.12746388096134,32.909583247741395,17.32842574633184,-4.610618534315908,-31.76341324701186,-43.83700807425522,-41.87570231726879,-40.7329125495454,-36.428372155573136,-29.68115912019321,-27.233084081606673,-18.40227567973703,-3.9424047340270807,-1.7269369562490446,-6.198067983445295,-3.15388104200143,0.440481416886497,0.8804028231821164,5.126668661814328,8.619148458243643,4.6616205713951775,-2.166674768378199,-7.76381426618229,-11.29339653367591,-10.688080931333976,-8.469129498138937,-8.952724938614447,-10.142874274518094,-10.069363967623797,-10.116505352333192,-7.824970392279861,-1.1830619281227772,3.4553837116172783,-0.9045811155390702,-10.468870407300233,-13.821539545517602,-10.79645942269116,-14.635929726715155,-22.42871470279496,-17.845064315820686,-8.247511282155585,-5.696424133588005,1.7154630587745494,8.847238327926576,-11.706282535000986,-52.16244747151555,-84.88842492342481,-114.40557749710906,-147.8377339321366,-168.27327138559173,-177.70525597555311,-189.46023875981606,-173.2543389285522,-76.88515973669358,159.88093036047545,575.9306445700036,954.4573795683185,855.2348963447272,271.1033884270471,-211.6338654527,-282.4893906247495,-236.35782863627486,-265.35698039110434,-245.48761059726652,-171.47820718383826,-136.29170076104913,-109.4156773258664,-64.7211772078121,-39.49284137857023,-28.59705690842943,-15.934992221432552,-9.816260320773438,-3.6507348769015735,0.35742562897272734,-12.924712525116448,-26.92375858372406,-22.143905454996588,-12.405569092556568,-10.062540873091898,-8.2491297966763,-1.6148279031203057,6.560361938089951,10.196226023226458,11.365962260840545,18.49469292083992,26.378006173539216,26.27423525257131,27.048759791971783,31.350967927762852,24.66835984627044,7.902325337142347,-5.169496451613418,-15.42435779101979,-25.607693922575972,-28.611397296529795,-25.627939297951684,-23.31153508301211,-17.966203618651228,-7.843364245768054,-0.963083586581849,1.7452479001932115,3.728865101090406,-1.269331489384319,-11.38972461909271,-10.250468504696949,0.5704834177834464,3.9392468603496518,1.567369279387746,1.979635673242111,0.11527644439235196,-4.057490649830308,-5.8216971804643745,-10.889134582480148,-18.62586233287162,-19.297708406324844,-16.844880535207015,-18.368920584467393,-15.695304783990004,-6.041452677521701,-2.4074673611332997,-5.773820734360246,-3.602621259571894,-1.4552454574930387,-11.321751764229564,-21.575743303454953,