ECG,-1.668944555295301,-16.01588631988226,-17.56028644364079,-14.981273840275062,-15.532486528168867,-21.631332861492716,-34.15232103642597,-37.76927694654875,-25.25171195123164,-14.513134593349834,-9.603931574869705,-2.7038291987176883,-6.025003111915371,-19.325111181642875,-18.954159185593518,-10.527258795771576,-15.3265692404702,-20.68954060567576,-13.27562701905056,-7.717948021908374,-8.834955984306799,-8.842987033582247,-10.70302912409965,-12.750984622179232,-9.119451969553651,-6.7885298805119945,-8.02437803830679,-6.127052271962693,-3.543538108440842,-2.282722749814466,1.2896033737890669,4.305123600181696,3.90743995320992,0.20751604247644906,-8.417741100242473,-16.929276812504295,-18.87654264609703,-15.260549332609212,-6.332626514117104,1.9264979226888528,-1.8265021118412754,-9.374048745209052,-8.243655591481753,-13.345986790964739,-39.09699055821413,-73.80676207768697,-103.22661162397269,-120.48347065432509,-132.8001487726061,-164.0059769449288,-176.7220207956645,-48.601215131322206,270.74166370763544,658.9213236105609,867.31035115277,623.5887869969797,-30.96016847073686,-547.8685740752485,-518.7644542539393,-247.1969067009221,-139.03213307925802,-118.68600339163025,-58.32544592564443,-40.61860606949939,-53.61374339887688,-23.97167091046424,-1.072038306732562,-11.096798002768825,-11.864524489094196,-11.305602273169129,-20.062840876893034,-15.162500132806583,-5.71328431536276,-3.9491926684894487,6.375723750860423,16.817395595038896,10.462862334281422,10.737500277542178,31.132740600002542,41.79270217258768,31.67373164680469,26.2816432578255,34.53876531615306,42.5114278455371,44.89542389864968,44.460086112656285,37.53437176868848,17.291646235352726,-10.063261649347144,-27.084820483287572,-32.175945420247984,-36.77048651337711,-38.38203588306565,-33.503268894893715,-29.81032610911891,-25.062578438028023,-15.496809748850648,-11.411702362877506,-13.655285050387475,-11.758315854332217,-8.119806819070487,-8.883255076161031,-8.712883259875404,-3.972070048851691,-2.5109758430102005,-8.91638525838092,-11.940866338368895,-4.574085759904268,1.2242023314066532,1.3292372615923238,3.0415468147162343,-0.954966111898969,-12.048673909056514,-12.912684295368885,-7.186585863505234,-10.202097093340196,-12.073775610648791,-6.1967414744283325,-4.372338189712277,-5.412247427071044,-3.7149347737869576,-5.754571280731071,-10.91003263518524,-13.356910243493328,-14.990188514504272,-16.282836657049486,-16.406394681238833,-14.859636347645228,-5.97948342682627,5.107361050995863,2.8728834171861246,-6.37832563821358,-8.256612876493634,-17.503580332039917,-48.6241375636974,-85.21806165523788,-110.89490611436311,-123.0032405745262,-131.47138604558023,-156.9131929294399,-150.61220668711817,15.80066662996299,367.71623588331215,733.6675099628518,836.6564275640151,463.08862454391294,-206.50123702725807,-593.2452977623341,-458.14976616014934,-206.64144946803972,-133.45599025066832,-95.90562200325564,-31.832395409876355,-29.51057477429498,-37.95264623096058,-5.1310584928838985,9.13409836105047,-6.215036110660222,-20.01162650958987,-32.74666165733876,-36.451435122704254,-30.81279326365295,-34.72680864960644,-35.73939760118705,-18.256235687103096,-0.5897540269817245,9.925833048180667,27.948415104732607,50.45527989202208,59.75365519538072,54.91046965837848,52.46719484831155,60.09680113572242,66.65026596369509,63.90844242692968,55.976709705441195,39.695909896643656,8.861945026406865,-21.436520977132165,-33.34473987653113,-34.79913220708802,-38.150542591807735,-41.81038217539634,-43.927238668935566,-39.71482420526197,-24.385976440010303,-12.477150901044602,-13.390122159877965,-12.250249019353195,-8.633440155957985,-14.606638435496578,-17.434058713149938,-9.89171662325101,-8.835662758676076,-10.390081469970212,-1.8242293465087354,1.1772677103250988,-6.4890300152298455,-4.250205051637439,5.3072860092110865,3.161942994365278,-5.582851928020112,-6.634793406449823,-0.7756733333428709,3.695654444477441,1.8427153483066085,-3.1343645420783055,-4.926616717866278,-4.027951221628474,-4.6687101821402965,-9.645424236795527,-18.110931462126068,-22.301422136606064,-19.842701273433082,-20.56095079743883,-23.598667368117482,-15.244792892804867,-0.8173027174247522,0.15960489289700952,-7.312993435308328,-5.863732571396952,-9.914686315348742,-40.840048551842365,-79.65839893267363,-102.79622835340795,-115.90901641355444,-128.01546069303586,-152.70592076260698,-169.17719736654345,-53.225114153309306,287.5545381048695,715.7337725167106,911.8644566983787,603.5551058432995,-98.10595149520354,-612.0422200436913,-553.8093805961809,-257.9149596575518,-139.89196285021967,-115.26930587418151,-48.61768777211509,-25.794562619689415,-40.0361072040209,-17.612490985256795,-1.6464777157208133,-14.017878185248776,-14.656651910557052,-13.424637759265554,-24.082831137800504,-27.252988218758997,-26.033340124264072,-28.101560751541864,-19.089175344598342,2.29956284381578,19.72721796050364,30.563707064375656,46.987558655687494,67.75009388027146,75.23533269280522,69.38568809152227,68.87460237877134,72.72672852874379,65.73767472922,50.47300632920057,33.692768479657204,10.450955718445565,-15.88361418114742,-33.07225358384646,-40.498935283113504,-42.84842398612383,-38.66163562824306,-31.64399258399123,-32.291711835367536,-37.97294933267885,-33.002642228044884,-17.688228751228575,-10.896976000599313,-15.565125932458376,-16.285846321529814,-11.573468983323457,-10.438459668986944,-9.748563452972368,-5.047552269154686,-1.1471380090400132,-0.12438635958882927,-1.9034175667533582,-8.10103568770954,-11.659317904738845,-7.232816686082177,-6.238636642723492,-9.25638417765609,1.2990557946757963,14.16071046073191,2.4358049171434324,-15.098559555965139,-8.928113307195686,5.548805242056805,9.392719502207118,3.8210266731219704,-13.882111418213594,-31.34955345019145,-28.855967540284674,-19.05975906290468,-12.37547725952788,0.17316982248686585,4.238770394783339,-8.153687016802932,-14.531242958435977,-23.743972288335573,-61.5558705028244,-106.82145304053267,-127.09020721880684,-126.38143680375225,-136.11683212147346,-160.53972713941653,-99.8238032697648,162.0706479978428,557.799662343388,842.103846210995,741.6342738877667,182.53841206436073,-439.8922856798106,-590.1619769044272,-338.183874374038,-158.62811618200504,-132.52692966522972,-76.09388783862417,-26.868917583352,-40.738851033942844,-34.21664837247507,-8.256949806998843,-10.414312704349989,-11.763817338607149,-7.761877689030877,-18.408154993215827,-20.262609318524795,-9.666984883602924,-10.366663025257358,-14.29113948665196,-6.896590693693978,5.267792991453074,16.577218428907948,29.912696454828854,49.31021569109359,66.87942725342904,66.1284370581416,54.30463797481549,53.635577073960974,61.4883686441267,62.0428741136274,46.994629467255734,14.4158439530871,-14.578338481028794,-19.37078983523705,-22.034161047278182,-37.20582630666435,-46.26280381445784,-53.882695058311455,-56.389268199411106,-21.06446490975511,16.98095997091795,1.3216988938980805,-26.000810561837326,-21.745295482021028,-12.96729482841257,-5.041243343261911,4.137757296719332,-7.3102127941779536,-17.60397731498023,-3.9174021361482474,4.398669863227333,4.741721582768993,17.80697463756586,22.437121842344304,2.3260815443702576,-19.834494747220525,-27.12101760326381,-24.692165794429727,-21.186782193894455,-18.926460547582217,-20.699869905755815,-26.289668386173794,-20.71637288046002,-5.134220402332218,-4.691610208910202,-15.325399812159432,-16.430666558147735,-10.97147889337975,-0.3162326403281064,8.168524944088114,2.7452631921221595,10.897973273176685,25.568778776064903,-18.983164933676345,-93.85579853574197,-113.36663176191537,-105.75479200479714,-123.26743870144794,-145.802546118197,-154.51160458040636,-87.94967767930001,159.11991820140602,537.2095918588434,795.7383996373828,663.9258828614695,123.54130412451664,-420.1184500941763,-532.1627559010303,-312.4877900504986,-140.44601520844424,-99.66135406659284,-77.72546514849515,-55.2902621491947,-39.35123987596023,-17.470279212682733,-7.298032246129235,-11.437138755133471,-11.541638315236135,-12.76048597726398,-22.266146982228825,-27.310234165950277,-21.12404118432905,-18.275599598499454,-23.06172184212786,-11.312991627746971,18.21119427220065,33.332023991210946,35.15539201574503,45.41847167303935,51.9531799217573,47.3623767664635,49.998856603561485,55.1117905017548,45.78438983368596,33.34824610434575,31.081048523651717,26.207508777785975,6.522083265226026,-15.300107683664399,-23.050399845969846,-24.110850842721447,-31.152873421920205,-35.025134062952674,-26.383721606479455,-19.915233627095404,-26.84245690689682,-32.948127885037366,-27.567216513724283,-21.00226375859356,-20.41755051854404,-21.355711955325283,-19.350242096523573,-10.109796683695922,0.8672048335243758,-1.6140560716198067,-9.779997789248878,-4.529009026204882,1.7335231960879796,-3.8231676364153415,-3.6204441299100303,2.17403643867058,-5.295742625001914,-11.46732803886955,-2.8760015894348534,-5.680054551555649,-21.296395032228858,-15.386267572042927,2.124260291415929,-1.591278516674592,-9.775318521742577,-3.072967508355145,1.9869580424181965,4.2130683777622835,6.04012471826945,-11.79062656880168,-36.83893840962908,-47.463179737124904,-73.78623468549907,-121.75121424753766,-134.9462118311007,-113.87248076797374,-127.77563547520361,-158.05291858078357,-75.2766062148775,190.9410877106806,558.280607010881,815.6920365502176,680.382326425129,97.93135647396007,-470.99261820876404,-542.913446734517,-292.13906150932087,-149.59473491974734,-114.03626255206996,-39.74017858658661,-6.22958121579687,-34.0428491209006,-23.77844314445214,-3.2812533187628006,-22.535528054189026,-27.132272688787133,-9.31879599459504,-17.402597792559153,-35.6032410468997,-27.928916349513905,-7.928209621314846,-0.7143102502245933,-0.8400370905284317,13.532575487767673,36.291465066896066,42.14280262858334,42.47396125639222,57.44232593855271,66.34808080426613,59.23067883434028,54.78956860258402,49.0667188594185,35.654283079537464,23.081415526482452,2.8361094201255264,-21.293811517372998,-28.60320942284691,-30.85155895232156,-37.1793647147122,-36.95178391654355,-42.91366960919571,-43.691521431833685,-8.890811448392345,12.58220484346451,-22.25044190775956,-45.86726176971513,-18.297361943641278,3.8662140165112433,-3.5765197537403353,-10.574570021327762,-10.45551568846151,-12.331522982378456,-10.953557123680323,-3.202217104862349,-1.1504175333854647,-8.964709053632273,-8.393758583981569,0.199121981787016,-7.086802739056402,-15.604035623736642,-1.4797263418844295,4.47092016080078,-11.538650176393283,-14.37637919556257,-10.84317706336644,-22.65972829342843,-16.005672410523953,11.690020504642558,7.3117213903137195,-20.115906077933797,-19.594799361071615,-8.36309492817143,-27.474270593377323,-64.351680995749,-94.11407032735409,-111.89595824121793,-118.9037090434486,-141.2627275168116,-185.67000933266362,-147.60275119903497,91.35505276951199,485.29016972272166,822.1135448580801,801.7128454682545,274.8740728509572,-386.70173386226696,-592.8505925531869,-356.8435001803168,-163.90616750692027,-139.12529161797352,-94.91131668624644,-40.34520005816839,-44.72942873116063,-40.46758033651247,-13.653260507581845,-12.018656501943184,-13.435244282496452,-2.96735730795611,-8.572177416694014,-18.16789650002598,-11.99354766637352,-10.21445552403723,-13.551168193465474,3.186363725445557,31.952858722051264,49.08692302093744,54.9027986251107,52.37862368439063,40.540407219325516,31.070518762293744,31.334913052870803,35.81489491391643,39.1121996338493,32.90388515378002,16.007952987235118,4.187276059184178,-1.5806517074961768,-16.23513863000185,-29.457604878975335,-27.388285071574384,-30.920329204028913,-47.80610730472715,-47.48960194830902,-29.455034491027497,-28.81638302518928,-39.041473720457276,-26.543605704157336,-2.307459397247875,5.450818414795247,1.6714532381842702,-3.4873209256622566,-11.096643088206317,-12.12914136481,-4.738760351508795,-6.347845291513661,-15.815514563535594,-13.623014221802952,-5.090576154632743,-6.518985068032631,-9.051680998342608,-5.5974870049794525,-10.525826249190104,-20.72911508134817,-16.837535197292773,-9.057325285532382,-14.052979596311882,-13.496511338232963,2.0550240250323615,7.807772667843594,1.6899882946768656,7.374694538841311,16.4840474401778,2.463688771281957,-31.4300343483767,-68.0439859215647,-102.80430058458893,-124.96177110060894,-122.63297154798019,-128.2788984369835,-166.10644782321026,-138.97122691322332,81.05715236761642,455.5487603911842,775.1461338434801,758.5724354417002,270.0089026476332,-349.70878294428644,-551.1691107550316,-337.92900149706315,-155.3026557602173,-122.80272131964418,-79.73930049660919,-39.28089851263016,-50.61978023612359,-44.392047866994915,-17.300451580522243,-16.437714189826952,-18.060355409969596,-5.374786297414719,-3.971910115899295,-9.95849570241485,-1.5055084508905239,8.61192875026046,-4.220973049780852,-25.445406578862677,-25.199376612985553,-9.343828239198032,8.856762276280367,31.14455775255993,41.44686205077959,34.33499384855612,38.192034254799644,51.82125301649553,51.21712092981629,44.62553930409228,34.33982983406051,9.105052337021997,-9.334217088201827,-10.804541175006438,-19.87480854857626,-31.834382804804427,-30.863515392790408,-32.50490497393234,-36.72111238249388,-29.028682768652867,-23.70480878440699,-26.462256929553384,-20.71304518342523,-11.762175047999193,-8.156652340085717,-1.0771554554785965,1.8703726133817078,-7.296722676966844,-10.674657158988072,-6.19948278762852,-9.717634163587984,-11.575970276108524,-2.7718668579468737,-1.0268927152757605,-8.327103726464273,-8.95481375306002,-8.194923412240247,-13.730139168540306,-14.678986158460987,-10.348496644507055,-11.577276461163752,-13.437850036841555,-6.832671442069934,1.7420320882503368,3.5465894048089908,-0.02836947047403271,-1.3774197590186494,2.6819629779007155,-1.764582162813869,-27.37038933539422,-58.79795572795693,-82.94419896904927,-106.59345979075079,-122.46008264166375,-134.35070251444097,-159.99585278044543,-125.50697193745073,86.69530829941367,442.1041407787359,741.8058997491878,726.0073768767921,262.31736910053706,-336.07211803420546,-532.1754520872221,-316.4164259324809,-136.02112665293316,-114.26317506120152,-73.45550520157445,-30.554266962140574,-56.26870926270459,-67.4763744609637,-38.922185463654095,-28.309514581971538,-25.64945729391176,-16.47295988991654,-22.474829662339644,-29.114281488958092,-21.113215744181243,-17.714492157326326,-18.40021722326057,-9.688344582831817,0.8989553741581502,12.954073293391946,33.30343416465361,46.25959320843879,41.71901104485001,40.04589361473552,51.98857399498455,58.755911667215045,50.03107800140947,39.361351148728744,33.74218877810548,22.53091131226144,0.892713122558539,-21.19917416569753,-33.96328138450363,-36.382848423264434,-34.33394689494036,-34.59561658010951,-35.01162461319181,-28.65047245514115,-19.66616657630385,-18.144209598292584,-21.545014607476126,-17.76563397367227,-5.035443674115161,2.370860580067511,-3.666823113829521,-8.215066669002976,-1.2205937664582382,0.5728960822694162,-9.743379465640547,-12.751144295814854,-4.052270457223521,1.546867407697114,1.5738823927724237,-2.598118114881755,-11.28348357021195,-11.942615603367276,-3.792527847857997,-6.637559447883856,-18.184789068424422,-19.887666551207193,-15.583260845583263,-10.4299764470686,4.1002193459220955,18.035614624987844,14.302990251890103,4.672869403493733,2.708120023869922,-9.129935057477155,-49.153077791234374,-101.97476247019056,-129.8750891446909,-117.7845569218698,-110.60681835565339,-145.89273108362707,-138.78628360904156,38.03394100202948,371.38256184016075,703.5761937617284,785.8873474451584,404.95659581943585,-240.50584203472448,-582.315935939652,-440.593122553915,-208.9428021399182,-128.6139687927911,-81.70727337883613,-30.36220255016019,-29.343418660813818,-33.5419397630764,-18.239335693861594,-16.09078041545486,-16.138023667200155,-10.15662963815229,-14.624703126937312,-17.68253314661057,-13.73815053834636,-18.035133020222347,-22.73098637299848,-16.35770758727343,-5.8503703749974285,8.04118405284125,26.3706394300199,39.65695494315255,43.76593233620865,43.90861577109884,46.34714503979135,53.38892931329731,58.60673462353188,55.88113426365032,46.762955343866004,30.806278056299508,7.753514703118679,-15.898001016618194,-34.161466984075176,-41.440825787154935,-36.92845711547264,-32.587975251598316,-32.040279629456634,-26.565694648018585,-21.777206275088517,-22.992883139553015,-19.692702275008145,-14.153196992079517,-13.088932264918022,-7.099694973733122,0.07701093394417136,-2.5097479839481167,-4.422980664416912,-3.399104814487579,-9.260202133395381,-12.624528212983243,-7.856974097829694,-3.331262269989029,1.3043898793732005,-1.6241824484124834,-17.365832120000157,-21.10125931275865,-7.933401372128589,-4.710145979158835,-8.470545617771837,-5.754336239154643,-7.9303699586561365,-10.396220853131398,0.766330777035412,11.507528568455783,12.284836817101825,13.57678715762514,13.58588587640796,0.7505110253605878,-25.332479497281994,-59.47906235899244,-101.40806086447354,-140.16209775366738,-154.06039959397066,-163.52712539079863,-193.44094347705686,-144.2575532390112,120.85781552679876,548.2262363510733,881.3188897909212,804.7606080353866,223.68818565337446,-434.5517361217168,-607.8274162567993,-361.7487809931767,-164.22533724229655,-121.32260590244798,-80.44223022131817,-46.95767498589147,-49.58418883988398,-37.92611827639418,-19.96779055815752,-15.433491151714854,-4.9372782924688945,-2.221322093594015,-17.91948437704925,-24.371011863981494,-19.528244612016085,-18.64608411398725,-12.13219553225107,1.9661494084677438,8.076724402945086,13.423728998075077,33.616072929862185,50.90075191765147,49.967858975185315,53.03732942094458,63.66942004448705,57.848115996389254,49.64568143796352,56.52324009860625,46.72812623574411,12.427045965375978,-10.64853336799642,-22.420285273159465,-39.32206410570286,-43.70817693003845,-30.36559067316518,-21.26963253941502,-20.857237486082937,-22.827747920979142,-25.521756042651774,-20.028064373513306,-8.644415131841395,-7.968344911411446,-11.445990041923242,-4.7117065530222995,-2.5300677673808103,-12.94735451172985,-13.713578910154201,0.02712062944783078,7.159879912115546,1.921181733974933,-6.748968833955679,-14.408394106819877,-17.484368352741235,-14.688643229674271,-9.091869309682185,-2.354733177403899,3.531182380210428,7.956528811898123,11.993812616203677,7.945700834804949,-10.752056513456257,-28.347158177959777,-23.362743188604064,-5.301143071021677,-4.685485525925165,-19.370799484784825,-17.076439292928477,-7.1886286029309225,-33.61993422218198,-87.66603876179695,-119.80784624878976,-120.86730422874682,-124.88216089891355,-156.74676479097042,-171.72798102903317,-52.10456585944647,262.22894309913465,656.1117975114812,855.5435625997668,585.8866421813641,-59.81958342306274,-525.7471857707258,-474.313230594258,-232.4417202698615,-150.00636154375775,-127.19046962146074,-57.52587339534199,-29.94833754824468,-37.51087358083007,-18.424627041366964,-9.908331853440902,-20.907853653674664,-13.826597292520123,-8.748738957850136,-22.253270540093055,-27.254295679170486,-23.56607344609169,-24.06368028700993,-16.350960907794935,-0.22247012156687163,12.307608678403762,26.92652788417038,40.183185327409966,38.83195518167652,37.95877626023706,49.455548192506896,54.14950173782472,51.12350150137674,55.73397613556048,54.65841648423054,36.241120545997646,12.317287139107712,-12.029579736756329,-29.963179248901728,-34.287532419504686,-43.26498328933107,-58.53081573242277,-51.341820392823465,-31.750770210350268,-31.12669238916958,-33.25287487370932,-18.68168551997058,-8.715537285881098,-11.86588710505356,-9.59835617403013,-1.1529844107351437,-0.45094410666854046,-7.428735207337368,-11.607531432419126,-6.910339832066798,2.609162830681342,7.057563226766664,3.745785620428263,2.3284004489984405,8.956145860464556,9.135289527055463,-12.014097740283944,-34.98642113528064,-31.936982386370904,-16.19930459220565,-14.870818357514313,-22.166927423070707,-21.76278240140786,-12.324733236020165,2.832525967584777,14.478023285926966,10.985277764949657,-3.5155546098760553,-18.78048257488263,-34.71128584171255,-55.313966032879016,-81.91530009302465,-105.74898495543236,-116.78916456526919,-133.81480265618677,-166.31699959831528,-140.18468102611968,42.451762975441795,377.23732463358954,715.8413861682251,773.3699961435227,348.39777537467825,-275.04643978862293,-531.5497707869508,-353.1343438427358,-164.30136441974162,-127.19040218956725,-88.88845496552544,-39.060590788298086,-37.8232953762544,-35.344181104857405,-17.732229366723026,-14.768019842223119,-10.422659082028808,-6.965518489633375,-19.570699530220224,-27.65555315224151,-26.8598160984685,-27.527503902356713,-21.22199160302764,-13.060996048823329,-12.232830898269974,-3.242422151323714,19.695418161360003,38.78629687115514,44.730230943711305,48.146242964429234,58.984080285205124,67.23052649450128,62.008038234305204,53.72102077392016,47.02830325822671,28.272588661156952,-1.3841137286569252,-23.960794663692788,-32.804585221061615,-35.24868633449945,-38.232655928425174,-38.64740234495254,-30.72016977863539,-20.994337188943977,-16.394666961985838,-10.501809196847443,-1.302084902033517,2.9615934037536427,-0.949088333340061,-12.118031227033317,-25.664903178292068,-28.48607304074983,-18.730307035708197,-13.751065055612564,-20.319336938206263,-22.16370788528796,-9.16053389060508,1.6769801140015979,-8.397343153651477,-23.341079643727006,-17.496504480249612,-6.120192689463629,-10.94098150136012,-11.779763602004063,0.6781636756035212,1.9717213494494423,0.5502241174390878,17.184230504179116,22.799446737392536,2.0956980861831935,-7.51502175584314,-1.6283516911689055,-19.447230708093908,-62.40667580180103,-97.75907860260558,-111.46222081022451,-110.50125264232904,-121.46203793387829,-164.2463601071415,-162.46528162067023,23.6721830205351,395.0731070235395,740.8480387968389,772.7198962205836,344.50946294434317,-281.963616401097,-572.121794863933,-399.3988325737738,-173.092991574584,-119.65039875490932,-89.63425642390251,-38.00772703925,-36.50575532828795,-36.09322941659899,-6.266294816693232,0.1993380478680713,-11.615185819514727,-8.839872528848828,-1.5901717473405874,-6.0930349320061445,-22.93365407228201,-34.733875771800484,-28.46162612445656,-19.357881620097,-10.135558257238063,11.169051871391584,29.855443879828005,37.73729563599733,50.68934508504192,65.27365325927995,68.94633659942109,65.93153655438591,58.296556285336045,42.76953480761184,23.929889389836532,11.459247999816498,6.767515373185612,-5.3352564273915295,-28.657802037075093,-38.43348527563004,-30.646868017395988,-33.56781452248925,-44.2592237443954,-33.13338105622836,-11.787287268186986,-15.826064233889625,-34.57515783209908,-27.89137127374635,-0.5255192678408278,6.403461467512347,-8.961685244135722,-14.080286742185216,-11.012783840893825,-23.304061285760522,-38.251840078804406,-32.20941107035549,-17.664044935121,-15.191128256858626,-15.539019923175708,-1.7886940954810875,14.812293736580315,11.6478771534247,-0.8710259994277258,2.399768752167782,9.322098728340617,2.190887656569945,3.302541921269748,20.35232634634464,19.59589622928096,-3.3268218953243416,-20.15594180301329,-37.15858593351105,-72.8990176454263,-108.7637761567801,-125.77971867293066,-128.64193503426722,-126.62508915664763,-138.32659861086486,-132.5362802735183,20.44563495572831,370.3263780478028,732.0224559983872,821.9274582476847,471.43343077898083,-157.34853121762504,-558.6811739367986,-464.70024708905873,-218.68642690993778,-145.8478879262767,-121.04488029266898,-47.46465500000667,-28.83844640389347,-41.24922892551922,-13.282604764215108,0.18491473200666775,-16.141270043584043,-13.649963248056864,-7.8440146067996075,-19.558580798497637,-24.053575012635363,-19.196792886120065,-20.937673166183878,-21.266246172021603,-12.257160329008466,0.18221932686307563,19.007779507243825,47.6681079117987,71.27007979479404,77.07713908611508,69.72322000609913,55.85477315402349,42.38702822561792,37.57185819962911,33.50704543271683,15.478447819437243,-8.580379711353673,-21.497386792098613,-27.042459966326774,-32.533868963636365,-27.720581840578117,-15.494297293879715,-18.890823251662145,-32.79459903880552,-33.42493772019924,-28.856566016200055,-29.762205250049927,-19.303781370241886,2.324934410555679,14.792747381494667,15.536149169515873,7.46073010039972,-6.6882483309126695,-10.872056559660507,-5.274387936002768,-11.581844414348883,-28.10969784984695,-33.904076090523084,-26.093161139665362,-13.271163652378068,-1.799122745581581,-1.6724529321842283,-11.79924807812413,-11.201733612104507,4.64470534585908,11.892002336980891,4.723513636597571,3.3810189655788676,8.707448010944194,2.526642027777921,-17.95874453773925,-44.38753073460455,-74.2294649351516,-104.21313661115377,-122.52278153405294,-132.65415985167462,-163.90318585808103,-181.25989100918605,-50.558342784532584,272.0557824884336,629.017124684957,789.4313924915419,555.3674164158992,-31.162621257654294,-498.6647915840871,-465.5373093562826,-207.77622589197296,-118.7600391057972,-118.93027290340284,-73.14702544984713,-60.29531792922738,-63.84114799742764,-20.780452238585017,4.357232708715603,-3.5544455823292296,1.0051869691558082,-9.106579544708783,-35.9248646958756,-36.18996567936539,-29.91550271072806,-36.50115918236012,-23.546041578417505,10.50918583089963,38.888601862978874,58.24092082729305,73.0673049001445,77.32154410196064,58.19578214917816,23.831167289247183,13.318282817395433,28.609115391409553,28.478003029928324,16.94245559301418,15.218850818474756,0.3081344770094896,-21.09961570216937,-14.605891929385681,-13.631964301535675,-46.53240892199668,-59.949708737775396,-37.52425974770449,-28.089059485947246,-28.32888825068862,-12.64656879881992,-7.8796968706745325,-18.94127946750018,-11.35143627741884,3.8416807257431174,-0.8190776021844428,-8.657703988382604,-8.50865966853743,-14.040066826270902,-18.561421302535525,-8.898812303945764,3.7292092704771527,6.6405930462054386,3.6688629521079363,-0.5183066459662626,-8.686330728377321,-18.608308950778508,-21.996474800065926,-19.498763618778163,-12.754882748068392,2.5664408540983104,13.519474474622765,6.689906455214095,2.009047747568514,7.816995682186629,-2.5587740717829988,-30.720515309293738,-58.90593264450506,-91.9991134424152,-119.39047947319602,-129.92010554486146,-159.1048236868203,-180.70364383029752,-69.76329410931545,209.02402999225245,546.109174198316,758.4519924966867,590.7226733177486,13.381222143069195,-481.244427088461,-469.4891636820696,-222.10967462432694,-136.07268446048045,-127.57765741867465,-54.97682936037728,-18.634464868002794,-36.49338213318774,-21.388213557497878,-0.10362774178233991,-11.124060923059861,-14.114954020749789,-3.7471962281105053,-5.103675974098596,-8.505889075882905,-16.453912759637845,-40.87202253568114,-45.72351273946403,-9.893699140934084,19.225056737271544,22.29221935457769,36.90100415613007,57.33309721049174,51.40000491697527,41.45882837603516,47.60442711327005,43.40798439775984,25.51932800717423,19.779929811558382,22.87899938471155,12.304561389416243,-13.198134561637803,-31.69426230305386,-30.335666830018816,-27.70277167069197,-35.55151763081773,-33.55583658015457,-20.390486857714688,-17.780253876716998,-15.194670028274647,0.7741806237616178,4.57053196983955,-10.123713832965953,-13.012784911533473,-4.074541287709744,-4.513118990053769,-4.588884254192006,3.8580823651861316,1.934790264662574,-9.688142917257078,-10.62071405897462,-5.994397292197615,-8.934525815821425,-10.489630951594702,-5.990886314596132,-6.108316292017493,-11.846553895959314,-16.170703918271066,-15.145790431376158,-2.5199600115244536,15.473998602110889,14.67440866092371,-3.0027535449081113,-6.7065126945125515,-2.012520434160412,-23.491902214062307,-62.63614891395615,-90.50317475219687,-109.202223260512,-120.73958374217386,-134.58105514624847,-175.29988065732175,-164.514166534713,48.466251671154964,443.31104899455966,796.0400236805676,831.1659969175254,380.74350855801464,-300.196781267027,-612.3440109510898,-409.8364496091055,-168.8430159657753,-132.64842641341016,-101.75642982287116,-28.2803982730925,-22.5971342572086,-33.41438987220363,-9.297155987370004,-13.44897742312287,-38.833598598726965,-25.840254093375158,0.7621802560413471,-2.107488299102446,-13.351083471380951,-8.362368895674573,1.190907039698736,7.004671867488025,9.893090888072633,7.495162958192807,14.638425743846184,41.63169624761484,62.7727032370569,60.47856657786513,46.727412646526986,29.652076448835693,17.34683139649933,18.664195165977542,21.901644911403324,14.31532741052305,-3.738916926369024,-27.984415908487012,-43.41152699267822,-42.21302867028642,-38.89979387508527,-36.34673749433744,-27.93542004495208,-25.017219547855156,-28.269844115383993,-20.85335200141668,-9.006832536847213,-9.253803123641163,-14.017638162568794,-10.651831514462511,-3.648228972332582,-2.648114221767056,-6.875968504260294,-7.573646258408171,-3.5952982259225514,-1.6841494349080346,-1.5279030101748337,-0.6582417310456279,-3.726315494386828,-10.759358040715007,-13.880553935214618,-10.735594885180902,-7.26271619296881,-6.3426404328374275,-1.3131689791916976,9.168328991619436,11.152103353491746,1.3499360060152448,-5.527663130883402,-12.752884350392982,-35.44692171652006,-63.70670888864052,-86.93487477212308,-111.60516811540091,-125.84822215915143,-131.7302120882454,-164.0412871075791,-158.96155785276818,35.44451133258414,410.4565913393142,754.6829807667776,815.4333609836372,419.83963869707645,-238.31114505232637,-584.4605627797798,-417.75667847575346,-183.38021479889127,-143.16446528522454,-104.99693123367098,-26.634448068252254,-23.044748235882466,-28.75988013573148,8.197128188291188,16.95386977370279,-0.8871508795855405,-11.398770359560359,-29.548133788074253,-43.6363170458021,-37.248606198853274,-26.53382687415091,-17.953926516389185,-10.742691104291474,1.9063944770684276,31.561693426692948,57.92589819372924,63.99276993257118,65.09398169256144,57.51629614979492,37.7848460219612,30.024897583473837,27.83710393594762,18.517049286837526,25.004907737209674,31.061245786130428,-0.4668773195731948,-35.32489747958158,-39.54546131227667,-42.18498674504565,-52.22642024006669,-48.084075275939135,-34.86355985251522,-25.206727359550676,-20.724587442924516,-21.33698590140685,-17.68017514319998,-8.843660554204856,-8.406113187250966,-8.30712722593283,4.55379626967197,10.211101142744537,-3.4384722939686334,-10.962152341621724,-2.4154961047850616,-0.11370285476048636,-7.5174738485105514,-9.335676637265266,-10.847849599024634,-17.276565407657603,-13.497817573710169,-4.673713975311571,-13.0994806983419,-24.774819671573482,-12.86087323161075,9.076060138517601,17.06380301753174,13.13918346261513,4.901286778235178,-4.267205996471974,-13.544781344610634,-32.29486510949817,-61.31692843681846,-87.5691924099006,-108.85633472717528,-126.34724095647466,-146.36525372293664,-175.259598854547,-137.80121599161174,79.90461408742154,439.3782139593498,743.0380066387762,751.902631892877,322.03894002978967,-290.4638275877758,-536.8771268450394,-334.41518611767657,-140.48813435062328,-133.18095029879115,-110.80569957497599,-49.24186294439973,-41.35797922695134,-38.96034657515086,-20.34077727514799,-28.497759024132503,-38.05620115619575,-27.003337007456395,-20.646840925806217,-22.318927215617236,-24.906514640811473,-22.591536823516968,-5.942401530741435,7.382204233960503,7.703224934317126,18.08193241665081,32.59422019891264,34.20114809456196,43.89751556512226,58.800676957355094,49.12480541120651,35.61918289171923,40.92602288504291,34.265958351537826,9.373856295217177,-3.08461142112131,-7.1730996544315015,-18.84904744820586,-28.278330951857182,-32.66167232113921,-36.63744772984998,-33.201462676953476,-23.493197115688066,-16.630245310822083,-13.492521886178139,-15.117923806557954,-17.663675923423934,-7.812202511266211,6.147323555050148,-2.2869573587692287,-25.427423770902745,-29.031075375010058,-13.492145978269503,-4.794781800565627,-2.6615590063563808,2.9603437372820807,0.9476258208136201,-11.201074489004139,-14.792738117346971,-7.006530682147961,-5.191666251986135,-14.309341629310383,-20.30455639326196,-12.027157763964134,1.5588345268254251,0.5565366234849378,-17.411117400114993,-29.284026432536322,-16.65393993842676,6.152695046015433,13.763320974073777,10.725877667881331,11.456857453587164,-1.700855331062309,-43.56160051274649,-88.38408204535757,-110.97269425453938,-113.91829067015135,-119.58134799446103,-151.63148881830466,-155.80799048019765,-8.540074316946914,307.1855421629327,645.4599307265354,772.8933795586836,465.3752170957819,-159.36712892672875,-550.6339158676867,-436.90889713000684,-195.0398079226319,-128.50594012613988,-102.39081435197096,-42.142444509233684,-36.38647895980586,-50.44411619967023,-27.372241172896317,-9.887254382742253,-13.585090330911441,-16.023381520218333,-15.974085956306705,-14.942675088241593,-18.876453895716686,-28.949751467645328,-27.14104266956023,-13.63300521891935,-0.7668654935323795,19.241766313973358,43.934024008737794,52.58480462087074,45.177018191071674,37.04060341893443,33.35170993302168,33.36824386162934,32.995677178530094,24.079688742924596,8.997449219195158,1.1513406166496982,0.7274906883861334,-7.249521063621074,-22.204187263335463,-26.908837504826277,-21.59481118461792,-21.34338996025057,-27.135632485743315,-31.90011367238803,-33.55588746827155,-29.36640492945792,-21.02013818135287,-14.485563223031068,-7.954099071108043,-2.420516319443564,-6.581121550465873,-15.075668882345232,-13.475262315021656,-6.004577173735797,-8.182479569259542,-17.426047035359993,-15.783475175959442,-4.298422377361593,-5.061163571487544,-16.261205976636518,-11.601993636970814,5.655012724845182,9.533794739547437,0.8757933206538873,-8.146174163091228,-18.711536005417692,-22.549228802363068,-11.987588058393527,-3.881988336443296,-4.240707146226619,3.6839345425475365,16.141628751584626,16.608640460333167,11.816815804941458,7.6027316809080006,-13.416827688476008,-53.62537557159408,-84.03093457580104,-94.54791890757824,-107.81096060586273,-128.36192379349643,-151.023896845771,-175.51162114023217,-125.99428190041208,109.32768593338301,492.7297787603802,804.4525750491043,750.5424533960197,212.73169561148495,-415.631734897599,-566.4913884437807,-311.37962018008943,-145.0874614679812,-132.93325091906064,-72.93158168174041,-15.998988983202608,-31.048483047691803,-31.702804512909943,-9.550957304037304,-9.423263912181515,-16.209733014508735,-21.921665610896497,-22.1369930519391,-9.669061007240092,-10.278503864230288,-21.196695919299962,-13.92925175980075,-3.9914481179405676,-1.147924399186534,15.809303489115646,36.62405688900255,40.94341319482776,41.366832049879655,46.43092285344716,43.70013318147632,33.63012032986991,33.3812059597352,40.19159312159758,29.728504895558018,3.18158081241133,-15.593936102833734,-25.28447107437444,-32.13809304060672,-30.03324203580468,-26.472521676579184,-30.352826387075442,-28.60934298418098,-15.787372511512228,-6.606546978748362,-9.009733168268994,-14.283989205481262,-14.702095197701922,-17.932244380617686,-25.131654569718606,-20.181853041494335,-9.043646413637209,-9.21358493986796,-6.307215486623127,4.195265006451947,1.329114285548851,-2.8982850247956637,7.049601202003965,9.225798097546168,-0.15582868909129388,-8.846618390188233,-24.484045536829875,-32.48684646820436,-15.44691324280376,-5.811360629074798,-17.309747926528274,-18.28522072116565,-9.71851348974728,-9.653789220265494,-7.280948883463715,-2.4017074671132512,-0.3036764229054594,12.11881350059248,19.940909288634938,2.6043336997244886,-10.917831895260816,-12.599587863157955,-40.47886598799283,-85.15221072264649,-108.3527202713791,-116.29898717388383,-126.1479955304219,-148.40321266861034,-164.86641569023277,-64.57195632505042,238.19533626233618,625.071501879975,819.971430306696,569.6634965493053,-54.732399847677215,-525.0574614040653,-470.3678552985833,-207.65245819181789,-122.90460346485095,-109.53742097839744,-45.222905328993335,-35.46893324096972,-55.17975134850343,-17.782601015941005,5.4040131333383385,-17.782330219062885,-22.816577435677576,-15.908752253417482,-24.942138126961638,-27.681172369486415,-20.088196304883688,-13.7177336990041,-5.815937369554268,-1.6556951558173894,2.567401125673004,24.756678708449325,52.70711016276669,59.54262220500292,50.94274876546684,44.90923897544263,40.72654131743842,34.37387536119091,28.93688794402819,26.008685458922898,22.69258251868594,8.496663244362413,-19.09970662597422,-33.871555810307285,-20.521515253008285,-9.56972735744912,-20.5692534104584,-30.220489903577736,-25.978721258881095,-18.847607641170136,-12.905077258211222,-10.01188961751513,-10.423293919373826,-6.688138287541995,1.4274757534464433,12.811486565058807,26.25715947923165,22.112239176062065,-5.836496870456493,-28.435952273581044,-31.12382603741441,-24.815573810634312,-14.518493299406435,-9.545606866678721,-17.763900738434216,-24.78233789289896,-21.53459148550735,-11.46041064096694,5.442934938320675,13.146782254673486,0.42111353365152304,-5.308410700595132,5.114327598416578,2.675239556250574,-10.010195184159796,-12.339032458687004,-17.077334662210625,-24.205319296261948,-7.3366870635143515,20.60046636202146,21.539451810480436,0.33931506065539985,-10.672288991183418,-10.566815960717356,-25.83927431283868,-57.49448364446396,-80.96956444806466,-95.08053599003263,-112.2340540459508,-130.19890160112473,-144.04292317680697,-108.7749244765833,67.33330792760967,391.59504596680597,701.9510801575598,726.2980298474462,304.441706275545,-286.9584980916135,-523.1886675854173,-347.07161975015197,-165.2735790657052,-124.16405153148801,-78.09959265416875,-32.842253287152474,-40.66461191332239,-37.92144699173797,-17.60531415603488,-14.544112971893448,-9.536680623274293,-8.929564212160443,-24.41553491846452,-24.715443555609696,-14.10674203471492,-17.464007182815052,-18.98151425807641,-8.150899174436352,5.782651562392436,20.416793698338054,27.933476424523704,30.589288650959173,46.353061822269666,64.57128848951008,61.88757198776078,50.03475066162119,46.95286734066157,43.04662873044124,29.76164869043434,15.228358081601122,2.091621974222458,-11.401052052849346,-17.875552451224344,-17.925869972983087,-21.099297087287024,-21.795725419340684,-20.65492682154386,-35.21217939651171,-47.4808539248544,-26.70056222054271,-5.472629383052958,-17.271455384107746,-22.8567843443206,-2.8969728718714585,-0.31525330406290664,-17.977513539296634,-18.454329760057647,-9.091372104031727,-9.239654462262187,-6.027874635127699,-0.29180217833726907,-2.957642521968676,-0.7053534397225221,4.386809714792189,-6.425557822719286,-15.184899844379732,-3.8008292464513787,3.7719354739719266,-0.3036021185057667,2.597774640246202,3.0140804734444018,-8.723549212494117,-11.161096943495835,-4.681334458602045,-10.963445780690455,-18.505841816060702,-10.043653172814356,1.0100538706055655,4.994079394145557,6.378566584701225,4.256915965463463,-3.339263083432578,-23.67896445848952,-60.37296474254465,-90.9460437489555,-101.11256736147965,-107.19336339641316,-122.94195579047275,-145.409136426079,-120.7581378738285,54.86722866955682,387.7227060311408,704.7604369448427,749.7534652533409,361.9010332984336,-241.62878256070564,-535.0462481757587,-373.9975067425272,-166.74410276172927,-130.08639289496801,-95.03523394548563,-30.19145453748922,-29.31239938078967,-38.536798758449144,-20.00241495937695,-18.54367414205035,-18.5896921299264,-7.099930274799753,-11.343396368215727,-16.88705017197436,-11.0455521190997,-10.388053520819858,-9.351339871021768,-1.56728399934932,11.363321552794282,34.05960077090599,47.16429183319801,40.236438761125314,38.74172223505877,37.52988528054587,19.41988726419357,14.010386731022287,30.7973933840905,34.19220290681566,18.98669424044381,6.314972241534031,-0.7940095585317994,-8.092779258229498,-17.882133353035286,-24.987035429348072,-25.456453595307288,-28.567783208164222,-30.567250137932852,-18.70742041041906,-8.189897066177512,-10.412177371500327,-11.469427699157286,-12.89704259533611,-17.877059945077228,-11.25659496687859,-0.10348743691364426,-1.4918912715220252,-6.437149771779755,-9.075050029276195,-12.457861506806548,-8.706981088087428,-3.549189684748187,-10.70382860998026,-16.889726069614795,-10.552034077198348,-7.548417811787788,-12.192529906745538,-8.858222338238186,-1.3328131813618285,-6.015136400952358,-15.374032686587306,-13.646907425156526,-5.5873010755467405,0.7110006698854718,4.047030997486592,1.045289726882194,1.2358198907844749,15.929011056575693,24.833951176762756,12.56294466627493,-0.03167444364466121,-7.559015005024298,-28.92558068535278,-59.795560728397845,-86.88354627661977,-108.50267175377525,-115.15783623673389,-118.51880176613486,-153.6257256933715,-172.5129201515283,-48.97509527852224,248.53350260083116,605.4001500953112,808.6795605748133,592.2505472959797,-28.17887356238559,-520.4043814499881,-478.84493376932255,-210.51400408510796,-118.02407517162614,-111.94731292024136,-57.806761771049906,-46.61625430857694,-69.75123578835712,-41.894391566972345,-9.698787353931905,-14.627710935534317,-16.033917762086627,-9.83167146737009,-15.332710881834224,-19.5474529383857,-16.01948698247246,-14.453224043175023,-12.571003586393923,-1.6732253679648221,16.703688452231127,33.01317360784704,41.31122353708036,43.04352787468107,43.213687268200516,45.29194883637959,45.07805492183875,38.19424671732251,33.595751091592284,37.25332817005284,32.81225917952033,8.718076512768523,-15.20808432543536,-19.38660087052202,-16.24075848846111,-22.18718275043586,-29.744434040618202,-29.010689860093276,-23.150574747153517,-15.893282261671013,-11.39262147445585,-13.212448356372198,-13.436322900277304,-7.940495882880878,-5.277880315990679,-3.730370353760552,1.5370859929970244,0.9882158929757328,-4.025057071397203,-2.343504122510083,-1.0642836211987117,-3.895782482715237,-3.385026289256116,-8.03210249676788,-17.239780957544482,-11.743187280154505,-1.7465123294660057,-7.02263860683332,-11.405913006761569,-4.36780856543524,-4.0616577228754025,-11.590294156488802,-8.210285716895731,5.264089612841938,9.189803900522033,1.4960355708811548,3.285937596064267,16.520907456989875,17.55259494442612,4.691684932690755,-5.318430420268574,-16.01192663378189,-34.96121188327295,-58.47279641860845,-87.29518078797847,-110.61611398585012,-112.82079783626199,-122.30042047954257,-156.4696580479016,-127.44044096777831,64.64016207981959,388.643031103984,691.4068544939688,723.7335047196588,305.3630127586284,-292.0096861620262,-515.6317452760204,-313.27471838435235,-133.4622110162174,-128.32875849148277,-103.29692747213349,-41.821948747776375,-34.510337515589086,-36.224053444645385,-18.397214025738513,-17.90377048617972,-22.967195677818815,-19.987920129602795,-22.38018317224011,-20.168388145055633,-11.90769816503579,-15.508721291441812,-21.34626325359468,-10.880716195421842,8.20617211720827,22.889232968621638,35.909843288595226,51.55839279056411,59.90988951404471,53.09088736142276,42.93988931432375,41.381617876476625,44.135604838713164,43.66014141068614,35.819708536980016,19.024192505266836,-1.4964319882737476,-17.68163973901138,-26.476266979938053,-31.081398430115826,-35.26487725807476,-34.630181044241766,-23.98882332829884,-12.556108628902003,-12.300210050359887,-17.85552460018082,-16.346385441145735,-8.747699221729894,-7.187611510014348,-12.191454839523228,-9.909777269494626,-1.2439019481346936,-2.8237830909640156,-8.211024042717813,1.5477370903662226,10.909773668283881,-3.6917201232128924,-24.449893105159312,-26.136952999138323,-16.849868323104612,-10.477193319953638,-5.227272399448532,-1.077176962347405,-3.5631243622812185,-8.615818069396775,-5.398435678867987,1.8985134424378032,-0.5103977999466736,-3.706800510588632,8.274780461426735,18.830086455065256,10.681401378713108,0.39870048277347436,-5.369188495016379,-24.52362704264251,-55.39218487151334,-85.22406658674402,-114.8666286714535,-130.52121237050073,-123.06351850657808,-133.24399653887616,-159.35873895475345,-83.49251127209295,168.83005021035865,504.69829177389636,737.9148752003789,638.5085715554986,127.04971094413746,-415.56838807468733,-511.1015776385383,-277.47434561556213,-136.3300833725624,-113.89791890168394,-54.56646372658468,-16.839223600093348,-37.56200670030187,-25.96573635430251,7.990803887513675,-0.6610671385719513,-22.29964429071474,-18.715771238822544,-12.677900781487772,-20.601146566659335,-24.92986441861786,-17.06433018469139,-12.102633644190188,-13.877733405997892,-5.741493484906497,15.781328824472192,37.32020412519996,52.1366386105132,59.86067606744116,60.021957125538236,55.18292968827433,48.915623578145315,42.35816752682136,34.14400398538999,21.57334373239887,4.377245346087558,-10.312834883367199,-12.62511023703132,-9.167613320045302,-18.164908459047638,-32.815431688278665,-33.25938787617301,-30.31546410510433,-34.96879259007572,-26.938378843770945,-8.272534848549626,-8.20047380570034,-17.813200911813343,-11.162394571183308,0.3022196992372379,1.9490886206214917,1.380249051715996,-3.4677307428760606,-16.93489677993263,-23.339397608219983,-15.646054973009791,-7.920722518847061,-3.3544069978147757,4.452896509871039,5.261351730060213,-6.010654934100074,-7.853044745143034,4.595012228665812,5.615278344213003,-3.690951690585946,-1.6276756138867015,-3.392012610719309,-19.673972838418475,-16.299752855273724,5.444751682000325,-0.825264581581763,-22.180776692358076,-12.24329803835904,2.494845929309194,-25.379245004590395,-72.35963278936704,-99.71477095632753,-114.23513732202099,-126.61251811631024,-141.56997962077645,-169.53043136432575,-151.14239834425433,33.51081259318423,393.3115222388227,755.9316581958456,837.3152684232648,421.61510962970846,-265.7771203019558,-612.5365026420986,-427.07815611124465,-170.98664764178363,-124.30310587225864,-100.01075943174959,-26.402062995777456,-18.251618535077263,-40.73795778331887,-23.37357633311985,-9.194421814966255,-11.778224781752984,-3.8901859746180616,-3.282366728418225,-16.039491643122997,-15.611081767546015,-7.313305431712289,-9.623792435987683,-10.003604256769172,2.4274669277283314,19.56389343003988,40.84813801335752,61.66753919258463,64.334273020678,51.72641930167376,40.81075773930283,33.13655115594776,28.938435717069588,29.342735400062374,25.018183374305025,14.513016886646236,0.9229760275946324,-18.1869492691729,-30.825300323589598,-29.203732993604007,-29.769884042114217,-33.0094092618938,-26.886099199442555,-22.824597174669297,-24.098382459233775,-16.572715158442726,-6.242047300139697,-0.9129231072692434,3.9794316419034743,2.2026311179739544,-3.6275421662447087,0.49801527192633976,5.743502561466827,3.4963895157323197,0.3693400496989909,-10.789447039350247,-26.87484985141701,-25.23614384946616,-13.895649514604658,-11.519325671865177,-8.110499123367624,-5.198009855482262,-16.27836780155874,-24.737234227729978,-17.293106114913016,-11.314765133771004,-13.788480035547693,-12.550048892142298,-3.518974785759287,7.220194444288035,11.853075711781123,9.49183282947613,5.685765763767881,-5.161096597146637,-29.61426307990469,-57.087923016788366,-84.95003344356749,-116.05244482695082,-133.89940099044287,-146.24203529230462,-165.43667141013998,-103.77671135066115,137.6314930078412,495.4292585902068,770.7516203804299,702.423479153355,175.17222627185555,-422.4845430127118,-542.3909786935519,-286.9636682975579,-140.25931961620603,-134.17624066346738,-71.89325008654082,-21.331980848952313,-37.090250723739565,-26.369956934334212,-5.6029700035542405,-18.11416057566917,-17.856723260604106,-11.883100791691485,-28.005607379840946,-30.33344727219641,-20.92735164581422,-28.65109127826405,-27.525553813287118,-7.399328304718258,8.961752683516337,30.02968614357512,53.56727989732135,54.904191848671076,51.13998336344171,58.11110288264309,50.60186260617307,34.57141237912053,36.96377766517934,37.949540116660394,21.166720372104578,9.026662222650291,1.751513371833067,-17.3904699076187,-35.125660779731014,-36.599016096062876,-28.389572585655145,-18.31299963797912,-16.000813561685753,-23.444814648103986,-21.675209798205255,-9.696049681262608,-7.887138088096576,-5.730073239068094,6.464012241605442,-4.995814082805097,-36.88992992104127,-34.4748215454873,-7.5334883658421035,-9.888047948708643,-23.378032555909932,-10.289935934300122,2.398346668353028,-8.000321413803611,-14.927427442109337,-5.266859705758918,2.0452747534911175,-3.381333847806914,-13.123779775099102,-16.55560613149468,-11.72471773861054,-5.8324984337430585,-6.330022360328254,-11.325561238279327,-11.214989682815746,-0.5556830517499343,15.540072245605797,24.51504728856441,14.897442369659572,-6.277477291712032,-19.978303732978954,-34.027653182741844,-68.84927385661526,-102.41240777244654,-103.51255102590757,-102.64840140921892,-143.84291752023367,-178.41859556610765,-88.41898677861397,171.39040447863005,511.9627751773156,744.1114184937913,621.431678198466,89.74682508435777,-437.7387446870128,-503.50765225826035,-259.81082835024756,-126.99131512553397,-114.9081796017964,-62.31057718523095,-23.98906633649578,-34.67858534575617,-21.110712154506068,-4.449775614891401,-18.78990655976521,-19.839178446496106,-10.111825499293435,-18.982836726275508,-22.912414814369665,-17.18501937519344,-20.323621682602997,-13.922928992903568,7.1021621001930875,17.380319904525503,22.560421071478277,35.140518479373654,39.894448760705586,39.41706012333739,47.52297965144835,51.39378802001582,50.42317046265961,58.802836686731155,56.85725666689185,35.37009157819025,25.68556746894822,17.45445012735106,-27.217388969170518,-70.71538321368129,-61.633210705537806,-39.37128966431288,-48.51023351827851,-55.41035614145171,-33.60860929936159,-15.426685488378943,-17.754094560563768,-15.85212645028427,-2.990263206084675,1.6134312627251806,-0.6766718371441698,4.36633578766074,9.152723688206576,3.690326081373593,-3.3176216977590265,-5.857465426137713,-6.802091955080289,-5.295692885182877,-2.1909780644786103,-2.312254032200709,-7.481264236896351,-17.91675457483919,-28.610806821281866,-27.33086044908948,-12.759576514143866,-1.4960440512629773,-3.706063092641113,-11.83863198119699,-21.198398842731866,-30.424177267320278,-23.30326694921774,4.539602890406421,22.160916447109045,15.535008448315438,11.2596105745586,12.801829664456433,-7.920847586682649,-47.37957396996678,-79.15190215821875,-98.21466645174795,-108.87388576136112,-123.92619811000071,-154.35261723641753,-135.67305840160526,36.92079259498311,356.3401556097738,670.3198726721619,733.3539026024065,354.23749563389646,-256.0120741269402,-550.8561676094175,-379.9198749512643,-153.4982793653503,-105.19001486758361,-83.96876945698487,-36.09380396804454,-33.49702155129516,-36.50163651535946,-12.368438040111116,-4.62079557485729,-9.544958096943075,-5.501253764671583,-7.760835448280485,-14.191898487180781,-10.618638259312611,-2.687430124930291,5.26661188584764,9.665265429834747,1.6006987242194608,-10.627767926781335,-6.5698030122713345,17.68379039505603,41.65003924448522,39.54630397172189,19.29733663464065,22.624086585718544,54.35818682578362,66.49095112864727,45.879718795564614,29.952774343054877,23.563997635558934,2.7945347356799113,-21.586167761873444,-30.330488621152828,-33.58502040926986,-37.78472772343414,-33.95800305607381,-25.515098376838495,-23.087437869641974,-23.264776246570978,-18.3090211839659,-14.872925223428219,-21.343380071055734,-24.976887431862046,-11.438950557014962,6.254945477493365,12.470746395064829,13.286466815943474,11.572136792260789,2.3846205530663216,-4.798211219442767,-3.2544243325572175,-2.471387220594398,-1.8005336700608936,3.756901888960642,2.4491722464757952,-7.257200937049902,-10.663836684159207,-12.266427597172413,-22.1412025509825,-27.413090496359168,-18.895267109775958,-5.698688917928573,6.791663351801647,16.04463759121906,15.847868410623676,9.043646269472788,2.7579473230660243,-8.414702226925147,-34.6470023122021,-72.80381401374977,-105.4586213088034,-115.29254164165813,-112.35554564601023,-135.17178671149003,-167.11826689903785,-91.59095053464,170.305689300634,542.122464441496,821.3638706086739,719.5853951754339,131.91066760558152,-490.9725774892788,-585.7513262114533,-294.22243058068375,-121.13601381149329,-105.65273801570487,-55.95004870249876,-18.92096627832126,-32.632019438814226,-13.799071151996987,17.089343432396237,13.561317170090348,10.087019122045373,4.54908092509759,-21.366416913177858,-32.98857940409947,-26.33274727413814,-32.500200824117,-39.6507615826482,-25.4362784105057,0.03930984496940315,24.351813523233336,42.25703707904135,49.60902298386906,53.40469952904478,57.221220504947375,53.13363344230642,46.31058979828545,46.06601647836854,41.40009630591149,25.968630632681336,11.411588847295553,-1.7874930865125274,-18.341852555073455,-26.396810752537604,-23.53451130472341,-27.672795544493297,-38.63372882986192,-36.78899447728989,-24.259265024957617,-18.628279350842835,-17.253202134447868,-9.977758650558426,-2.8310145258706196,-1.459157550342013,-1.2495447164302185,-1.0593595283765112,-3.6409582616673255,-8.926105671696936,-11.629414175474105,-6.281351471102635,-2.8493359859189358,-10.906132706316274,-12.812914651385153,-0.16246756915281324,3.889575683033099,-4.1059779118441355,-5.237547241986029,-2.7725732160847354,-5.639715281608847,-8.733645834219889,-10.064606100592695,-9.166085796516462,-8.50213575274189,-12.412862405676314,-7.427076384344887,9.004008961623793,9.33428750703946,-3.5775644533791233,0.33269028512380316,3.131362181773097,-28.163515940025007,-73.77360803436969,-103.9469193693844,-115.64411066242062,-118.27326256440273,-143.07378190081246,-174.07041325755284,-73.29888313041802,251.4703318901634,671.2945852067488,909.781483908595,681.9796762964727,-5.388170431573613,-594.1337335946505,-581.2190250416147,-259.01507689100754,-129.018749329257,-121.87319262780088,-53.90310613759952,-30.473658770032813,-58.43194907166273,-31.96872306282835,-11.21189471385523,-38.99899260362885,-38.15622632132515,-15.701194252425456,-23.29994770342835,-31.441172994045047,-19.44405766306824,-10.706273874624344,-4.958154076732251,4.737546724641269,10.372020235531213,20.89105297521352,48.62323334492668,74.30783470539617,73.74862335691162,58.44512159628411,52.71144641542024,51.231006737897694,38.03204453541407,23.51848752822869,20.722964560436925,14.507491105726647,-8.047297738151475,-29.767654255306525,-34.01792769227956,-31.558908781606966,-36.00841913338108,-39.71812290059573,-32.62198976917021,-22.200434847003855,-17.895880781894633,-15.004901485449956,-6.987595306005851,-0.006069960849671929,-3.428626086962865,-10.792726039343986,-7.834616640440178,1.14006306046306,1.9664015999210651,-2.6841680712346996,-3.855495825173662,-2.3240956555559684,-1.0708020460356682,-3.734527821873069,-9.446432933596814,-8.237696386177905,-3.76509345152658,-9.742578086019869,-15.603755556964934,-5.940014332979825,4.317077450927334,-1.2708400478714381,-11.381170438989603,-12.082536875763074,-8.02571050836812,-5.387410171246735,-1.4936013538763415,0.2578716075492311,-5.291986497031383,-13.900661678386928,-31.8755906172237,-65.60904041599682,-90.51327034459239,-91.39790051671193,-93.64444046105373,-118.3427446027233,-148.3690979508857,-109.39096237571201,100.19039170805803,468.05744531092324,775.0056686228444,700.8989890323292,153.40572874139178,-445.25540694779664,-562.6775066140625,-297.8369360417886,-129.14784774166662,-117.99037567424932,-69.30331618985366,-23.30752299464497,-36.37870558034099,-25.39442059734005,-2.573673010994245,-19.696135927553176,-29.93623636466003,-17.11532188532225,-17.7540328971656,-23.767216266072246,-21.082382697078387,-21.702538781235017,-23.579325188135886,-17.144502459116957,-2.3319031482483448,19.850470027452346,43.07759108551922,55.044601080668464,53.42794789457166,49.36418799510845,48.50235983408339,44.83890049627508,41.910731259243974,45.105891603213884,34.10885494590574,-0.29206237731541607,-23.246650130204287,-19.668233855388863,-21.37596375400852,-35.70145761897133,-39.25662992380663,-34.28190670534654,-31.64627735531294,-24.828899551461216,-16.15759384691066,-12.646669999311953,-9.632152292155272,-7.88313976574053,-8.475372815424798,-3.4759780312016275,2.3586878074150857,-0.21630070892602582,-4.116726019731441,-6.032520709640336,-10.063570056005224,-10.030674188432437,-7.232980126587119,-13.187292727701962,-19.270403925994728,-12.597390961424008,-4.702243913334616,-5.527906794461735,-8.789942363224174,-11.184237161125676,-8.593857023718016,1.8864174974165184,8.593781079312489,10.587435582721241,19.98375440105435,21.516543801587353,-1.472780924594904,-20.23018256756073,-14.083326276660202,-18.200363907542513,-56.41733441092008,-94.11626740667474,-101.35392809603434,-96.26419699645734,-108.8279834163658,-144.98316823704937,-152.21236223688166,-22.822946496293383,281.34845508176113,629.1096375422005,764.39609814094,461.7048905986428,-154.13453275738908,-546.6416689900726,-433.34428470932244,-179.63830904921804,-113.50058082110066,-96.73170137228213,-32.69097389867132,-24.961807194465713,-44.14480230639661,-19.856291352260406,-4.2973143262685625,-10.770467586331673,-6.224837551600398,-10.992333978468272,-25.972760106556628,-22.84638877381295,-12.996797618922916,-12.41316140757406,-12.053547860503647,-5.548919086773191,6.531445148030606,21.934984695660958,39.37249650626263,56.50097808379781,63.34920592051015,59.97921107588296,58.34669423029833,57.198561213380316,51.58264395713063,41.96204397046357,21.953384999321948,-2.3576724537945233,-13.84365731878918,-20.671134733136267,-35.101411998616086,-43.86613979645635,-39.48236951397185,-33.60959118599372,-33.611467838071256,-34.6651039341143,-26.842411845525852,-13.691680245744173,-12.996954747966633,-22.255003515186516,-21.275203606131104,-10.898499973361826,-5.3724423483408295,-4.920460557591284,-2.135168925615332,3.4129753246372463,3.827837262839605,-3.3817839203406486,-5.275182937647987,4.1008157621505035,10.669913169465275,8.011453654874542,4.4911576626650955,0.7994473510808646,-7.734947536044153,-21.882311396531662,-40.75023971816004,-49.5443459092808,-28.765071425611467,3.892776313940516,8.265124659931814,-13.64380024858189,-23.335546937221523,-15.288140451059142,-24.03724764925448,-59.206700959815606,-93.16579710393782,-112.7042943586572,-123.385528320619,-136.42597959999532,-167.5066035999399,-151.48323822946438,54.0948728265586,441.4025879183798,781.8030362986326,807.797314350616,376.4766494986801,-290.5094664001902,-629.7396430700666,-446.6568262655288,-185.65178723379077,-133.43007028477496,-107.21512864528513,-32.88393900496173,-18.461840965259682,-28.73264713659626,-9.295079630682213,-1.9466859200988829,-6.406258107543852,-5.388273916114768,-15.625094883249506,-25.179160603517275,-23.034101586711976,-30.47586844423826,-45.628913649044094,-41.99854281538532,-8.851118980017525,36.33918954999964,59.86690286559165,55.003646282090706,53.558934566421584,71.51528688119396,87.0216289963598,79.32813265357534,53.97983482021859,32.36399879474623,25.37495441219231,16.64161591249932,-9.337671210343391,-33.182125549891154,-37.44569686242375,-44.71587936711019,-63.632304155844146,-62.47132773636726,-39.86912745751643,-26.541221743622664,-16.917162050230623,-0.6044328660627762,-3.8376782661509274,-24.04946041330546,-20.689676233606367,0.9744351345774547,2.542743346756012,-7.590723647571153,-0.6313133364538821,7.317754726192099,-6.817911621855373,-22.7760587679559,-22.785191001868938,-22.82826071492901,-25.66984159979271,-16.015050918701725,-4.145902417634574,-9.530331145556211,-21.5136789035979,-19.082733432034516,-8.21125332586302,-8.229974625226287,-9.978737244341758,5.443324622637672,15.31145586201022,-2.6792134887996237,-16.79589840618454,-11.139884063709964,-22.028725159183818,-53.93520066496102,-76.40121859400973,-95.78027907254891,-120.75804743050742,-133.74009668759703,-151.63143223442208,-167.15977109215322,-57.20498413928095,261.0835472650493,660.9641004865588,870.3994986304943,622.197182395464,-39.14352300830984,-566.3668963417049,-528.3311758378286,-230.97594220826798,-120.0961797153765,-119.4375400811166,-65.06568465536137,-37.53496143483382,-45.45092215870865,-21.589086926984827,-10.031849358939226,-25.845465915779716,-17.89058407808378,-1.7190581055961154,-7.443430297219649,-18.30785952014049,-24.388743158989968,-24.631524210766486,-12.738534869059198,6.689224125098836,26.259579050113608,40.903359184939575,49.81542482073991,61.57177705663422,70.86262044542401,63.24915824100422,50.23554232496047,44.607008999678015,34.08168694568523,17.210411551679034,5.7729022558262635,-6.323678356041278,-24.85479369507124,-38.01945714388626,-37.17313086674349,-26.598288027367595,-18.40707141230511,-19.27395929687204,-21.3708233787433,-22.639241052812395,-28.665998134270673,-29.30584633046049,-17.687222528352578,-7.924601162004009,-6.8740494667063,-9.690493434223693,-14.475924581065279,-15.879886908443225,-11.911509501536052,-7.913272245821798,-3.0530300365445413,-0.37798886935512144,-5.9406289527660725,-8.80668665986312,-4.034417558572372,-4.861161932607343,-8.3302083567914,-5.256803841423878,-6.2779239587767,-11.03834233352644,-4.601418182452239,4.886378666762642,4.66737619975415,4.383013356190759,6.640489250671168,2.2849244820966037,-4.975035976354086,-16.965668963595242,-44.7117746716911,-78.0836578822563,-105.46060138797586,-127.66901164097696,-137.66988385206676,-151.04252007355944,-168.54220221161455,-80.60150142795396,201.04784514560677,567.0232055723466,782.6999621968372,607.428719068864,29.94915834780332,-481.0014340781875,-480.24359939706693,-212.47857515928735,-107.08460636098098,-99.22789745041622,-38.66201988946218,-20.877019177490794,-40.87285064895066,-8.623102941748378,10.347920933711045,-21.03077798412629,-28.945008590871538,-24.43314889992463,-54.10567792526842,-68.73583064484254,-38.28628937947426,-18.53869488993165,-27.95600594448893,-23.5229097547501,0.8338138201554681,21.46581891052834,41.35378605980683,58.16898034255589,58.795000053017276,58.26971121148582,63.79908277853177,56.25718477808847,39.64354877596078,28.106271366273962,16.20677700258013,4.202189698694445,-7.343868274013708,-24.180323430786615,-35.18770738175089,-38.76616630622895,-49.92650534110285,-56.62195493777896,-45.9819112108585,-35.636058474093154,-31.896937390207967,-25.52351400834697,-16.06129155047011,-5.534294480977792,-4.809473420989896,-17.02449362386814,-17.29486831142626,-4.010759499379759,-3.999274437428923,-11.145406960292146,-7.778178978837442,-1.907477825300905,-0.2283248285193018,-4.959975950558331,-14.987209534625997,-15.522186387746949,-8.406962727428837,-8.779590100397499,-11.23308912890641,-11.199962184428884,-9.969061946189738,1.7983571530793352,14.152514083009972,9.131464120898103,1.321593880004671,-0.830165443049161,-18.870196783588288,-57.17752659361065,-95.76410572805229,-118.3138516957158,-116.80251925675188,-107.70657400873078,-127.71313390392109,-144.9723164862736,-33.5909583614268,261.2488008222559,611.729382542885,794.3612850088758,591.2355721192613,6.407591053350544,-515.5528272731667,-544.8336006865765,-284.7370544719921,-149.00592449369674,-115.07806277887525,-44.23155232943921,-13.00782873286019,-30.106301250708192,-14.691055438365165,-1.2752977048293026,-17.44339761493211,-18.941397431738203,-15.944257906813894,-30.63242465982108,-35.67474376023574,-24.71687857243524,-16.027994126684504,-10.73051598132592,-5.0097460737625745,8.994796853457888,39.27968735540857,68.50824899955775,79.31388425311454,83.23750857241744,83.27139329604151,66.32708648567103,48.10373590476724,47.45062688205299,41.91816982575834,19.660623170288332,3.3262657218097096,-11.179976737642608,-39.770787635374795,-59.53712991970071,-59.514387360966424,-61.56967227538849,-59.53848179419261,-40.36496601066979,-26.511235236571846,-21.664165744085825,-5.137391727072522,8.009922510648751,1.7697903505554535,0.4568720524156422,9.084650919549105,2.8507139588807213,-11.722922708957412,-12.218131109010141,-3.4616257951636626,4.267034765709084,4.567147239042598,-12.248438397435832,-27.378754866422312,-13.288727010830367,4.677702781847884,-3.447002108122085,-11.65778667631174,-5.244422484346657,-6.0965030565641065,-7.195430724892072,4.2644548580726624,10.609780646200774,13.451882235605385,14.519515382538158,-19.426487096850515,-72.92928104314146,-91.59567247324183,-98.85853166787871,-129.74210509779607,-148.45476557061113,-161.27064499082238,-179.7585307851675,-68.88998581135414,270.05095904928146,689.7959021453702,923.5656992704395,714.2000165439498,37.72003335455818,-592.6737120041249,-632.7957451445994,-308.85175328191207,-150.7228029744716,-142.98661321679336,-70.13970306045445,-10.11837348687817,-21.300432198088032,-10.619792034372452,12.484034648595188,-1.7167283804514213,-15.170974637491785,-13.931278841069602,-23.002768626377257,-29.096645360113456,-22.802761305774297,-21.817440922325495,-20.659721809748632,-4.360203556186424,19.98445561795796,49.40799757918282,82.92936477807493,99.37868131154157,94.07304052194813,86.95732512965134,74.76646521143316,49.94667962935969,32.15301226194744,22.096760989572743,0.4350708408184305,-20.929459047531147,-28.51209032761226,-38.199852740655786,-47.95431692454635,-42.007678884545896,-38.60458718182092,-51.61449969985286,-54.37485518228809,-37.115381194570155,-25.98466199709951,-26.72391666219597,-20.720404627133362,-5.412980007801991,5.41242232138778,1.8807506460077619,-9.190280108869867,-9.891944963369493,-3.6470429710011913,-9.469524943387764,-16.130649411803713,-4.925904594231678,1.6172221298800409,-16.133954980504086,-30.73050536265762,-20.85314408468431,-8.085112043987728,-12.136539773339084,-20.678479470319964,-15.489727096286614,0.06589773442126301,7.25550674794005,0.6243686089109008,-5.871176780105403,-13.3160254063488,-41.559032827662854,-83.74105863077158,-112.147659689303,-123.42854467097158,-137.71505780969707,-184.93634124461082,-245.3381849893807,-170.05169840013357,171.89918964819728,667.0540314085815,1009.5680799594065,874.095839045119,192.34872201646175,-520.7350366333802,-642.3122204312118,-335.34685741887847,-167.0550669949813,-160.32752430322276,-90.10363814504035,-36.58198214539226,-54.228929944001806,-35.97175611385018,-6.051361483671943,-18.66385263039696,-19.858555293353376,-5.913190773571802,-15.139902283688464,-25.401215009122684,-19.961022493971598,-14.588962164200911,-7.096334806339863,10.586332670386675,34.173155687605366,61.656982204571534,89.43332210452608,101.74273188677188,89.10738575192877,65.94243689354252,48.01609947749262,33.91687436020094,21.426472298129262,10.2123599470152,-6.1172509992283235,-29.157317366950934,-51.43187893444349,-61.44797610563219,-55.627850496854634,-51.09844148191986,-56.00456392746271,-49.75255828637586,-29.296385959722016,-16.819005596880857,-14.421753784949995,-12.1671518014487,-8.378166441774262,-0.5152178327607935,2.7328454176828068,-8.053009692556945,-12.732672540974445,-0.3956347399632669,1.4490600055208027,-16.761388013923884,-25.991270299018492,-12.833852998442747,1.2888792890395848,-2.591354375208226,-14.021756816883654,-11.657211951921063,-0.8428656657753066,-5.640236944230086,-20.716689437204085,-15.156118429285286,10.132965886993153,21.64668759106226,12.868097405040006,5.203076783775115,-6.394768151468952,-41.87073557703134,-87.25862841031602,-118.15307409024838,-131.90477192797346,-136.77303368142032,-163.5222147577192,-212.99113225139135,-158.51613821913486,124.04058307318451,556.6085456940298,903.5557883727361,858.8609960408228,269.75212232270997,-438.49510178063497,-613.157412551529,-328.7158540385014,-150.65050963626015,-152.64953450340434,-97.85023177677706,-37.62260974628623,-49.26940632305449,-36.767155899978945,-2.5055120746469015,-8.179914760965481,-17.567325681833196,-10.171603715071717,-12.093156997640456,-15.367051010870782,-8.636685620088368,-5.176783607917681,-10.384950273810901,-10.18736333901634,12.844928398050099,50.083384553829255,71.17481312116685,68.97566465441784,59.13785171046999,46.928373849256324,36.46645474774441,36.779994066760025,35.65038891592881,16.897792090682618,-5.206166585896092,-19.413228286557555,-38.84994257973771,-56.38683403534112,-53.28640241011128,-45.97155611504475,-50.251799306566234,-48.34807393339891,-33.70183169478327,-20.981055055552012,-13.208919791252516,-8.905605067955939,-10.527830846911414,-11.730540775893015,-8.276647438075699,-5.601188720196813,-3.569721216122442,-1.5671305629220242,-7.274784626778512,-16.740542146016466,-15.026795706307858,-8.491223469825592,-14.598028123165086,-22.584333977683265,-14.273984429827895,-4.00986896178723,-7.868560483449521,-11.469647545130684,-6.405145732002776,-6.467325745824237,-11.400729073951833,-7.538507841615589,2.3967743005231874,7.858431522342062,8.048595529282212,4.609072852917336,-5.976379681005987,-28.28684122711933,-59.14980712341315,-88.31585855805389,-108.46036114465142,-123.10108745203446,-157.507278572677,-214.79528092868713,-191.55929507612657,39.36856003440019,446.493008289329,829.0242033849195,878.1238696268656,382.2049956023446,-325.95408994766575,-579.9039550041962,-336.433826537761,-144.70140744561522,-153.0119212087003,-115.1469221191494,-46.079495483444774,-54.460863965954246,-55.1714442558639,-22.47422291859915,-20.858142913866295,-24.20070702077424,-7.2356628873442475,-6.508851813506148,-24.250392232828418,-35.67946059515895,-35.89707671376653,-28.053374978625474,-15.001052983291924,5.099483294566118,33.346163160864975,56.96578271287177,65.50849918481673,63.33738360582143,56.41475203641046,47.31930455744442,37.641760384611146,27.229317111440274,16.35179460788257,5.19769951760553,-6.68721788722172,-17.752751917476875,-28.200028463799583,-40.08988440656054,-47.51566077343226,-43.51565705154464,-35.535483003595274,-30.336995293001294,-21.525510675377422,-13.262550570689832,-16.384553936176335,-17.46469280131876,-4.466378413157912,4.366626552984201,-0.023807333590628588,-3.6053963073678723,-4.233653071975745,-5.061223931148792,-3.3445920184087363,-9.33292257346275,-23.07684592229074,-18.72186838095979,1.8820738587086971,5.55067785523239,-7.9523210016609855,-12.600647572909217,-7.456484468942211,-7.124078302644541,-12.4093962676753,-14.516334363281246,-12.365495430730512,-16.109551885261965,-23.07168814450536,-12.454823953240865,11.150637657945726,17.50032252207398,8.54192156820725,8.261325308498096,5.005647332673341,-23.52695331736279,-61.175485007348726,-89.34255907456034,-113.42860095914551,-126.19674192609946,-134.47163123800564,-171.9952421392905,-172.2970302233461,14.130294296407186,390.53006217035806,768.5993930530807,864.442768200274,445.74969799454055,-256.07763065092684,-589.1018429965245,-389.16915607573355,-166.93366236552004,-154.36077178940081,-124.38937579386493,-50.05749736655312,-49.1951416546339,-52.70214576123846,-19.115700484363458,-15.76355137878388,-27.135635009435802,-16.22439441148818,-12.348945437071318,-23.59465226833683,-26.816691273353676,-18.359730488012172,-8.178589911923236,-3.739969972864083,2.907179032769604,24.006543218772904,47.71854964071733,58.797259913036406,61.405281765945176,56.85452848909159,44.389131144993065,36.71666230804682,37.573517971233656,34.889281565795656,26.105665870380964,13.60857709179532,-6.832919649017866,-28.203627595735398,-36.37626923165764,-34.377139271651,-32.29683568832568,-31.050270397401693,-28.47246857939185,-21.104936672679987,-10.000888669975726,-6.813330071962298,-11.81335899841652,-9.84816491851328,-2.1813674733584953,-1.460622107294455,-4.007884779434539,-4.760739245276671,-8.260175067528207,-8.711998107289524,-1.2239058736720434,-1.5778698996325957,-15.39584111988151,-20.008854262934197,-7.279144578419086,-0.9365390132162723,-10.335365094687615,-15.769594533456893,-10.846462500054576,-7.749541705543237,-5.627101755376117,-2.676273938585622,-9.663810818494756,-18.074238610801075,-8.283453438863837,7.169514741690124,8.506253844818993,6.120958941394197,9.142408365713491,7.9402347905232595,3.2334117140890557,1.523582500084916,-10.90511291017423,-50.84120214115772,-104.15514039202174,-132.00326300748478,-124.06778546380235,-129.85000467304192,-173.73551196146656,-157.71193373737643,36.09573727744659,382.9225450046711,719.9707101289412,779.3119237066608,348.2782206390648,-308.84571856863505,-579.6668077312227,-362.7769451069946,-141.27259542066594,-111.32320908251229,-79.45662748503447,-31.13659090974258,-48.45645768204401,-50.301032645503255,-9.9945487550232,-3.248793633516364,-15.650734976702399,-7.895555099514526,-6.743815167695807,-18.834931690091842,-21.625299991572902,-19.275216049299885,-21.92837064462142,-20.52283051369914,-4.309673161160836,21.059929423258897,40.00105176396621,49.501820428628925,55.998838359457864,53.827690292624325,40.00322049282331,33.07782347145038,40.93140705712932,42.26271698120186,26.340687081095915,6.080710568346382,-11.53009974132399,-23.110118035255688,-23.617142083644655,-25.137211035742787,-35.79276576056764,-38.906609091555126,-30.721702434565668,-26.1148868403481,-21.5121034722696,-10.82677758484611,-7.679714913061343,-14.146220693713882,-14.129158744024119,-6.054229809086124,-3.2082420211898537,-9.065683814219504,-13.801170412028458,-12.743813619734457,-14.316244469986998,-18.294057579061604,-11.959720329951944,-2.6378352758679817,-6.741121240737211,-11.394554900824097,-4.337488274344896,-1.775754336395675,-6.317794476741279,-3.1929416358367355,1.4524685918320976,-1.118044979846708,-2.9153501057606324,-2.6913085199970475,-3.5404035664266473,-4.23974299190526,-10.855376182482438,-20.341227264898123,-16.330988655825728,-4.2828108940929255,-2.698627495039595,-12.45738075333017,-33.2873791521886,-66.93633379789998,-98.63583689363008,-114.48947333672149,-118.80977879368402,-135.59843662856733,-178.751571226818,-168.67525445061767,25.466789320678515,396.70230221874806,759.4393194237232,835.4719993291653,414.65979853090664,-269.6401615332859,-599.1429864659895,-403.8268034452394,-158.29278445265655,-117.20046678981663,-91.46208865376002,-32.72822334614298,-34.21039863566674,-38.377060324764386,-9.530561756828206,-9.192989506606605,-23.98740336574815,-18.906845352285956,-18.224234483835108,-25.746273146146315,-25.598829472831152,-24.299696883164444,-21.67364435163755,-10.216013105964958,7.066698418692354,26.537373489402484,42.040647285758844,48.11089427272179,51.428829398799635,56.159559206616485,56.64966468566487,52.85855098161471,49.76917069222618,45.549223672387264,32.59064431132479,8.283619140024012,-16.808206311148943,-30.27844443767686,-36.09576013382643,-43.66253970066278,-47.99977035997228,-41.24409282387422,-29.326229783235977,-21.726571324168695,-18.085594603505108,-14.305225975723289,-11.617660601076334,-11.280506012191676,-10.002064782322705,-8.173284706248635,-8.167643088410472,-6.11487703060277,-3.430652407864743,-5.353480437721123,-1.4231333642752375,10.300405606125864,3.9764639994380637,-21.17665785391355,-29.273698425322955,-15.9396280086162,-9.473134744403708,-13.472904041753212,-14.46424198288354,-11.864329435149983,-8.570994556263189,-4.92594917014838,-3.3886381702072406,-5.947180002602799,-11.932719095226801,-15.127751654900162,-9.535649970309901,-0.2894239765098874,4.284462593573934,2.595022124512166,-1.2380008704054708,-1.900717627368783,-8.462489037568544,-36.30535610448714,-74.59409570462604,-102.25155887821205,-116.19302839873274,-124.84567131033165,-148.04037331634143,-162.2623645882581,-51.83638580864421,248.20523434708423,621.087666712829,824.7137379970559,597.1574606444693,-36.485576964285826,-540.3358425312672,-494.1248812035486,-212.67193805143657,-119.21507473229829,-112.10810684641703,-42.411449286321066,-15.660346516744823,-36.51552434519654,-20.713785747860104,-9.203782748998858,-25.788373147055786,-24.429954756390067,-18.370849678891993,-28.770868697857225,-29.368046739429353,-19.176118329556665,-15.026796636600693,-8.524959493244037,2.4365485109581315,9.854817358781482,22.988213420229297,44.70642616757228,55.98193029234379,52.37228174268377,51.52042794883494,56.9122152667761,56.088150349475086,49.35709953106443,44.60281437154719,35.0715204280634,12.76361941322373,-10.179880294553488,-21.017443271585957,-26.247215811785555,-29.148683287710895,-23.540966889126516,-20.15190146538456,-31.177148384389902,-40.91919233909771,-35.03348102308205,-24.65886111106152,-19.87821140489182,-17.617200915767917,-14.036361381906444,-7.666237930542096,-0.536452999999387,3.530003766183791,2.703119891470296,-5.0848278904577455,-14.956397574621304,-13.88424819419711,-2.618475697423186,3.741679315350776,1.865542423748332,-0.7483603182788876,-4.91473528864006,-13.307869845669185,-17.535415336139394,-12.506030689028409,-9.67867695446666,-15.230484774164708,-14.91466165582792,-3.523412280113501,-0.17197242217492104,-11.754269765799473,-17.145170575919057,-5.760279490437004,5.236720924633537,4.466617244904927,2.9918822370645706,6.590224980201507,0.27003405653739954,-25.509436644005916,-59.543436250454846,-90.69496315950151,-111.62197474767386,-119.06835274961742,-139.16582480528376,-168.59824352886457,-94.04094496820379,177.64634877811193,554.8605692035673,806.4225630140336,667.5497136710159,87.56638915690608,-486.7492960434287,-553.4368075903153,-277.2392957538387,-124.02588368016275,-110.22137496649114,-59.49847659324976,-25.214097059903295,-40.6542092454515,-25.106550929153915,-1.4035272011913555,-15.800701712569783,-23.06346683101289,-10.255568451890733,-14.072469851695267,-25.512925901535677,-21.92131211555408,-18.14330542532744,-20.295659837060384,-8.931083043848176,11.052886695509315,20.07395367254065,29.716309486434977,50.01318716189054,63.27279362595551,68.3931959858306,78.32583758098845,85.07191076650531,77.62793420594232,53.382667910521235,16.549726593626673,-8.735735946660483,-10.593464700896174,-14.24190160040645,-32.49077958227476,-49.24120799634285,-57.408666908561344,-57.50906033876505,-46.04346609933729,-29.661322735810465,-20.30736546669771,-19.908503990441783,-21.087489260831223,-15.984398538874526,-8.720102205634259,-9.279019458126879,-12.092913808110614,-6.442180261266222,0.9050567352515451,-0.32186691081350105,-5.8818149371182145,-8.413662222226497,-8.020545155002086,-6.438382291921442,-2.778540961552242,3.414098127263582,7.190412333755745,-0.6880019344158157,-18.67797356420681,-27.15237226037845,-15.360576996784228,-1.6161737498975715,-2.117747106758678,-6.48659193070543,-6.782545290422451,-11.100831561518557,-15.533216045138905,-8.229519245583226,1.1158261388706574,-0.9659791814125676,-5.086740988152805,-6.83793131016354,-23.467828112847844,-57.925242698297225,-92.80457353365833,-117.63528332223396,-128.86032395528224,-141.91101053176936,-174.35087875986812,-148.39148541362124,68.12590139695578,458.840757905802,814.0526976795377,836.9003413211517,349.39406075155557,-347.9247235745187,-634.9110159366896,-409.38098030871043,-166.56923316760384,-124.01823807994502,-86.7420440874872,-25.115052585667442,-28.391765811958848,-33.23843867605779,-7.293953767708135,-6.677464731281596,-16.331717596220876,-10.407852333743902,-13.391243635924381,-20.124940503220007,-14.530408070091255,-12.84863109405996,-16.69947418504343,-7.130984098207519,12.782639790158953,22.404119608044915,18.61898807424552,21.570049055948118,40.38650153507204,57.00129530661634,61.84137706255215,67.36839684101439,71.24597271969986,57.44418176853267,34.87461573822086,19.93520016622668,2.0767421063488114,-24.422263281275573,-39.47131030224347,-38.29112264021749,-37.15106373168341,-38.181281004444266,-36.17925880589134,-34.78534576752518,-34.00818338261176,-30.501879402996146,-24.819718633849376,-17.118801683253245,-10.188834255253077,-7.6616500473953835,-6.6104150016838155,-6.200481213360998,-9.436139248576666,-13.0731015552138,-13.464623319613782,-12.439817750180968,-11.41053838644919,-11.195713275881499,-11.227809400833866,-8.405291475457215,-4.353204276484082,-3.4015021711541884,-4.425714211752961,-4.868648821922701,-5.079799544592106,-6.932844824298286,-10.813734415628153,-11.839279416874206,-9.28432575602288,-10.846984328709155,-11.06577523605875,1.7914203095689647,12.132912747588984,3.688106749285696,-4.540058548894251,-4.486422685916762,-23.01452870198907,-65.20940684742567,-104.08303465245928,-122.33839076093838,-123.53146654375817,-135.8925402991883,-166.66220049842235,-120.49136146021013,115.8518441962608,500.7880317997116,817.4419497695815,760.2254648673484,209.59152340048277,-426.289516920763,-581.776328713544,-322.2310588456543,-130.76878763512116,-104.17551124007389,-61.034006830710695,-20.694941519504553,-38.63143677616844,-42.28696181928215,-24.59414846736847,-28.608045868514665,-30.602855590144806,-23.667500930166337,-32.05997319898214,-36.95250181428196,-24.23689576396863,-17.29333137326072,-18.014679520439348,-10.00114658109008,2.053876789967242,13.05149134588494,29.804157021117007,48.21952090714871,59.942754852221725,66.61123104805435,69.42044387286145,69.65966021635153,69.6661314005353,60.46724729470591,36.21751194372645,9.634420665117641,-10.205691245654787,-26.42821803874012,-38.51050655158906,-45.59601210805564,-49.79132148253518,-47.18850522707678,-36.551022808438766,-27.338839845317757,-24.607429602715275,-22.867267783663184,-19.510875199662383,-16.926390021823455,-12.918248547277596,-5.307984164331316,0.28717020989147457,0.02338665768625603,-3.573588534101763,-9.683536350825378,-15.199802294553226,-13.040760260396612,-5.175159135615395,0.23816400592014908,0.330402822977355,-4.34749242825103,-7.878630588806555,-3.4811725694250004,0.40711881062593136,-6.011429477950767,-13.15169890621448,-12.321949014971267,-10.532438515970673,-11.940826674789541,-13.976736871789178,-16.266031244372964,-13.873358520181334,-1.9496583271839896,9.18047488741037,10.396570188048653,7.371944799408519,-4.663597955823091,-36.554060916698894,-73.38324923564433,-96.40910492858353,-105.51473546025161,-109.93016756409185,-136.87217499556488,-170.4290638190622,-85.4468216309649,207.94054340789216,604.0144930411328,833.5663543738073,605.8162922461963,-36.43014004034812,-536.8986520353102,-495.68212575889925,-228.30084449056022,-128.3511045286525,-108.80978949894396,-50.15300278364498,-34.97642517097137,-47.91662421809937,-24.422109401639243,-11.990739831739774,-26.693697998648055,-25.47744811002999,-16.64967209400987,-19.961537215335916,-25.15140472242743,-28.556136759452183,-30.67122038837011,-27.09990538502865,-17.276080453713273,-0.6827999668103926,20.177624118807614,38.71846297643006,53.04756465202374,64.62216900137557,75.38331124925708,84.53034345395677,84.76045904576786,73.09696756644391,54.26581264387872,29.283231066875725,1.737333421615971,-17.297968732959536,-27.64850368571756,-38.415650131778506,-46.67236040120336,-45.33058753508049,-39.196706171073785,-34.67972033397257,-32.611402083971846,-33.190377131135186,-31.851698128064427,-23.04083909315618,-12.985189247852269,-9.525784245328971,-8.489629413568949,-5.52002343644504,-4.0032569489096765,-5.781417696096206,-8.25338630955184,-8.325708891599582,-5.993630840257442,-5.553603194165671,-7.716481739971265,-7.606010121467374,-5.501711639388098,-5.052212424940302,-4.938346575029087,-4.927726369914389,-7.172685557524453,-9.300926528633065,-9.292037932097227,-8.882130495360311,-8.5449193908252,-8.635225958522021,-6.899514769225579,3.2740456049546367,15.99499581802665,14.791508411026712,4.231773525237024,0.11872333820064362,-9.341273133763327,-40.917328668341355,-78.10459824318744,-99.48724623603243,-110.2171454042931,-132.9247236484846,-178.05735908688615,-186.00178114358573,-42.58410219360849,284.34691918321266,668.8531928957389,842.7269201575407,532.0391981547377,-138.7995268318052,-575.468550381071,-474.54452954616147,-213.65589334101378,-126.87206361765746,-99.53889551850945,-42.40080030608378,-26.727896350445093,-26.579388752730004,-6.655209420392644,-8.671269568171063,-20.090240062027764,-15.28455971202913,-19.737908464092786,-26.857383052282692,-18.432603682228105,-18.46841348803575,-29.73830546479556,-26.52536901508833,-12.111062354908679,-0.5932391049346837,13.993636294816993,37.23195406201494,61.75303969815548,79.86187525848639,90.18586247483087,93.36695409106355,89.89968431467216,78.3146365270563,53.709319339633,20.79531752582914,-3.9554496747081913,-19.10560598801078,-35.98525784610316,-48.91572586756982,-49.63781050582318,-47.72502827827471,-46.85856599258382,-41.155390616977584,-35.161885649979965,-31.30427177500014,-23.307749306257765,-14.358839766042664,-10.238322971940697,-7.610721450880906,-4.7731890390714025,-2.3133408544907574,0.202081083883332,-0.7341151185199486,-4.265181072051615,-3.4621007402378723,0.5473084978744964,2.1519525072120906,0.7908586368261883,-0.6409355211491015,1.9216654780006817,1.1331380721543738,-16.769732312700423,-35.22867350962424,-25.893700902190563,-6.931574857546558,-9.474983985456007,-16.482622905580268,-9.19757750209902,-8.896023323373463,-17.717536355128463,-8.85263001468568,5.975840643600594,-0.08893739437467207,-10.308226759141428,-14.524556246160293,-37.42555482182514,-77.64741208176048,-110.44177430875703,-128.9317762787985,-140.84234725059682,-166.31766006461032,-180.27454774285815,-59.37870172556002,279.64636311600236,719.6977802627531,950.3477885050495,649.5906160799227,-82.44576961485129,-608.9350706150061,-545.7395078826778,-262.8949713208009,-151.1324923556923,-112.57701037367347,-46.19044462534913,-33.37965870409354,-43.22158290140862,-16.393141878756182,-3.3455065961694856,-12.938874966910113,-10.921638939043671,-13.561890787789082,-26.106948379174696,-29.488377710363906,-29.421441061389093,-28.65156131572273,-18.51028940431957,-5.628277605745966,4.995366722874613,21.92113324900687,47.16777070973687,69.65002995821715,81.18667281405186,88.01913882432542,96.41469774007084,98.18201967394737,84.76579721841057,59.148705599927936,29.675358706126595,4.328417084989679,-17.087565055940956,-40.83815272690053,-60.286587776722605,-62.31775328561898,-53.57087010821012,-49.13416108599793,-45.142662724851235,-32.19448463762488,-19.029130498228536,-15.407055264945626,-11.654371435501059,-3.101947882119994,-6.549741323017461,-23.072980828628417,-26.555044063226617,-12.656257827895146,-5.434546937702525,-10.024126347237846,-12.73761468881824,-11.90549251720654,-10.79602322352882,-7.659555416491408,-5.1455671117539055,-6.0651962875893055,-7.218997941436815,-7.222714967397053,-7.389566183688544,-7.083048539662752,-7.531974865124262,-12.190197612197807,-16.496130045597162,-10.056679615619142,1.8236422332575426,1.7403574350080397,-6.366415205297164,-6.830885793134565,-11.580013424620537,-38.66815533073612,-76.75911688287121,-108.4868208742165,-126.25349673763922,-134.90110941111797,-163.72639959937447,-188.86249511716358,-73.1217340314055,272.66519866818396,714.891969326115,932.8637782144172,630.4089346052976,-76.50466998011966,-583.8122905035684,-526.0389821057231,-251.906009781399,-149.29824397434083,-125.26742855693453,-57.085314160785416,-26.40968663981802,-32.317624972060244,-16.53552769180464,-10.235250091815526,-20.360118725273125,-15.418820349286667,-10.455533502648926,-16.00476703563892,-19.979002650536387,-26.020087533122993,-27.96646573056716,-18.554057639602892,-12.554172597855326,-4.6369985596062016,20.491355247091057,44.54967671883572,56.26722556911671,71.44691571234121,87.39370597200049,91.75011458818666,88.84686304339688,76.86393130820915,51.133252999805904,22.90546578070528,-2.8026165711349327,-29.860788195783986,-49.483037321445444,-55.2508369683099,-54.74994012942001,-50.15908285686435,-39.99798722850363,-31.751180220874552,-28.259308317439626,-22.28639755365148,-13.137663192698998,-5.008530433310561,3.5773943683728273,7.615694734790427,-3.7529822666826753,-21.3091319640797,-25.40028456436155,-19.2443535818704,-16.66683360735486,-16.890825260638273,-15.595691636705102,-13.719677791587728,-10.57998721152573,-6.608425937948905,-4.945767437713965,-7.225929749052749,-11.49596240551023,-10.649116041471876,-3.098193281838654,-0.5476773660525325,-8.35744397272379,-16.36302559866126,-17.2053634021973,-11.929796025179629,-4.138257717594509,1.2079008368560151,2.4543440144940316,-2.984455966842555,-21.857483716657438,-50.501981678277176,-79.7240658686462,-106.4873837098834,-121.51479011848267,-131.12878257750234,-162.31643546529853,-162.90077605748832,5.912858499242276,383.09007433173804,787.2974725030895,881.3471354604342,440.23288421295723,-256.7555656929767,-593.8578768261866,-428.7098654552478,-202.5554151624865,-145.55494727337506,-104.60689766205502,-46.06358709781259,-43.2405948096507,-40.65392677289996,-10.858757778867503,-8.349621367234327,-19.817333578974043,-14.723478682180684,-14.275300434709614,-22.525145662617614,-27.23873026297716,-32.69751603997543,-33.992847285299035,-23.98774992775754,-10.65025770666955,5.134987987538187,28.88938399658567,52.66520934992508,67.91745535367112,81.16251749468552,96.9208113167546,104.67510017191839,97.20170954788098,79.0566399285087,50.44061674672898,12.694157699226658,-17.794682537560952,-32.84597491045348,-44.51685711158709,-54.3539160905535,-51.98721467728286,-42.96938495086723,-35.22745242886796,-25.459793485207086,-22.542358721994713,-34.47317809187942,-41.01487354368976,-30.393623062801865,-21.03482599469957,-19.51585946708162,-15.203517447765407,-10.565101454405891,-10.219178625310388,-8.556715749887513,-5.5498520878898,-5.2399871515805785,-5.6572072099143895,-5.011148244850631,-3.8330439225026076,-1.4984579516528278,0.5511712718126365,-0.9217420276438659,-4.632275314768343,-6.255246216161895,-5.792780878788557,-6.0966059762114,-8.810124482657606,-14.011580007435168,-14.053284361190695,-2.7542049315118824,4.315333499279893,-3.958329956616442,-9.672902683666962,-11.545670913472605,-33.82153306009012,-70.81427782831481,-99.15503968643392,-114.76716478044986,-120.97056135753392,-139.10865486087258,-169.73854855584793,-104.2674897137846,172.2021205532521,584.1982628244704,858.3582620757945,685.7500699213886,61.402447978345236,-505.39783094298707,-545.4398109557571,-273.8342831428872,-134.30092922883662,-118.72013041828798,-64.32023336081181,-26.6317870998229,-35.57132331372213,-21.60461986915807,-2.3233564398932565,-10.166413637353667,-13.959980012628414,-13.890169771781032,-26.587733022046844,-32.580650130422825,-28.819748213891287,-29.81343643283513,-24.832996279261714,-8.22970878011075,6.484352718397134,23.3878172746102,46.57871849106312,55.724211821069275,52.60101927252392,64.56480183616408,83.63749366461747,83.75110790312988,70.67872178795172,54.26456779865192,30.161157714573434,3.9546311457542145,-18.23837013720416,-37.96657476362981,-49.79518496875989,-51.40107968844772,-48.873838571453,-43.614650433011356,-37.09183273431475,-31.71810665040192,-24.9591995658345,-18.60912416122929,-14.59487922126845,-8.32130616136428,-4.644094260715288,-10.966324318342679,-16.47177133946436,-12.05134368222789,-7.417205384803516,-7.302108861482578,-3.1098236251427043,4.141849367295793,2.255268273882674,-7.411326921122203,-10.204934710539924,-6.797870627270218,-9.466559372740786,-11.964267228195,-4.479235884973061,-0.6254166831355974,-9.427397883745272,-17.463755866874877,-18.48723692010991,-14.76861657320843,-3.3078797019637243,5.074979605124499,-1.6898119706193793,-6.091335267206935,-1.8866967747229229,-19.55324759599776,-63.50788655419132,-98.79969732003713,-109.80136457915428,-110.37553661410823,-127.72455258119022,-165.81822300784347,-130.48185479351366,106.91295941261217,513.8330557288539,839.8728425571708,757.6054239479905,185.7192398483184,-438.85953401108594,-580.9215181159356,-331.21551778113957,-151.81628311760613,-119.69139072474238,-65.07008751877291,-17.899565997519915,-25.33404137545773,-14.368782362846098,9.283724901874542,0.027261783471509204,-14.700872670792855,-25.738625712453814,-44.70537429421371,-44.86401398471903,-26.449359573721498,-25.567790568183646,-37.46874287742514,-31.558781792358104,-9.268152482903004,10.337863245009775,29.72674390801146,57.995999503710514,78.45452082128189,77.9220404478805,77.9017148903087,89.21305185572425,89.01173696445974,67.93063853413665,38.05608006448427,5.470185439168177,-21.75568415956104,-34.97268504774508,-41.568852304647784,-46.009502888815334,-42.45243658410308,-38.63872519275845,-43.08203827820042,-42.52431595543262,-30.707392626207024,-24.097363315986684,-25.837902162150346,-20.612340823296265,-10.3135471985848,-7.497932122851232,-7.926093722567398,-7.519548108105862,-13.038412314088152,-16.977589470399494,-6.882029715837639,5.003308924843946,3.1662982225421494,-3.6757841593513696,-3.816120860382471,-2.3138346499449014,-5.107504577270129,-5.373795643722648,1.8304931187822984,5.58109072926899,-3.0139073511918113,-14.888084713665204,-20.09543285894545,-17.291563131741917,-7.755353869512076,-1.5081586798063782,-5.907003576271824,-9.683125146887125,-11.116482964801028,-27.112241551035343,-57.85033878005054,-91.53159651594521,-120.32664258619997,-130.52851803012084,-137.45180218342483,-172.57037427047723,-161.89711739010653,44.553142708541856,459.531913063587,864.0004450559459,898.7551244476931,372.94955279136343,-346.1206200348784,-623.3798139595813,-406.24746176335015,-182.23086648151107,-131.400413312786,-80.89267176887705,-30.408804106948764,-50.85647301109408,-55.52323310442536,-17.718509198141657,-13.732887081113503,-32.2988452146012,-30.53179289777024,-29.42174293839342,-35.35011070680254,-27.583442464003852,-15.485121770339315,-12.71970115839114,-9.274388618652058,2.2785218135256633,19.546266540425187,38.580802299196066,49.840419324511785,51.59466939050132,57.61671710762515,69.51680435995338,73.43208259315786,68.42589115190646,60.89527506168772,45.56913262764792,17.721145492775,-12.486368175666128,-30.12641994018317,-37.710343296428206,-49.708188023741634,-57.89452338443899,-45.74304829354251,-31.00602401265789,-31.421929190137007,-29.071716203457477,-18.24143830779757,-15.93509655157698,-16.888123977152357,-11.081471740168134,-9.285745688765896,-12.294182128158724,-10.394376346997506,-7.359677240754337,-5.617307201644607,-1.3100069530530103,1.0167563924109544,-1.0687970322800169,-3.8945435534126176,-8.122019948748605,-9.749304023493368,-2.876386126867219,2.488884349180635,-2.7627513342993666,-7.382888089328436,-4.164385185711129,-5.56430134081991,-13.976516330169261,-11.34159118636887,1.223403768528696,-0.7617194099478048,-13.101997426004916,-12.256391606882701,-14.535959425984844,-46.49497681809517,-90.76620872862749,-122.01371482904969,-136.75343623433355,-145.31020597849522,-171.9080248575748,-178.55523796281062,-17.486522858821587,387.58124446256863,850.9172664361627,995.2337546766488,562.2807640486214,-201.1036605716929,-650.5480449106796,-530.9846210482608,-255.4221675704885,-155.83464059256693,-114.8993837892301,-48.17453493136243,-39.63130956731706,-58.857944460958834,-37.72848096519165,-17.057152485675495,-19.353586622706676,-16.68861093214945,-14.73309543919629,-21.332920854195912,-22.421840742691618,-21.584492198170718,-23.890322524413484,-14.028807622972295,9.526039501990173,27.54354390061964,36.09726079862274,46.24947379625014,56.874679622810035,62.20708327535149,67.00695303946326,72.51646208130718,70.5397421794866,58.16470611825306,39.16316247192309,15.521276990278189,-9.12347389940559,-27.201668389533374,-38.49061799277876,-49.59871734563957,-56.04963953050623,-49.52046474690844,-39.9157591989284,-37.97327470854171,-34.30386571064261,-22.227002561689318,-11.868630176852825,-10.967672581257037,-14.559529935091817,-12.566218362321713,-5.048835255083663,-3.928878476170766,-7.633660737424142,-3.3813685124070396,0.892669461205454,-5.554330741571043,-9.1489881525235,-3.712794227676344,-1.3729362205643483,-2.008347038293559,-1.505971819756006,-4.815498690699087,-6.844592467962567,-3.457174033739083,-8.120969382998489,-21.76265684792791,-24.36288702913887,-11.604474167568235,-1.2804375243931965,-3.485950528487221,-8.462966002371683,-8.022836846027257,-15.010828627566067,-41.74622622233799,-78.15123668924588,-108.85517765236293,-123.26165397321707,-128.90597597463133,-159.27236763520162,-178.32848125756072,-32.99767900915255,353.6604598381823,798.178910256458,930.3628894346757,500.34800134032014,-232.2682835582097,-630.12054664821,-481.7429306329423,-219.7208652998324,-140.64426516139437,-107.17888616707127,-46.368412640598095,-34.53146234021962,-39.638092628778054,-19.444214169766244,-13.48584523248002,-21.567208405751405,-20.224442855588293,-21.925513343268662,-24.98408401120333,-18.887691996114466,-17.31966757465205,-24.289337692920885,-22.191170843323082,-4.350792339509072,15.735835405371835,28.119656120757977,39.53508635814918,52.661671741475416,60.86376451856586,69.90598872167163,83.48575715564863,84.7711720603414,67.17326783140983,43.35278692620385,17.600461604535834,-8.00483581659611,-24.679889847078616,-36.27269856856772,-49.05653111778666,-52.413925899342175,-42.668788250754126,-33.146620667906916,-28.259861018107706,-23.860974636202382,-20.74969406470616,-16.618341904412063,-10.529132763467729,-10.196162697969967,-14.643075773369219,-15.625274886081527,-14.373396145992189,-11.582007429855178,-5.49194621192601,-2.8320098913132306,-4.123444761786544,-2.3484858067488386,-1.3943322867455699,-3.250490771494455,-1.0988462356712816,1.990715784629586,2.3796600816678115,5.050170941218212,5.52066144824278,-2.278412863370903,-9.213606456764431,-6.62607041771459,0.9550567578958891,0.7591698126429804,-14.06761002621425,-27.716783367516058,-24.318262474039557,-21.237054243958386,-39.8202104173368,-73.84791402502383,-109.55336025617319,-131.5231985700227,-134.50485898486264,-153.82853230780418,-187.08761263770793,-107.97418940462573,195.5645894279849,633.4524558028585,913.0977085592795,709.1656757914666,44.35617527991275,-524.3312452949028,-540.6970285949567,-264.9978704297148,-135.006374924216,-118.2892330346664,-62.906820747439156,-30.57008781262421,-39.08586327850347,-25.30645394154783,-11.12056659737343,-15.003160931574747,-12.148323186477846,-15.622133858558438,-28.493842227511884,-27.341582562189696,-21.961654378284578,-21.824916565482653,-15.587602585932846,-8.723701208147594,-2.3253664301875148,16.850979469552467,40.68624234741955,55.963443947644095,66.75015921639152,73.26122065110312,74.75235258368076,78.4397005926639,77.22525068972777,56.5071158333189,24.128000298539718,-2.266788400076031,-20.93146776750871,-36.832660281143816,-46.38345571172643,-44.74733260936328,-37.41861710039724,-34.06435267407054,-33.98907151822668,-28.593422867361152,-17.393142791759974,-8.869061327891792,-6.072192296640752,-6.069154843018044,-9.901486718047192,-15.346084612529065,-13.193096538384836,-7.000894089728691,-8.479361910154868,-11.568061429789713,-7.852515431561926,-5.204866100711962,-6.028700250825093,-5.176128167631894,-5.199761621331298,-6.158486379991206,-5.903868187230845,-4.918258245378155,2.7168616959553464,11.07819651005919,2.1252420375456786,-13.473898911945618,-15.073507123745472,-11.088564785549053,-7.207354920040281,2.20572495808468,4.902897662168289,-2.4160881095934927,-3.6539487655940546,-7.167745187698005,-34.89880763016118,-82.04173011943527,-125.45383878606398,-145.9418587523152,-153.91662538806733,-179.29384219386807,-177.08624869972013,-15.74610232057006,358.0865525120871,782.175227975103,907.1467158644292,478.3408709718068,-233.43186472020625,-592.0863534173095,-432.45205972529243,-199.5195800035066,-140.7413531261274,-101.10179432376276,-37.27275665630725,-28.405845657798082,-29.669848392551117,-14.244086263097472,-22.20026172699248,-26.091466560226422,-10.326683589359266,-15.27427371532152,-29.010828679815603,-25.115209426984677,-24.433019355119004,-29.212214752067915,-20.12068520408722,-4.177644507649941,8.540931441008704,23.58962498688385,43.74454146022697,62.859055002378625,74.28151140092555,82.50348075546066,91.44596191669277,86.99322147851812,64.41218322888122,41.47364999464311,21.072365900766066,-7.028424923895258,-33.142641808267115,-44.550161401374375,-48.48073896506307,-52.77891183076785,-52.09779299523424,-42.75955976595619,-33.01014901016792,-28.274713152549566,-21.127864952936704,-10.93618817071492,-7.318180607423713,-6.607274160010746,-1.3996688854329449,2.3927172688216505,3.7329155391680775,2.824502878660578,-11.179396893301178,-28.892071287829918,-26.062386797887296,-12.65560462809561,-10.963214389051075,-13.259513731564692,-10.923833274849802,-10.70186081221896,-9.002832973162196,-1.3994971303712873,1.913753822247287,-3.2107917244703437,-7.690129934647828,-6.379822925325168,-4.9774500062854194,-9.41211849390109,-12.503751877951878,-6.594902934903255,-4.261386844981416,-14.276793244257039,-18.65873061834123,-10.157758410335264,-14.270844557648598,-49.478888976170595,-101.56336103847431,-139.3473321008817,-149.48642134761351,-164.49116072392664,-199.3262170816833,-154.94557782859843,101.02045374968262,547.7782294320047,941.5728894502977,908.6618670468397,306.4344131083021,-414.6803282302657,-639.9776351807767,-404.08850169147127,-190.37062914213988,-136.24683295249588,-86.92817978414999,-40.79260438194211,-40.51233296959097,-30.303357644338654,-6.449085715725236,-8.773982788584355,-24.164551625994932,-31.40140971042897,-26.279840048824664,-14.350935617545396,-16.300640378162534,-26.257763296633737,-20.457844411209315,-10.980964888007017,-7.180240635638141,10.358582326999148,35.64053197998596,48.409432761279994,57.40165119009247,69.9454860071065,77.42774783780334,83.3077516674185,89.37085865573528,78.20446336234019,44.150154990453004,8.864651354087894,-11.289312495059509,-24.546281273616458,-38.95352371485049,-47.97497682941125,-50.206327500888264,-51.42363813515467,-49.298552724387626,-40.45147336540566,-26.55420510390027,-13.064594890382637,-14.534793804740644,-31.768526118912053,-36.776220926211714,-20.165506271108246,-7.54645946795857,-9.204010972108186,-13.870068950786631,-17.011615479104208,-13.60370912396677,-2.368804932704318,2.1232259880747932,-2.037297430376782,-0.5862406900871946,1.8122297131928846,-5.2529038714384875,-10.355178638510395,-7.103046033301553,-8.484792332206812,-15.41308291724274,-14.535328732162174,-7.957584236495354,-7.377571029602361,-8.124541938585192,-3.0474491692192878,-3.912660895398549,-14.015782600423705,-15.455862443439242,-14.06970861527402,-37.37720895323059,-78.91736955329665,-110.55478554538726,-125.25262104001311,-135.1449507674117,-162.91314463313108,-188.78106160311714,-92.49226322911213,234.53297789348443,699.4617027319706,970.2358102021888,697.9437274644325,-22.161319061521993,-565.8664050158673,-540.9846917356344,-275.09127076745824,-155.31648139850364,-117.24831867154583,-58.82512991522772,-44.972302460800194,-52.927167596581356,-28.854290751002015,-14.559412123756534,-17.99239795753832,-12.324393732507561,-15.706786235547735,-27.53620690541324,-27.353687801043613,-25.58186751910396,-23.818655739356654,-13.779526905895606,-6.626249739076354,-0.23003472467984576,17.431404419922863,39.13484140404451,59.46379430341817,76.46941582798476,82.43802224547412,85.38754736104873,92.12672813273181,88.51755459759065,71.37293769971475,44.06943784927472,-0.95349443403803,-45.600457705052115,-59.88168534538036,-56.14651036086958,-56.45469102347408,-54.494905929184,-47.7650270464069,-43.13382166982126,-37.87396350287012,-30.33719317218886,-22.314190838763075,-16.533887154925388,-18.61429302102932,-20.654004008902497,-12.011437261426266,-4.847139410724356,-5.975966711304313,-2.8525789136220148,1.4172107553658293,-2.823307248375137,-5.437389116873799,-1.7094502180936288,-2.2160752528662684,-7.2299639620449785,-7.715776196990014,-2.542287351506161,1.2722860559235976,0.585323085828044,1.490830984785827,2.6979372597435365,-6.684908676512485,-20.052998227727386,-21.354864427105497,-14.526031947524155,-9.711553094551183,-8.334674361142966,-10.375739296069973,-10.697824604271617,-11.56008323897591,-32.79092461640228,-76.69563111988768,-116.45868399894916,-131.47009141813624,-134.2018425241657,-161.01703010890967,-187.30622701866076,-77.0101764293438,263.54275636265675,709.0385106170645,935.8850903945413,640.8400104244857,-58.76446369867486,-561.7409190335369,-512.6355343008047,-251.7422809971531,-148.05834458909732,-118.31137610822572,-59.81502350971441,-42.17960496747935,-46.53748828000347,-23.438993488977292,-13.270193025095637,-19.75650436539597,-14.531084796275989,-15.765510714523138,-26.147278730832777,-27.08370921092034,-26.114540544505807,-25.389803918298547,-15.899318664559171,-3.244594934511325,9.184562417680723,24.176348651094873,42.183252883051544,66.00495449654284,84.9667826986967,81.28847618860021,67.44327443914067,65.90216735589236,66.20356588801951,48.13230280416229,16.859172276533958,-10.821791801480249,-30.07488268390342,-45.058504690443776,-53.54410746557191,-51.29225326889217,-47.07920603158783,-47.75233526554361,-42.86936994483372,-29.406119080412346,-20.677510805494293,-18.521610253436783,-13.528929736384846,-6.815945372250546,-4.8146450860303105,-8.44147230098411,-14.389741152036429,-15.097314363479107,-8.07990078904124,-4.141163903468097,-8.671182493427128,-11.351960598540586,-8.88477417636453,-9.860552580809934,-11.91121098669781,-7.375698306460411,-4.363002958368455,-9.15944844601503,-9.167237518865399,-0.782300432702101,0.9929327057720698,-5.148869173756033,-9.26601211147015,-15.291267382342628,-20.93546095581885,-12.19672059571831,-1.9719874389243053,-10.10766470421687,-18.693317054941947,-15.90182726774454,-27.894367693276557,-62.98143118465693,-98.26964291788276,-118.50199119224712,-126.41280126497387,-149.6062229890509,-187.30146902872167,-122.88913002883973,168.00160942768218,610.7032989542074,913.6180825194473,745.6005738591371,101.36005757105934,-493.1336120940096,-558.1480580170049,-303.58200954942123,-164.19843179089827,-134.3927937119779,-69.67023978742341,-31.73330130494847,-38.70603547278641,-17.290235947535916,6.933132297515222,-1.524325441772028,-9.333356363605365,-16.477209060983043,-38.54675718694326,-50.1223203073267,-42.19951301317574,-34.13130297238841,-27.330291597426303,-17.05640927568656,-9.751449016136906,-0.5649728821847655,23.0024533370418,52.32414434100294,70.29628506134368,81.59801896207794,96.34232267897939,105.75184141836581,98.44184475435873,72.7549397402052,31.620369387061558,-8.635654874633236,-28.38952623247996,-35.64578239696168,-48.4269272140785,-59.01238583226477,-56.363576235016566,-51.10566721823316,-48.84415890543928,-39.953947389485144,-26.562671770288034,-21.10584764973389,-21.736201665815273,-18.392428855836823,-13.57333198063722,-14.227264883392024,-14.137776630815843,-7.536298561372966,-3.5962192667135398,-4.870984492294049,-2.0611342005411615,-0.49799600868165683,-7.66033801853947,-9.658219542865218,-1.7493039457214934,-1.068911875939257,-8.744843646309565,-8.559490810329478,0.20587546592378558,3.827247315120598,-2.489559720351707,-9.816449547321131,-14.252498508127594,-20.77131040669009,-20.91341243247172,-8.068779735337296,-2.940115763238767,-10.012666074143858,-6.859390036630371,-7.037151571453018,-38.59122947161513,-83.35179272367941,-114.7062261554099,-127.70570695433403,-130.76159018077095,-156.97323113508955,-186.6654329797746,-80.82946077951314,264.00572613330917,732.314876031515,985.5373562001473,686.2888001890324,-45.10696633053115,-580.4876801544914,-558.4869839080285,-304.7269738207806,-175.56949335001897,-121.27179450925317,-60.58967991088973,-43.11159514013349,-48.367485503422564,-30.1697260108919,-11.376718085367695,-4.1116697598824885,-0.2563353823968644,-6.484132123876101,-16.66998268403641,-22.49023808153328,-31.184953216438203,-38.25479952537094,-33.480829861881915,-21.44257118862858,-5.411277981067327,16.46487462944145,38.92109241021342,58.566105788906675,77.4890225710557,91.42103475964858,94.42954092651694,88.56587286170772,77.417767051909,60.60743650136369,36.58010979269469,6.571019397870456,-22.59893281955901,-42.90430163008977,-51.225881942120026,-50.480094671944315,-48.899669180178556,-49.81937706811452,-46.02380565508263,-36.914006454798255,-30.04298501474533,-23.007177755705015,-14.55922102451131,-12.692898648871097,-12.104435818195483,-4.669507715486905,-1.8127862113447293,-6.585112550439607,-5.8409988337761405,-4.60696059066613,-12.343768021915213,-15.517892298654917,-7.107102056724649,-0.7523167242456097,-1.7189551733194897,-3.8625648354564763,-3.987630735151619,-1.4707471585013074,-1.0007534974682528,-8.167317227644897,-17.175093328428922,-21.277894417731225,-21.031950208138856,-13.06674331349682,-0.25842344880476276,0.5506257276399058,-9.728742321862432,-14.101199746867325,-22.209158887556363,-52.63476139928046,-92.42017282457188,-118.9635301345291,-126.89014534710695,-135.27384088514438,-168.69345722903455,-165.14895500386314,28.8447373598066,456.9498151466925,892.3826991287963,934.4240105631094,387.90255308768224,-355.98833684852366,-654.3072216124508,-448.97825828936004,-218.1685680980717,-156.48804014927532,-106.98328748379303,-49.01055409364278,-43.524796945402585,-38.26516392016411,-14.168877702225682,-9.694695688119992,-13.824818751090433,-14.79342428416389,-22.48252500482424,-26.036657671989005,-24.39067591028898,-29.08127776448049,-29.797429966165435,-18.87447113537616,-6.089256266938807,6.983270111815308,25.542001505124528,45.46418490154048,59.905801930245474,72.07730618216038,87.46442165427689,97.08817906288867,89.08228216174325,68.38402242493757,43.51087805446589,15.435307054689442,-11.3628587197857,-32.88923042957188,-50.35704564803254,-58.13495681966362,-52.96587464803116,-46.63514009115249,-44.03713170374457,-37.13082849611424,-29.657943586673426,-28.603298613558277,-24.520604865434695,-14.142721020812981,-9.46366476386902,-10.159198254952258,-7.704450652607836,-6.461199407806131,-9.460907662177217,-10.406508214690266,-8.728732603715077,-6.9563863213979005,-5.59163976733117,-7.003523035373405,-7.3652384114335305,-2.0240302481188603,1.1596739698699459,-0.6076638315755964,-0.7394538900555467,-3.3721680800388896,-8.778862601915904,-7.109335150194788,-4.833361439333782,-5.4248390399313475,4.315149211293251,11.563463615968736,-0.21395538751695042,-8.137763250393691,-11.90961831410382,-44.841032603422875,-91.69635799402461,-117.83120882791411,-130.48372844772,-141.16716626175804,-162.9159909416879,-191.0957241095557,-114.06279899234593,191.4214307081083,640.7274591928773,918.7056032958177,694.6271938189884,21.16622250978179,-530.5388380111369,-534.465899938177,-268.33263711305585,-142.6988009674362,-115.6156109658263,-60.067958909176866,-37.13093153123371,-44.17071479426771,-23.322774193899118,-10.509346771119922,-19.95972488293476,-16.131948497807876,-12.785499215722897,-24.205519912088803,-29.73306819080551,-31.827695325154785,-37.984158400144004,-31.95602596572337,-14.681977198410188,-3.0507641749111496,8.937543822747873,31.94405482881497,55.002812320452435,70.07252959085476,83.76256676837521,93.73857865125507,90.81360720456915,77.3858112005731,58.40106505431328,32.6530888444347,3.0695548368870496,-22.748105543791926,-41.48942052332218,-52.97728488232845,-55.48045896762044,-49.357937996239386,-40.79522507616439,-35.57448320244386,-32.87108740904579,-28.604290822368874,-21.712400497787563,-15.910064219671948,-13.313604457712625,-10.03341894387783,-4.896254474939369,-1.7363972058596886,-0.7987547172341749,-1.8407572025504493,-4.834262570285176,-4.322862947859374,-2.447346739525859,-8.1569724178145,-13.021596135282355,-5.674205018690763,3.342971795324017,4.817270207717055,0.9661233505328681,-12.283309999263103,-28.7493193887457,-30.28201068548534,-23.75830997419561,-22.851656518745514,-15.172087994595103,-2.38237935924273,-6.717910015247181,-16.55667203467673,-13.096202045410124,-20.27871131592617,-54.83174897718172,-93.58408765908482,-115.66261593658976,-122.36982578552927,-140.169519903498,-182.0087979757244,-154.8454394429849,83.36194772919481,516.7727783885512,883.7374169698713,811.8867781277681,208.91707509489743,-437.5703726302842,-571.1846393992067,-320.9216741681149,-157.09150069235358,-129.78931870913374,-74.47338867152304,-34.51123718949802,-45.75390653972112,-32.491878251727734,-6.377008039430358,-9.067374388896287,-15.94079225881354,-20.994755682402506,-30.88884551518464,-30.580445237178278,-27.845584656210246,-31.166170405845733,-26.22820496678437,-16.435863336213366,-9.901784058587616,4.570527507682656,28.264936804644364,50.90150312474958,70.32791536589069,84.59743516135475,90.75093317826415,92.94857925917442,92.99988130917707,80.91821494402016,47.955380902581524,6.460759286372117,-22.504526571905316,-37.953120435296455,-47.86366115903182,-49.895960113021076,-47.54633730888895,-48.41273725254979,-45.715064482498015,-37.91950033198876,-35.506467688709606,-32.935882827313115,-21.04519646555665,-11.388468388588777,-10.888759188339982,-9.518596410418876,-5.280008555892348,-5.064599057558368,-8.383370464717526,-9.913860471577667,-8.590672437803683,-7.659991266443946,-5.8958348842006885,1.4333286125128453,8.69892004024,7.370823723032384,2.0662504958705643,0.4660281095073753,3.3760569455550247,4.467623287624898,-6.9705894271193,-23.09298846046527,-20.847851168786086,-5.547926949039127,-3.1135829110793054,-15.829039624224619,-25.638304173570532,-19.940695752625786,-9.821248652929754,-23.082759707502742,-60.33543777826624,-96.99367272631042,-123.6131401212596,-137.82492043840475,-150.36835249408801,-177.19463299481814,-141.73343137341553,96.08262529159973,529.693916390306,902.2160764391234,837.8957402873154,231.16800599495886,-441.9246921585727,-606.3223162297373,-354.26149777023636,-164.4700452428132,-130.77703788333116,-80.41263513069703,-24.849099967949897,-29.545785991208916,-39.48606128761678,-22.742322456959812,-12.084141505860423,-12.896470183817538,-9.346517348458171,-7.310781670754579,-18.359546426597266,-30.803634834324136,-28.475518150871498,-21.24099810173494,-19.211287857005377,-9.205250771429656,12.775691323612829,31.573868619882187,43.615721176373995,58.65072791066574,76.86686891908286,88.69631091359926,92.00604746708734,89.29649375495276,73.74499141209688,43.07550934455516,10.60786789562336,-15.880543581526402,-37.05395128990898,-49.364561986821194,-54.67589412018376,-56.130715247686915,-48.562760820303254,-38.72836250930612,-37.62106601574775,-33.27394612381397,-19.192353118829622,-12.712442389452814,-15.535209243412883,-13.505150794880194,-9.892999969033024,-9.167876040044451,-3.9861246675952096,0.8752170999042619,-2.05271776796598,-3.1647973186340153,0.2373846217624589,-0.5721290919974589,1.7973814132453771,11.39902214918969,4.807387464234864,-21.72841297420939,-32.242995254905615,-17.795245000718467,-10.245970583892873,-16.02697239037297,-18.026772608301275,-19.483338751916158,-18.508967258567253,-2.028597339456919,9.578292198067848,-2.1059844323169425,-10.299648123763898,-10.494629613909021,-36.73984118885522,-82.46700936066907,-114.55722873056166,-128.85645407572605,-134.1404743015749,-153.72868989955,-183.47475191313967,-95.75189353199727,238.96540958996027,706.7157300132656,954.4466448581376,666.2725048840059,-42.60360706766109,-572.7932440407137,-539.7549749686382,-265.0026604041269,-144.53521992950047,-107.40729721442639,-42.474459513460786,-33.12661899293475,-57.55538311287559,-36.30066790959688,-15.27104389974398,-22.011980896796153,-19.71402314396022,-16.689906790079917,-25.58906309163322,-28.319575010127917,-25.98863946744092,-26.41434120391135,-24.987596553653198,-19.011036385029307,-3.841361645013297,19.455970281814476,39.48352651456152,55.5408842338479,72.49592658019982,85.5811897365208,91.11506719558813,90.55128383062751,84.48868870228006,71.9672020126272,48.137432210942336,11.86922911139725,-23.91918500723397,-43.94115907891723,-47.00852742022041,-44.0622067831051,-41.89346512465545,-36.91512086759103,-33.53854143544057,-41.89937703715775,-48.27406155589347,-36.38610883534604,-23.817252261580222,-24.602030917940045,-24.028842922049975,-18.097932066151323,-14.073870950828749,-6.933746615751744,0.18484267402667243,-2.448454403500854,-7.064470942647198,-6.976544177731181,-6.809689866218765,-5.9258225441436885,-5.362982791350964,-7.428386130577298,-5.695630656371961,-3.5429531134454795,-8.99654161531506,-11.175472058806696,-5.754298656232805,-3.9310997243237793,0.39898731608916727,10.660139851499041,7.3275412841059016,-4.914525261776332,-3.6734135411839866,-6.044800592397843,-33.92765243069128,-67.9328559839665,-92.62660415612336,-110.47296179530764,-118.8230875644758,-142.20243104717872,-185.0461776160822,-125.0665290619859,166.10840639778576,598.1847963307106,868.8774592479168,672.0670517188892,36.66698937717014,-515.336743806879,-538.0174323504841,-265.3189982510534,-130.14904276343674,-108.34304108829318,-45.81064180036418,-13.601570021119159,-33.55047374025357,-21.854626319450148,-0.32407007837804613,-9.445410767640698,-14.604926618148692,-11.67012931823843,-23.9336759297829,-37.46945984985145,-37.08965576796507,-30.360183576271865,-23.361343308393288,-13.635088659013684,0.910079125653871,16.688491001383593,32.09554181887164,51.479562032845664,72.4105403002246,86.48679960578625,94.18574542387915,99.68207450557586,94.4537944182932,65.31241927665238,20.708918926932014,-13.161157399994762,-27.2333662376264,-34.946198185067075,-44.92572398085117,-52.33837629099655,-52.033697386084796,-46.76898567231929,-40.770964052775255,-31.280495496436032,-19.812842164012586,-18.059108831401073,-24.052101005336077,-21.313154615627642,-9.645145146162728,-1.3898089805395948,0.31918187447963575,-3.8828903059866917,-9.67618137103294,-6.229163479812243,2.0204452754958737,-1.247960003122909,-10.18458512057326,-7.6576526070682345,-0.6054278167499376,-2.291422104146953,-4.4395833892368675,-1.8667896204450685,-5.618946757837083,-12.469576579529612,-11.999324722813856,-13.196567109189978,-14.656115981699177,-1.4041462845043569,6.587225498006425,-9.009559706335702,-15.035611311834238,-4.658521962979262,-23.2071386640245,-67.61443549644217,-96.11163000930891,-110.17508091630543,-124.52633318110172,-147.25623896349475,-176.87220140356254,-117.43371400742615,153.76629672126646,567.4851771775385,849.1386277268758,703.0668785903033,104.25694825998937,-482.13771089534845,-557.7495060805054,-283.01656962740685,-125.914688825898,-112.99421659247305,-62.86796357914147,-22.96960249522614,-37.090387877602524,-30.147594605950147,-10.55865342642549,-15.189482064828532,-16.382587635767226,-13.533564461799049,-24.395190711964826,-31.24667801695577,-25.787745652900114,-18.423200609711166,-11.238473951161737,-4.9377098138551965,3.305780101035692,19.18883622681861,37.634260469123866,55.32712700774578,72.4950756214948,73.45266251609755,53.06391202075482,41.41953093898215,49.89956947614973,47.40403809453416,24.985279422787904,4.419716714860289,-13.98187627921615,-35.26401364042753,-46.20562552846874,-46.283387151916514,-43.62635354920585,-35.890982369541014,-29.780571124141552,-31.836151838841694,-29.01319137344239,-16.858314096194853,-8.146395557043437,-7.322559605571119,-10.553841492931753,-14.850010939113684,-17.21196166114701,-16.80396829485224,-12.916246045203234,-6.5972262938986965,-3.445828502222799,-3.5684788918070574,-3.904350912863137,-6.802794458972482,-9.051433859888224,-5.6184475546485135,-4.97464231766611,-10.459938229663464,-8.483789880273957,0.6875810058077789,-2.117914627718509,-12.981745802513903,-5.5073531216398806,12.092444628001688,4.876441476927503,-13.787188797310742,-7.0161394090384235,-1.6641977667238717,-36.87459590822291,-82.94861489898605,-107.93037010321967,-120.17578763806834,-127.40181310642109,-156.6129842193263,-197.29723043582237,-98.12821123283078,250.21594775988473,695.028126075183,924.6556550654244,665.6027751076901,-30.225575829776574,-592.6375521189336,-559.1325774962876,-247.95024393911038,-135.31610692860815,-129.75419060266807,-51.09048006551821,-11.123434582622991,-36.61370165218731,-28.56257935024898,-6.900632664778691,-9.21194844308097,-13.828892927119776,-19.763866515972737,-19.63454808898195,-8.678205302743876,-14.703033111759513,-25.14632231551073,-8.070241859184787,14.997041925569212,25.523398668284514,34.94458246145376,37.35042174769966,32.044190699679476,37.72007977921032,49.828944074302214,53.09505026332079,53.01468557124859,54.566630410834904,49.134704641102786,30.80902372966228,4.503463928168502,-18.531553450918317,-33.114353913968515,-44.077805845631914,-52.55386081658062,-52.9422787161857,-45.4901415075377,-37.54672317013656,-31.89951168626959,-23.87379377377188,-14.114110132075353,-10.394795610648842,-10.76886061224614,-7.837566476841523,-4.982871245121139,-4.175468816356755,-1.417205990557207,-1.8864705295232085,-7.253634668038302,-8.747420333894464,-9.193231919073517,-12.369767629140824,-8.978499073322947,-3.7148331648336637,-8.368072056943095,-12.25885431883187,-8.628833465296848,-9.04979150459777,-11.662737852528512,-9.63236821820228,-9.985709210376774,-7.731506273606833,6.863682980009962,14.528371631129932,1.681786643142078,-7.264402323483262,-5.473858732220018,-24.968369570539384,-68.25507755855844,-101.21377487173748,-114.5938212456727,-124.10909586574462,-147.41774366770323,-179.920721551269,-129.69481852947018,122.83072849203674,534.1800197428014,856.3001920908297,