ECG,-6.055884529214385,2.0495723507781207,1.1126325674438462,-0.47390178040901887,2.7907568087633194,5.9364307832911365,8.944540767415914,9.856480796228263,1.7824144153091286,-8.189445490974038,-10.805472052676588,-12.166528819992514,-12.85025587698237,-9.071217099020629,-11.89470358645097,-21.368835825622874,-18.94540633374377,-7.483636971134461,-4.604414103845333,-8.158690105458309,-12.035556248771963,-17.93785907657973,-14.105611424891793,7.4688156984906335,19.65994593486876,-0.9978552884851091,-24.9836549525747,-13.275504051695204,16.48380334707554,21.985093464421592,7.183338088799062,6.006767071891035,11.910403609760612,-17.062115467919195,-77.47278252991913,-114.17172180749142,-110.48264274818793,-105.32987405562506,-129.14277352169063,-175.15858447868266,-168.13323829269928,7.284060311507517,345.80268785567756,682.4562935516501,791.814539609628,470.03397383634956,-166.63488741147634,-565.9891254944692,-446.461270746831,-201.6560829045453,-142.066665925996,-110.73816662037348,-38.347010396538494,-23.66669909037642,-19.967438123728506,5.323994695520824,-7.75424015321196,-22.646584548890573,-3.2088261474206057,-2.1566120665132473,-20.056671539705714,-23.504110569310924,-24.317932326928393,-25.17937905209872,-16.82862375511303,-0.9659473115161745,29.991616027615528,64.02015517930144,72.74375482837875,65.723462272784,62.64595854173346,55.44397228325607,39.96001837695148,25.079393777892,16.79141813305028,15.644825729259093,7.28471879084644,-15.235607943198527,-25.480279714027894,-17.617772912800408,-26.574395035375638,-46.97027927332044,-37.39530777091149,-11.686443866724431,-9.588573197319722,-18.24589669976105,-12.540513506727976,-3.2262505661919807,0.7987695865366025,8.600810418856813,15.634522714978269,8.195183116250814,-5.072352615015188,-2.5775022253047117,12.906207727508509,15.857229118100529,-1.722712051319423,-19.62603044563812,-25.150977853935874,-28.269269234961648,-30.77108022785525,-23.026421532754583,-17.096001471650226,-24.310901311098547,-21.258457527974986,-2.5263573148719587,-1.7992144148994278,-18.053077881988724,-19.540943944465425,-12.882606598577507,-12.738661627532679,-4.351743358943114,9.515594793440382,9.635538677364371,6.4878616694697335,11.784190304886375,5.098512336564039,-26.209867523351356,-66.41749461095813,-102.88400998423208,-126.53521739999586,-130.18974941139334,-146.92076227412028,-188.99320553897425,-140.21403794504153,115.34491754134996,506.4418708374777,827.9180542778535,808.911943747826,281.02700963877675,-407.55099030144066,-627.7406626673395,-370.5365190282058,-158.78889678626894,-130.3002326087476,-80.88524694227095,-26.915332325244947,-38.49814150049901,-35.693108357004135,-12.601549495137036,-18.584138084813468,-22.882946306588238,-19.344352126774677,-31.273211514140126,-31.65204957763798,-17.834155822867032,-18.72709162512524,-15.830344786714317,5.745299522299647,22.725840719092403,39.979540701491096,68.81705204043213,80.33954268336046,66.8971777713355,58.26506510578174,55.47194941892185,42.17018652336692,28.870578727971537,27.658560159145793,28.81633168194449,14.407482283673714,-21.61998588252395,-54.58854349558207,-57.68696488589731,-47.85271926226011,-50.19438754426184,-52.99166205238864,-43.60944290391827,-30.9911761217638,-18.06490164490544,-4.2154182631267005,-0.08235007392064375,-8.963840534055727,-16.58879658130828,-11.340159205309028,-0.4454609892401251,0.8720059162582672,-7.666350127361294,-12.482050120083024,-9.919286277871866,-8.469392405600075,-7.857662715229155,-1.2253281023446618,3.1123465923057907,-6.659227121058304,-18.042218022470358,-16.057801295355354,-13.03554660382656,-19.00262597069613,-21.061708794924307,-15.103855802937638,-12.214422934035277,-12.944343651110895,-7.238753548652433,8.425502515554193,20.55359776703576,12.603720927479252,-2.6042719214057595,-2.2442515348793,-4.26153103376177,-35.23314834109486,-73.53055285651494,-93.33196988715629,-107.54080660898211,-122.03914554734018,-136.48815090714245,-167.61732173534935,-157.7309299923611,23.36850078700064,382.7322084672745,738.5528819129547,813.9776719624964,405.3834605718707,-261.93258359069193,-591.8255765920671,-414.9777840190079,-177.11732358874744,-120.91028724593644,-86.5117904356647,-39.57134236015355,-41.89302307364828,-30.71858085060626,-4.89462015023323,-17.227608835689043,-25.05563869500719,-16.11516753562045,-28.700571582920904,-35.536850266679195,-18.82607702393503,-7.468770524292552,-1.9324831042472468,1.4945921929081756,2.3340030920593993,21.824144641792024,53.464467971294084,73.19698096389969,80.07715205340675,59.96132340244252,17.87100984670562,7.869225630042056,25.58360750788062,14.076457219727974,-10.231742974033715,-10.259855750739792,-13.69968994630739,-31.19158786363986,-33.63174933058871,-28.43192700740967,-32.685848580009754,-28.93815276178297,-15.294210290347165,-14.162093748005859,-21.175071407601607,-18.25796884189291,-10.96983049930451,-8.83353351467639,-7.492294241472173,-4.2044110547627085,0.28648019509739875,5.338973965379264,4.859127807416769,-3.3723560007487308,-12.37653498171633,-17.690381325922356,-18.167957472354445,-15.024803756254713,-13.35063401201375,-10.751707089530072,-3.1173248048463194,0.9072577184612776,-2.437502706924249,-5.666231292709467,-9.608566926039263,-15.644859447407724,-18.234126758226267,-19.057771425387642,-16.887170855924253,-5.268903274422307,5.55820905256463,8.605576476740417,15.919735375318048,20.857241927800807,7.002472978961721,-11.80183817831081,-26.16313108531889,-50.74250012282164,-80.01960047041572,-99.65696583292959,-115.14188147457058,-131.6278685342639,-158.04530630387322,-172.86210098684353,-69.27936314077839,220.8271974587467,593.4189563854494,825.1007278787799,656.3620013074959,50.53973764650675,-516.6257991326792,-550.1746257681597,-256.8520573247357,-115.62201129660444,-125.3490032069991,-89.93777842973195,-46.502158818204265,-43.13077884694961,-31.404173514022986,-20.144131534336502,-28.548125541228416,-34.16913063863182,-31.759561349932618,-19.24664065927073,0.2536853287039307,-0.625769975662557,-16.003730765386162,-13.437460184739674,2.5393027497103073,15.529948112644336,27.705148031103178,38.74020242470322,47.27169343525098,51.842306045359294,46.47734271855344,40.40017074393096,42.04548893270622,34.797694366628875,16.490300525018263,8.774571796931362,6.029911764350594,-12.228679615723845,-33.7529751000295,-39.52721828795195,-37.98578645705374,-37.38997885480458,-28.81271373826566,-14.721993455662725,-12.883796886868616,-19.99641233210221,-14.217653080670711,-0.8563809381972209,-2.6263538554822006,-10.333950273151402,-5.701578401338143,-2.3750205936789186,-6.370620921576052,0.568605965600149,6.107091465773189,-12.965972544132807,-28.845307541027747,-17.306948003229245,-9.140732401950874,-15.32949075397635,-7.772666858216946,3.43752147305724,-7.190025314842259,-16.224465408932222,-5.543881384770877,-1.637120273925131,-11.175292966161262,-9.636272206608751,1.2646676318812915,0.3272163621550135,-9.662276605428552,-11.625183351661924,-3.867342339461496,3.682526217433388,6.104773332515283,4.419111250266225,1.049923503176041,-4.379624880729491,-20.446210634629608,-55.78544157568557,-106.26372321828762,-151.06647703936815,-165.97850397095831,-166.78371042925542,-179.32740612107017,-118.45971238234299,145.9552814239084,560.0802926881977,868.0639355151503,771.6983403610863,183.87464601370746,-477.55392782884996,-635.9233353919658,-359.0699177000312,-158.39030608102095,-128.90819712085636,-74.20191153204595,-28.340796941322367,-44.45230672123492,-33.60385049345104,-7.518407100156011,-19.493406215050534,-23.329088666731142,-8.232846546198367,-11.706616942034763,-19.50031482830897,-18.911509541137868,-22.634624637355756,-19.35302541832305,-2.682816471877154,14.852692031423103,36.104843428826555,58.501385101847376,63.49398168377308,57.603115766352836,57.98695739713305,52.42554369090381,34.27910236192776,26.151699280638162,27.302266030650063,10.39858885113194,-17.1837922291364,-28.150416909006104,-29.493267308440856,-36.22689151524091,-39.70200708210422,-35.289825142457246,-28.347949980743724,-20.014173867006036,-17.242820186555587,-21.451432912012226,-17.003081773376312,-4.648169693143814,-1.2293673816361839,-1.6046909442294073,3.273325759474094,0.7747452573681315,-11.977024067418384,-19.051865673733342,-18.273029781331502,-19.200828061007186,-18.702560476185962,-11.348071170878253,-8.026015298470288,-14.069076429936413,-11.337901804410318,4.112474171126426,9.664845423924483,5.6908248496015545,6.301634371511051,-4.649477590307182,-26.94998989156524,-25.230399695771386,-7.30179623987172,-9.247967123162393,-18.51188369891341,-16.67780969191567,-16.927494077906424,-12.299569521480393,4.773569100222774,4.887352490369155,-13.18468527218441,-15.943057386904648,-17.009986025513584,-47.031329510515654,-82.22895145904425,-99.5187702173938,-115.39281407582294,-132.82344182127258,-149.46081803934302,-161.82773636874964,-88.58378772256566,164.0695478160462,533.6097198788872,799.1153348290468,691.938281903586,138.99321604737003,-454.3922265763719,-570.9180211811921,-308.4822651063877,-134.83051907674255,-116.9527767134123,-69.6576398044014,-23.984164686986418,-36.53062972490284,-31.545862418545287,-7.771642294528284,-16.022856736511912,-27.03249255844041,-19.463433853615136,-22.13654196088025,-32.61432796240784,-26.195027361978912,-11.922576985380061,-7.976530635563211,-1.1608355481422734,20.643766683798056,36.46001188124597,37.30677791634497,45.462165141639474,60.61419440410247,57.71441528490713,38.831821571844884,27.835872100049354,30.92204473921288,34.15050231388355,24.198388072691415,1.146199811027257,-22.789531918857893,-35.136751181218514,-35.67097818971987,-32.78195223197668,-28.25821577532145,-22.55254863820705,-23.694819505595895,-28.162583575285517,-23.41553381737231,-14.229790382544438,-6.390927412747436,3.9159217988518584,6.885344186070757,1.3912447113289268,6.199445741547711,13.36756561842504,7.681351550802713,3.2584534115059434,-5.956660753857932,-34.77482978453152,-47.97709216391833,-27.13794935555157,-12.691639571901149,-17.90021185068421,-19.972713308423014,-18.547320455128105,-17.719377646413633,-12.282080199862795,-6.944377390901522,-3.616814896845799,-1.311270272573143,-5.4330565630204894,-10.335722378327361,-6.953480138828763,-2.013956451152165,-3.01824041741715,-6.61909630642646,-4.6877562546277325,5.283100332155485,10.957521625215936,2.427699347796656,-10.248692252906366,-16.104951676964646,-21.126152318819052,-40.15263576350659,-73.53735915810624,-97.6509306761141,-101.44948941000678,-107.11702852934029,-132.13017775120514,-157.69145889114375,-112.98612042124324,90.79003628190954,434.57553579083213,733.3707763658904,727.6575316929739,286.84487044460093,-318.33591700600385,-567.507543977051,-375.2924716368299,-164.57887751279742,-124.40755786708374,-84.7810539406591,-25.749841643256815,-29.966497409973492,-33.86818329474754,-9.129318409376726,-9.763897274001891,-14.128374367343762,-2.7100360978206783,-12.623647246055135,-32.149179084910934,-30.927913658303506,-24.28501074615651,-18.55125904306191,-2.4675856172838317,13.520558825292737,21.66852521208437,34.30762748020948,48.943524793222444,46.80856342212444,35.14290335006261,37.84446976143412,47.086092512522974,43.25252174712459,35.507858081090234,31.46668724392456,19.497284620763864,1.1396160417190173,-11.60393627243933,-14.916219665332843,-9.625813841563467,-6.633826059176977,-14.87460646527084,-23.300928243745318,-28.886229321303333,-39.27830943146352,-40.90029612224128,-27.701764869595735,-19.290248927556764,-15.915471231385308,-10.460936962454255,-15.766577716643425,-21.513383183923295,-10.12889680698838,-7.175985271504999,-21.806541543972088,-22.792230790515692,-14.019815378127362,-14.969793310982606,-10.340367548740751,-0.22326099742510053,-1.1242409361441048,-1.0726462397485257,2.322499996578271,-4.485120376728414,-6.75663472029667,3.152842185349389,3.7658086637939654,-5.403668625676804,-7.30006667453376,-3.0835562570326047,-4.08073724664748,-14.520634865205473,-19.878316017165645,-5.813563802101655,6.086958647232223,-2.743099732751574,-12.36719593304533,-17.583529988879135,-26.638375722525115,-22.919252569136248,-20.786009542958364,-57.80807782521161,-103.74385340921667,-116.06035337268341,-117.99350920427887,-134.35403883903618,-156.54586770861474,-132.8323058192589,51.36448121503153,426.7307657670418,795.2741483891779,840.4070873354593,390.79008137706455,-293.2153955847364,-637.1011094965031,-464.8410373501195,-201.5560499273626,-124.41787021692623,-87.00093047266446,-25.36564364211381,-21.177465480053996,-33.44473213340337,-16.594631016999053,-13.734293743263045,-22.509498985760594,-15.295594774592765,-7.220812295935772,-7.130009520021574,-7.554198546408589,-6.192206079391903,2.060618319725935,15.553452610477503,22.98006353834612,23.04225832277123,24.592741323835845,29.470969212401002,31.43521387387122,33.03702584709858,39.25308749829196,41.74865833505615,41.8360672961734,47.869539029735314,39.11473211634074,5.691312065873628,-16.863120033597045,-18.379111354184122,-28.084856958712976,-41.31732555344292,-35.95890066856538,-27.10879963795063,-30.181154988244977,-27.965590304850657,-12.849421905535966,-6.280579823608917,-15.214079428027468,-18.44067428722827,-11.686642896073806,-11.162589404001707,-12.948138823409149,-10.186396384626146,-16.47775264270289,-25.580338362689808,-15.729730447127924,-2.4431374537296726,-7.914496117018249,-13.636541529030904,-6.229673989551998,-4.833500595200391,-12.385312767101258,-11.704072046976744,-5.597933614013382,-3.3904258422063442,-1.2109689633231469,-3.223421831775031,-13.030176706584996,-15.263023893283531,-10.263072843150987,-17.970876668159598,-27.542867079472224,-15.834274757505653,-2.6328654139280623,-12.149143819664722,-19.709159418446887,-1.5971384365929673,14.296257167570246,1.5560649339575248,-17.438343032752858,-24.706801555910722,-42.670653320560554,-78.70000642434752,-105.52949420712906,-114.34771887282221,-127.56427085862236,-154.98962015617235,-145.69422191214892,0.0125962416349239,315.6890596101765,680.7325587993288,844.8300609417794,559.6783233711697,-87.56507179831826,-558.765931784418,-504.52527950052115,-238.60745457423886,-133.73279530861453,-113.97734757449572,-61.876389894924614,-44.24721604419375,-52.43582046702734,-32.73575869412312,-19.941562944876775,-24.354241647891918,-18.221200065491878,-15.677043946346128,-25.83652808957082,-29.933305132504536,-20.649284292458432,-2.245142409844094,11.215773069219093,8.498053696205494,7.684910782483872,26.088602145268382,47.80580069970454,56.69325901883036,59.62235650243503,60.49632713069633,53.28319258112077,46.15207759346104,50.27246188052737,48.98494674082685,24.15285188918035,-7.063606913662017,-23.58847943812098,-31.287544583119747,-37.883330901883426,-39.02131445013289,-34.28352776199638,-28.524684209421252,-22.83130234095186,-15.845468415717606,-11.299148636029368,-15.670547532454897,-23.773044748922004,-24.159502878787926,-19.0329755969548,-14.850381788322125,-9.083691703944698,-2.1021553488599203,1.1194801772169924,-1.6958501107025938,-7.997220813464775,-5.752963516669226,6.383834612056319,5.77262904221679,-10.404581997063644,-16.05119021758664,-9.517377063974202,-8.981643879338908,-11.238392547294858,-6.70609261770095,-1.0685560291352232,-3.141634978600255,-11.567869492517747,-16.559516967143185,-18.066059570100595,-23.596695395671006,-22.754624027901684,-6.4218342876857,7.0305687613954575,5.049961769207027,-0.2473898998012336,1.8689505884160624,6.218191242015378,-6.787915782590451,-46.1020501284499,-88.57452750608442,-112.27584760480872,-115.6113550287914,-110.35795171369924,-127.58342196461118,-136.5107138839178,1.7215062024170749,337.058107035662,688.2120131202971,771.8772646251741,407.24303959362487,-224.07719118722352,-589.584401025776,-456.69652160522367,-199.4206463455894,-114.60902458221709,-77.28720358816327,-19.731843437232854,-21.439811129689176,-32.24048582702036,-6.4379057338463355,-7.408479163125747,-28.40488285105573,-24.68368538388383,-21.293350565973324,-27.6064131827721,-21.91616213495668,-14.669195086156162,-14.931889853126906,-12.519657813139645,-4.112568511960779,15.108078100836982,39.83793334658548,47.02145148993541,40.51345398289136,45.12992159756419,56.66850262238987,61.282454386494045,62.95712952010206,59.091565450423516,44.36892991334905,24.46929001090357,-2.1467284039585377,-26.372339781683294,-25.368389157836898,-21.069958951913975,-45.54061394568366,-61.162289140679164,-38.355261635351624,-19.469315742955434,-17.63464547145052,-3.778439396416271,1.8397258387268316,-19.480075118683203,-25.855062182979637,-8.87618688644411,-11.523090805016903,-26.508753149232543,-17.129996817214554,-1.110121256927087,-3.8004791485625056,-5.839686096948942,0.8529368865214906,-1.2390371078858173,-6.945186127605577,-6.77266173590769,-6.74588295834883,2.8394424666037033,18.620670558419363,5.0632791508172375,-25.78326096027198,-23.236172664677845,-1.194805681889001,0.494292546952078,-1.3873403920206115,5.13526285685554,-5.747624043787379,-24.259677656895306,-17.234810574012332,-1.132708241167455,-14.172181909213101,-55.40207918739655,-97.95442611190981,-123.97048770011118,-129.39785330923402,-128.51339166735374,-149.39102389781294,-161.39607742832936,-37.922990515753355,289.2137150236418,677.1060947621374,846.5891549640401,569.6570557175498,-69.93807790004811,-570.2868708628507,-554.2826311388757,-291.48454215999016,-172.39183745480244,-125.24736642261729,-27.549375215445977,3.7764454813535906,-28.098123344852993,-11.42617773285897,8.295992553561007,-12.65456959521728,-13.464631085879118,-0.28667872415986295,-14.551851209305863,-27.209973598518744,-20.61640055896531,-17.11027715419781,-12.525996158809217,6.955758280733884,31.973340444429752,52.231431587504076,64.96087867560503,69.62085373841417,70.70707888740037,68.18857065435314,57.44257862051735,43.88793677822564,33.199602565013514,19.519965399312788,0.9247825253393334,-14.248599748968498,-19.608946901309967,-19.417091733331233,-27.242219103243762,-43.30576811974893,-45.533385822075644,-30.833960715943178,-25.60821317693645,-32.12262115646527,-26.584102741176814,-13.256443162449603,-11.740858192815287,-11.915307810828985,-2.7890904654064954,-2.198213489569337,-12.166049029308033,-9.391980241024159,0.2825726366556154,-2.9558409051745222,-4.22041125743489,6.1662067761786155,8.29124915859847,3.67240125276631,6.048450129100852,5.220991706909986,0.6823423073719859,-0.6766175315747311,-17.60017866489798,-45.75105057260231,-45.41762718383596,-20.720345005432986,-10.927874176480369,-15.955784276167122,-14.887659936381745,-8.932943678626547,-10.223429003591907,-31.93302836389223,-71.94139024616635,-102.4039133877011,-112.81621415682457,-120.49081385892063,-135.33603980274367,-159.81231454994474,-146.14341323681577,26.033914043051936,380.4678241212323,730.8880957455126,805.6883350255852,429.6857636208216,-222.24379856054782,-608.2771243840825,-472.7014718170986,-202.3870673584528,-123.38995809665786,-93.63316274081818,-22.333726397505302,-13.927214308975593,-34.88865022201658,-16.018361415120737,-12.466888361980711,-32.227097449074705,-29.66014017284386,-22.826351376183982,-27.677961014480843,-27.15354533087707,-22.19358393065705,-12.320500985682864,2.6519792367300976,10.366400990602664,25.89576973444643,59.108835950564576,72.38069941983643,57.368453250680474,52.04063148254169,54.359306369622615,42.076946899300076,31.498698243295074,29.408469649903203,16.069422788824728,-3.4304066177283197,-14.477864634421966,-24.062725023497926,-33.486029971139295,-34.873405005245694,-33.53210671299695,-32.29669014022469,-23.33290161174567,-11.687323721768175,-8.103390084326398,-6.453130507367774,-3.046601644636219,-7.28762020507337,-12.128646785843136,-3.4598546638664693,6.633521750927663,7.696011025789211,8.891556285517062,0.6576346341073993,-27.67019572569541,-46.89668584016299,-38.62435033607138,-26.282914627578112,-19.92644383387372,-13.656653031990231,-16.632226627196495,-22.17684380701701,-12.897591315149402,-4.461518791398021,-7.3130911775679515,-0.08958785123020263,12.846251737532793,8.93758213603757,3.381842795960032,8.342959658825007,-5.232482467287806,-45.39388262368181,-81.3083033313662,-103.76364352292167,-121.35651202320342,-130.8811483090159,-145.03883251655367,-150.8504352967795,-40.784548453510226,261.47766137384224,635.9874394636971,807.5935439808602,533.0424170170329,-93.8721627775715,-553.6636910868111,-500.22935234755585,-233.42579432631643,-128.23776649111065,-109.66300780171902,-53.70755043599206,-35.11778270394578,-45.51697258637938,-20.32357247601094,-4.784921582740644,-16.948091375209092,-16.061938278329585,-16.438401704947395,-28.59548102535448,-23.280787777850904,-9.718339354013946,-12.312741806201519,-18.04875103381554,-8.877763050059803,16.102016256888604,46.4930766674039,67.12966297397575,75.22474921913157,74.3389052914451,64.05760969025488,53.53428101923542,45.775592594917235,25.752750208216412,-1.3197351216353903,-14.579340233322737,-18.81230578360157,-24.435862325805772,-28.038044186784866,-31.859760176620973,-34.241755238302176,-30.385048079230323,-30.47740569347517,-28.918241043110697,-10.177078195571765,1.4520883106055997,-8.52868514290919,-4.931453755787459,13.073663774738453,11.919309551441206,6.359691183828986,8.617907005963854,-10.302051810986626,-34.26603081936153,-26.802379452745964,-15.328243086571774,-20.950593323829153,-18.001991422298367,-11.418632285200449,-19.22881856545431,-21.372769286452694,-10.395962926138587,-3.5586613797988953,0.15125468139842724,3.339340440438047,-0.31810582615167604,-3.5339189344862874,-2.7017677601162653,-4.376150246290167,-3.4404123511941176,-7.451939158940952,-42.405933110449716,-93.45640436216736,-116.28141904399432,-112.16011420027128,-115.73734733225056,-141.55731438995943,-159.72741357848432,-75.38997260537545,193.26005271694868,573.8899551937632,831.8402452841785,688.6498002940514,102.82206888463557,-479.77987740151025,-570.1869854058714,-315.86268955355666,-153.7197387619389,-116.01723595569527,-67.09399233449011,-47.236713635267336,-46.07759978624949,-6.4844515409501255,7.069402836618853,-18.217057345350838,-15.655018841139956,-7.459591985497683,-16.213474384088396,-7.897134713417248,-6.678067551254415,-34.994056638220414,-43.485306489572906,-18.28390432890893,9.372164458288896,39.62451202159407,69.59506342410458,73.01997326611688,54.57069987275235,42.82920158729444,40.38209808081916,31.689751663657248,22.906973927254455,28.579055297453728,26.61046822572052,-6.2686392769860495,-35.2598350541485,-29.025441872227905,-18.00622863806207,-22.775865518428787,-23.09874838684601,-17.411867019247154,-18.578947004654257,-21.02376281712791,-21.418556055605258,-23.848253375815567,-24.350881526829475,-19.600987052267023,-11.985608506358222,-6.98781778896376,-10.226817795157586,-14.365532230058783,-9.977587045458172,-7.11429129407831,-11.456085115171067,-9.70808356025124,-4.728934084842102,-11.2888587694672,-17.156826658180865,-8.71867311824284,-3.56176300027035,-11.117059680584443,-15.26852422606715,-12.38736686453803,-8.780443118276219,1.1496587261044056,13.282835588734825,12.528082699454872,4.41956321267519,0.46032531705785473,-12.06427674603468,-46.09216335981119,-89.04586816680057,-121.0788924684191,-131.1112042443375,-128.85043528317073,-150.33626924507274,-177.12807593884298,-78.72242612665232,232.0287542135255,643.4860377472986,899.5069542402161,719.11205911502,74.56899963246724,-537.7611985552405,-601.4628751961925,-313.1076729459848,-155.67938050152205,-130.73138855625598,-65.1922601739127,-30.56120705137387,-49.249346164853094,-28.71433613909848,-6.535507233457366,-28.754740495016634,-36.3617733319013,-22.413253200251,-24.665490656646128,-28.12477247517849,-22.62449460045347,-21.49331309966183,-14.035200604011596,6.722868588081944,26.25515080766248,43.159663551540724,62.12669551830833,70.65376466999201,64.00220344352765,57.819702995915236,51.63036243719297,31.84077233509428,16.320881929840066,23.75223087653542,23.77726259168736,-5.318528298852548,-31.279012262180323,-32.00573198151257,-24.19561519263442,-23.244980225231043,-34.443336410522036,-48.94734895439257,-44.25680653104328,-27.484567165778056,-24.613195261690173,-24.9796434009047,-13.156474523492417,-6.80388594814292,-10.352327025526172,-7.588124720887166,-2.3666146215387514,-4.463022628137523,-9.937136507216096,-14.376536047216106,-11.509133058391978,-0.8657531873683517,0.44835974217790664,-11.243733168946669,-16.212829329442073,-11.494276189157269,-10.908169120784851,-11.757495236581134,-7.0260353441455266,-4.993988539900759,-7.789892373163518,-4.8878757157424495,2.087984321023111,3.458250679921564,1.8180485683201457,1.4289155340133135,-0.8672181792435563,-8.802049788194074,-30.811815916487266,-69.43025647772782,-104.2197512281177,-117.26298265462151,-123.40106516985219,-152.61601872234968,-185.97146553521657,-117.37361852991229,140.32057138094814,516.2130931644608,800.0120709475439,728.8521457093643,199.5023831110779,-419.60739304840797,-584.8992034357237,-334.6028841045072,-141.32475410069432,-117.7828575628844,-76.98224189683425,-24.7866647542658,-29.2623627727762,-32.70591033007696,-18.244015274899077,-18.12941104758363,-13.988072046307884,-0.9975552271370987,-7.950881561721069,-30.54687106182504,-39.92019675197106,-29.95899787846632,-18.290247379349314,-8.99461890323822,11.62860143864523,36.74905029060259,51.09770785345684,62.74910955067332,73.84940066994548,70.3268378663146,51.52785530600223,25.10233983252612,1.8509750607627309,-2.6207906044759195,1.9406607983816633,-9.471276821923208,-30.298220694039887,-42.24020976515812,-49.50470971783463,-53.06956039871406,-42.309369270274296,-24.286571098219873,-14.924790853605426,-11.334965266335622,-5.574197031980333,-3.4487064863062535,-6.319937276418688,-3.401971798957824,2.9745172818119716,0.18902219604497716,-6.949151649800385,-8.500759356681632,-8.49220419942851,-7.471517866479369,-1.3811030949828105,2.827972002473185,-0.05109858240045284,-8.17931590002447,-21.923563532133212,-31.069772619715074,-23.152174655217117,-12.846935578167116,-16.377721489955228,-19.356235466064142,-11.210066740790122,-6.76670646693108,-11.766352461341146,-13.884159036945618,-9.940358201701148,-5.717163542098618,0.4713207457454587,7.451209189078263,3.97567160617975,-5.0945576358620945,0.1444372052362901,6.834864763094588,-18.194645440140494,-61.21995041867611,-86.79346007745141,-100.933680006875,-118.17022079140415,-141.11446955752317,-172.65163935550896,-142.5335607925919,64.17672154394423,420.2504557249231,739.3216682155299,780.8458415858822,370.0021838733354,-276.82417276053155,-591.5038828520321,-419.20571014325304,-192.61635986925745,-133.27056519070615,-79.94597225875363,-19.565340508288628,-31.64768588477265,-35.71634775494086,-1.9597310189224757,0.2045108338012156,-11.178051259145041,-0.5981080800254457,-1.3173180752955034,-20.938620693366566,-26.06612278368381,-11.74792385512567,-7.937503421319665,-26.110448027930588,-29.622758661249936,3.562166106608326,37.785748045005086,51.32983234730115,61.4406045880184,61.118256872864244,35.93258939001285,16.473364550715775,25.198873747165397,29.7459893650481,13.324507631556024,6.331064191660958,8.996050781914716,-6.946564412587058,-24.720874988427227,-25.36533731857162,-32.77154453717832,-44.283477801652566,-36.88971100354907,-27.968089583194647,-25.335944838972278,-13.12801115141595,-8.021552253289855,-16.60714011119859,-12.534557010416933,-4.714460369285643,-11.487418346334945,-11.73634508565511,-0.5392651283385312,1.76796392637352,-1.9902897648036415,-2.589354242426987,-2.338950539791286,-1.8601299558765483,-5.126011209241916,-11.462362715636711,-12.10326928669458,-10.243541419357179,-6.828097184186911,2.8501064564565866,1.8981102453498178,-12.840559686252735,-11.641445656966525,-0.501315962010974,-8.94723956019677,-17.579479664119773,-7.174121586390896,-0.973558785401206,0.03739396557981145,8.437346162410638,4.0689271322224805,-11.166374686987751,-11.606275477185807,-20.10651775340945,-59.94932677042314,-97.80814011981067,-113.82337804745391,-122.24073406786395,-134.21971478440906,-162.34545453078437,-150.8097025600212,36.491830352090034,407.2617563409527,767.1613315269992,858.2996826523804,478.3727408447734,-214.52180762677926,-617.0945626145931,-453.8314103401225,-182.6307856900938,-142.16148888369105,-131.54211811851576,-52.87442716529431,-38.401937432382184,-56.69952158169062,-34.982023541643855,-23.161882398526135,-25.97272439009415,-14.095307741953466,-11.073583040859766,-19.169681159356088,-21.61268423436229,-25.30952740601057,-25.41376076723627,-13.88617027685394,1.9827399789456557,22.68751739816611,44.67972091985254,56.07601067360277,60.59446539395886,61.02871106523776,49.18021552743468,32.24281103860265,24.09655657263719,20.448653897009898,13.523853241028874,5.926317007230259,-2.4403903812935024,-16.197716344495102,-30.571118682745006,-33.80622667154803,-24.950803588231388,-17.426288124067963,-21.05554176109252,-28.879597808946425,-29.958261187357195,-25.96912866025922,-21.11572758997984,-11.61628008515318,-1.8371255234252146,-3.4610875303006416,-9.480995446200408,-6.065067301632393,-2.0309074730647083,-9.394281162083594,-18.332816084301033,-16.881101364208128,-9.9741860061593,-7.215086281504863,-7.137721213531549,-4.008912720630235,-2.8704359451146253,-7.116370954766163,-6.360380405293451,-1.3029522852521787,-5.025837655502091,-11.932395926829448,-11.529612725157921,-10.561675542403343,-12.122779748808846,-11.417413061365767,-8.793043852680967,-4.997394230882264,-2.317767762013702,1.2580249486244721,13.00127898756291,18.919987108069996,8.923846214788448,6.911877055785682,3.411415640647534,-40.987207990114165,-95.39435745065467,-112.9824798141708,-118.23106569824924,-127.6777571388409,-136.67796150842076,-158.90347481536386,-119.87941243480574,104.27471549550967,466.4010341275119,751.9456303656273,710.3371572134548,225.69356022721885,-380.52210350611693,-571.7558043531914,-346.3203130411997,-154.8034181053043,-123.47888473413255,-80.98566481621117,-32.090779473516704,-35.86335437751245,-31.881571334296222,-12.069787371676469,-17.183915978979417,-23.94591155417318,-16.869859900660714,-16.0826437140891,-17.076434549721533,-15.757585904963719,-24.899478240488822,-31.593868765487414,-16.767457021863265,4.209946152141612,15.33878432283803,26.393170169740845,40.689098583954504,48.592376499086036,49.04590964963123,45.940094056194866,44.600601987223556,46.600467169304125,37.62795617831793,14.12206160916817,-3.11681172974681,-10.88197349597769,-23.787894256880335,-36.51266876618614,-38.252790512385495,-31.912017608832052,-20.879535718139774,-11.538534988054906,-13.04624035434842,-20.07792162781122,-19.529730511256314,-11.495733223961153,-8.514156461114982,-11.515467122269376,-4.9100208209666185,4.829311876435966,-5.699812007144377,-17.846328494417286,-5.394534311413789,1.4128357204290403,-13.502051926507352,-13.071541670090802,0.5131819205456267,-6.338487478981158,-12.94419459056089,3.815101500226053,12.920837132509941,-0.730670240161345,-11.184983338517739,-7.9441907896092445,-0.7493146949929859,5.6483183586689165,3.010316966233958,-19.399840946505392,-47.84904904909681,-50.43537820100021,-28.99809595709444,-21.58745176160109,-27.69226361121429,-7.1868857396939525,24.082762787817323,14.318662218914636,-10.951907388716311,-0.5247663295107889,6.901813327724116,-33.149414432978396,-78.05212189469373,-98.63387486432339,-120.65604366444619,-145.53836526727733,-169.57582997161808,-173.7270610832533,-47.852104257415554,266.7773327799479,630.609200324782,815.7225047528148,604.2641172988448,-7.806325583106727,-546.9395512281474,-551.761331437374,-260.80505863444773,-126.16377523995732,-108.53937991583422,-49.11233220065168,-23.029787905712766,-35.8611010900272,-11.441544797556954,3.410296899673291,-18.932511353066026,-22.791747848128868,-12.402284219359007,-18.87815978000053,-24.001051751944598,-15.149598173570444,-7.093724287341701,-7.802440390607108,-4.612151983639895,21.809894536499524,59.476972156107394,74.2387644584433,66.99878258724154,57.65699891296982,42.107730060930635,28.03847043072846,36.75335166288633,44.23241436370165,23.68619167746859,7.735686845216655,13.467336512709487,4.9810026564262335,-21.83282181045109,-36.0392982986935,-34.683192001449214,-27.018619209475258,-17.637359390543818,-17.856320886292593,-21.365244871708914,-12.766948109886338,-3.932390440089634,-5.832422958537602,-4.597821048880874,4.3328701642709575,4.635655156685111,-13.993952852307274,-37.33472949988207,-41.573834009556506,-30.171838091185528,-24.919708665607093,-22.302050434553713,-10.460283522205483,-2.4662013262861997,-5.4577950577681165,-5.623220546908286,-4.2024845026053335,-12.213312100515516,-19.2866756431835,-15.901531913976154,-13.278844031559693,-13.354004815587004,-7.571163393657965,-4.209426864990316,-8.955147886172796,-10.323860617975775,-7.9089314254746625,-7.922079657058706,-5.476498974148633,-3.103993087260694,-6.456909223419803,-6.801778651579972,-4.029917895211877,-15.042322419680513,-45.95340106646526,-83.77893532209116,-109.77133652809343,-115.38152677310612,-121.30803485706028,-158.74723034440262,-186.12469478559913,-75.1877376424057,236.21243434924168,637.205736017758,886.3778097492357,693.4278210014248,34.73161564020437,-558.036209817217,-580.9378876145158,-286.29443462108316,-149.2383686370635,-125.87936789062375,-51.46477989483347,-17.48363022534369,-37.50073132560641,-19.291898877306757,-0.6630629847726333,-19.30244913823131,-26.960174311942602,-21.086407959803264,-25.694885596864587,-28.281906218803634,-21.16763415842983,-13.133634170639422,-12.815857261603087,-15.96559377223344,0.8256615250388766,37.93477405089725,63.46647276896475,68.44354089584957,66.18427677916965,58.63706545089646,48.9760757837261,44.674623192159046,45.7197470836048,49.11697047821762,37.884573714588434,-3.1098859189150687,-43.354731867667404,-51.09277962993613,-50.97324588419033,-61.42589814177933,-57.489021458258975,-37.55865640470091,-27.48948024799769,-27.58042897873101,-25.838556044140795,-21.441232461248756,-14.068599506652767,-6.0965933487334425,-0.781267132191239,4.47010613315997,5.103125873333447,-3.761999816387526,-10.136529443770279,-5.76289916596186,-1.5124770203009632,-6.3279534244435425,-14.491836993214278,-16.29200375752388,-11.797248148627006,-9.286577324403005,-8.254132420372766,-2.1956558563405792,3.9142177063521846,3.4263661522520987,-0.9682781593612422,-7.699163387914197,-13.623316616339658,-11.836927378259055,-6.0929579600118835,-2.983530358399035,0.3701444921496915,1.8301504925356697,-2.452935649077328,-3.2622128898656886,-2.24000860577675,-19.68614555657862,-54.646314806366334,-84.6981963174248,-99.5881590856319,-103.38798180866502,-121.29213284634491,-160.7672769216343,-121.78330599546973,102.21635223850924,437.3274270310409,694.9929666929442,672.7099858938863,240.5536740198948,-331.87286477001834,-508.66725541617416,-277.45267102481404,-113.2931486168149,-122.01891742951207,-83.44493114383543,-25.47431298693961,-40.53519074879884,-40.90805865991399,-6.829001433409971,-5.66687209200429,-18.356568739720522,-16.21885403505005,-19.528477362917595,-25.675543450340477,-22.176132316636384,-21.40525666527563,-29.10254826382202,-26.81548016422854,-0.34252872142341406,35.878586094299834,59.524132674711126,66.76326896553306,64.4984085361877,61.041046340832565,59.542880234637096,53.747776628883585,45.32134341763684,38.4819368374339,19.1380837470901,-15.927082366726516,-39.32276209709197,-35.74810215749031,-24.949631353133082,-30.32672261322498,-47.0288892717729,-50.019884259157564,-34.39121524211198,-20.82341083273491,-15.446271790386255,-8.163553638290324,-2.604984952408337,-5.901721817242265,-9.450679116419888,-5.853957958309504,-5.498884121247027,-17.453985399349683,-26.190267180395168,-16.52026897224764,-4.803325398858995,-5.060529104924274,-2.2488324869521783,7.91663568953784,8.744730582611549,-0.4093619571323579,-6.381073754695391,-7.218268555735154,-10.382314526268608,-17.60879635818822,-19.124233712596936,-10.260951505173505,-0.8260857416218919,5.435316876390775,11.356378544084425,10.329390826972272,-0.33954059872292675,-14.614972953993352,-31.971131393982873,-51.75830757311387,-74.34895543549837,-105.27348790787303,-129.46820432241498,-130.0528214583862,-141.73128415514674,-168.61268271848013,-81.46603928694543,211.12332417400438,570.2204196017265,761.2055231235364,607.8141416558323,84.46450981738232,-457.1385523026051,-545.013193851238,-286.54533854586396,-142.65914814466333,-135.1820053051355,-65.04941514157201,-11.626569326952534,-30.069284440506323,-15.074608096913781,4.8957312690837185,-20.59172934350544,-19.51543167304819,4.593035617931207,-7.265386330490145,-24.237290883554074,-19.416179577826494,-15.053567741357067,-12.963925745990984,-6.68791735273635,6.801906370439779,28.20111437446923,39.32999716489542,41.74100533379224,54.959108536075476,61.99666057870676,49.435552337397326,40.10955239496236,37.33998429482982,30.713663210478863,26.543920544008692,14.040297148772162,-18.80263139188148,-45.24821549448691,-47.15092310161168,-42.68984175444125,-39.989694182449604,-33.26553961674331,-31.098558096875465,-34.51237062940042,-23.9585540763764,-2.2167052252478143,0.8556632164140368,-14.600302728407396,-18.30633770162941,-7.551286692024373,-2.8462222278677523,-7.237898341624135,-12.828440098010294,-14.868445885981224,-11.601655165464148,-11.153270595622075,-17.122720542726746,-17.120597091111346,-9.574888538026567,-5.973107422850301,-7.378434062061608,-13.93124952890571,-26.652510192393066,-31.753318303861036,-22.385879975733943,-11.383795411592999,-2.7636912176821014,8.13219160024907,13.83105374547485,9.161622594332757,0.3910337303556677,-16.87510134495757,-51.14428885164966,-88.26307672239331,-112.35008183161035,-127.15589374787359,-140.31226589234893,-170.90217539124427,-203.46022484151015,-108.99752949654072,206.80370120623593,613.5715939123804,856.445142524579,693.6565158589839,83.49420122022224,-519.1797258349545,-578.0414986017992,-277.34657565030443,-130.2074530999543,-124.30546926656622,-53.14448900359353,-3.3805245600743206,-21.06133507798795,-16.867379188482964,-18.806701939807443,-46.084573573269395,-34.260851475121875,-11.806043197874388,-30.45266308601346,-47.83007060893263,-41.098702076395284,-37.34943718906228,-27.398676770541094,3.8978036152502233,33.25349570987088,50.53692740655032,70.68196038041407,88.17339177459156,88.89613243412207,76.07588401403638,51.34924895126512,22.0293147791148,10.041841019794438,11.147865938703845,3.2185926808329803,-6.4293517172991725,-9.806208912988158,-23.25459015117233,-41.425325101193096,-40.930136871623944,-29.731762036429707,-26.741133603976543,-26.44885755986335,-21.732300358624506,-15.542198401045109,-6.1774134463966135,2.243170778323881,-0.2276292349072513,-5.497770918664543,-0.9243734563682509,6.32006669031416,6.856918754632293,3.3260223002954294,-0.3274819712826975,-2.551558176709701,-6.29107158751793,-16.521671848667616,-25.55053716249933,-22.094020359710022,-15.143106115167264,-20.55956284375742,-31.099863794101317,-25.68774577108009,-5.430264682163902,6.307870995465143,4.054773475638429,2.828275315870812,2.7749517767136407,-0.715926930852584,-1.8973067476236025,-13.933024134334254,-50.13713905281108,-88.13625053266911,-111.79366978831004,-127.9556760509888,-143.96389069519097,-169.03074539800707,-144.28013386383856,56.301502432058754,421.6134242944875,749.7923457581402,787.4237499120268,363.8399485100422,-296.29020825917456,-596.1681103674861,-383.562992445595,-155.2629322215946,-140.26459926260839,-109.73413671114724,-40.63547478997603,-49.36360360483529,-52.55551245828236,-11.872399250978972,-9.772157627768564,-38.081189353272336,-59.08618102939812,-67.96633687298129,-38.904419982551545,6.6757952016248705,16.243387298888457,8.424652359876958,13.599482400555074,18.313034202722957,22.667069481491907,43.740617629075004,73.56878920888295,83.19427074301282,63.31345469850673,43.57562678054238,41.582526287111094,34.29796379050781,16.509315356599664,7.576523896780193,-1.0861340990207928,-20.210180614723633,-30.637402654351572,-28.871443881531505,-33.69768980410452,-40.92675502635221,-38.65096493886745,-38.93909093950501,-44.77350023011279,-33.78707416959609,-5.110615546607276,12.451367432142714,9.229253699518852,2.3478226949030656,2.4451482296735847,6.2479478555620585,6.120910747199421,-5.396736048305634,-24.148351099534135,-31.39513083994175,-19.565834683143773,-8.96056761114362,-15.558842705796753,-21.84426823278674,-10.250385072542997,4.7599379602807925,7.374714493969384,4.983467671171407,6.06483030637029,8.59238021800974,8.967490409708812,4.32460771225141,-0.10901169384784204,3.5556032079279563,-3.810603422224366,-45.6472717981514,-92.89742397209724,-108.75800815534897,-112.0233468456196,-114.59589165542872,-108.07513022000371,-130.25837455494778,-158.29749296259286,-41.008866895882946,279.3457200934888,662.8826357851619,865.5349670227823,599.7497513260922,-93.56608307274729,-593.2850924369268,-493.5819125761939,-209.0152821458041,-141.3178991438993,-119.95433658941042,-42.08377742813785,-43.57708400578203,-66.1489693884575,-23.60955524221589,-15.340028085880718,-50.403152224637076,-43.47992129211095,-33.520403047251584,-63.934931102267626,-70.55912297594435,-28.060923796824376,4.318797338012082,1.8217814181440932,8.633422798062735,47.49089450413168,73.84599874193952,60.53007092401435,49.13823720162678,62.2875061398661,65.8251134529082,48.41597709689857,32.278417644622614,20.35547055926531,8.805085308794316,0.9723750132258848,-11.055397563928501,-27.73018966857351,-36.44720840254589,-39.29684681236469,-38.31687600627567,-25.825628784432336,-14.433785965325118,-18.752097698455618,-22.459316952729715,-13.75891496495538,-8.89295728873304,-12.786616479198834,-9.61725703170903,-2.3380141569142623,-8.437167261613642,-18.29058758611353,-13.029546133316863,-5.088998431050371,-8.732188713883147,-13.578775436577857,-16.513117158678767,-20.06494376997196,-13.234478679843178,-4.370665581620827,-17.59372037154948,-38.83126353016802,-35.43740365904517,-15.090542286751258,-7.23009246436613,-7.927822739672239,7.904217977803899,26.842850623015302,18.014373154998008,5.705932997791919,14.663353281887476,1.9831765740819822,-45.026403791258915,-82.37174244130445,-114.0213106609435,-152.3205095077169,-173.642943543371,-183.3649966495509,-132.42100611560883,102.35614131156046,488.10275869541397,790.5098969717119,735.6943997527551,213.75506147894617,-416.8809031560241,-587.1623264206388,-332.67199876087665,-152.39238620393962,-135.956540664589,-79.61984676829019,-26.287072407589278,-41.48459616437806,-33.966351217512894,-7.451921362116906,-16.129869976555554,-17.124348151550272,2.8314106532257792,1.3283499676953703,-14.974091756029267,-25.24325201251081,-33.08090150671306,-27.853861810280627,-12.320512127817615,-18.87359995484433,-34.25880966854336,-17.85252021168221,11.075215382964874,36.15481917110166,86.19605092388674,126.28946273232789,101.21431975344478,62.12301993923312,55.70583041694269,39.720001488726965,5.7430895322034266,-13.497196876092513,-27.089057131950085,-40.469116985304574,-37.07316813150177,-33.882820566831995,-49.60567806581294,-59.92132369641496,-47.22736069738019,-34.022025791365564,-33.59472758810018,-32.68427454851192,-35.254888861374475,-43.12403121192109,-33.145081612203185,-26.902399196429208,-52.99301390912431,-44.43245027259157,27.215897988857176,57.07041859843281,17.285319619262772,1.3642559532362828,15.076005521290671,3.156605525924066,-12.825330892042803,-6.9036821623800115,-0.5946888814380031,-0.9656605089350236,-2.9833367271836977,-5.269180513645939,-2.3387979308295748,-4.747734600277935,-14.267996146240659,-4.8027415047079565,8.617430633910445,-19.864856698098695,-70.25553269946718,-93.96752908926791,-97.80451227465974,-103.89963018551494,-116.40229386853977,-126.61801564260305,-72.01322480834236,122.17464553305363,422.813752321458,658.8722529666342,580.6326790190844,105.4118805699496,-403.9995171060511,-496.88453935113955,-273.67718741668773,-127.55317672710576,-96.87796695153543,-38.4379880615186,2.3357196041099826,-14.06246543007991,-16.361106913007376,-4.490960071009749,-11.498869133225448,-12.289070802753574,-8.549655190435487,-29.953514228248586,-55.910222322574306,-50.73684668367885,-22.97013379492123,-1.2724957149358893,6.928877897520875,12.237798673690037,23.643151293344676,41.209220926079375,49.93774046575302,38.505165390334426,29.86158945542422,43.2859715926483,53.02610236810926,42.082221856931056,31.19508146152124,23.106564240866692,2.5064531619630133,-16.102564650528606,-14.303385793481926,-9.801165348356434,-21.844989738899322,-36.674445535908006,-37.131576672572194,-31.596103426003214,-32.23604750746577,-33.510321165994625,-27.594397102543773,-17.52761924588705,-9.398129800689613,-6.114148115097967,-4.24900665053724,2.1714838977763673,6.8169726885518,-1.5286016966983986,-14.777420471742731,-15.684973830162848,-4.170355227453324,4.533392966997356,-3.887649110909077,-25.126421011396403,-32.4191476263413,-13.520484770230468,5.5227701687561375,4.845332123406882,5.089272139321451,23.446906849451807,34.676248116304826,20.03015572536296,11.045568153742602,19.753889144453076,-5.466460381697285,-76.71270604317851,-128.23967716452654,-131.14719442172515,-122.71118075985254,-134.27452095489028,-152.98846645661354,-93.21473946415847,135.91093546865164,472.9127422413267,702.2085429779283,588.8235183331566,94.48831174817327,-409.5927566970156,-484.85043366720447,-247.30518093046214,-103.33843642874632,-84.49886106282321,-40.12499044027964,-8.741417629772997,-9.667412598924429,4.9159411481800035,-18.903161145941162,-81.71360370696843,-86.00131473757722,-50.76708538055998,-38.74854330322317,-10.916502274371613,34.76356395114844,35.54389797029991,7.386103671657082,-10.875490364926844,-34.56005563891034,-38.22288342989208,14.837432844995075,64.97650828178105,62.8655007217487,52.82388036368867,55.04120678235587,46.19064293447649,38.482321835198526,36.915279439018974,21.418269279616837,7.65959489710998,5.255225999415172,-13.929503880312977,-37.9999937899326,-31.364597336414818,-16.52803212553839,-26.984779314369614,-44.99675113036926,-43.320404046365425,-22.07575480451974,-0.7368041841847983,-0.20898355327811657,-16.6645564584121,-27.046716965228228,-22.431841989180757,-10.422305838694628,-1.5264631472170063,-3.424105355917529,-12.458268774561027,-17.697450077872336,-16.262926261022756,-14.770194344696737,-13.888980778222994,-3.1666135133151663,12.44672805092917,15.478988244834188,19.406201844074317,35.92991784773005,32.46381799213796,8.127849441272154,3.2483322293949435,-3.281677729501469,-47.560157356372336,-86.68392009125957,-91.62449276070294,-100.63875720522262,-117.06124671939385,-120.70983016448568,-141.43567727411747,-150.39990757305515,-13.342133280436954,293.51440119850395,593.7525146336549,671.34103472411,386.29137447885716,-150.88698475729305,-497.37442280322995,-399.971461492037,-170.25961198997453,-102.9813886804958,-81.09952837935089,-19.403537649403134,-4.750292030610268,-16.035076512369336,-7.492416966828182,-13.403817316700795,-19.313163987874557,-9.48439163879255,-20.064204802907376,-33.15858529749992,-14.286498833480309,7.466134270463376,7.1454693783208505,0.05016967034571351,4.384399416095436,21.207424605867025,34.10620248819133,38.25090700429987,47.07383816241345,59.36374348706337,68.13554414599682,73.81211592258383,68.1703642597607,49.93873953671854,28.964818023597346,8.07835908415546,-1.5356181547459156,0.6456287257080748,-17.28549376373859,-49.67072288249048,-52.63992473654375,-37.91670682413035,-34.47529655984205,-29.633172235851607,-42.01462926298053,-87.07204280552315,-85.7695748046302,-6.772446301332373,42.19889940549876,16.09589617467653,-1.6190556280500203,12.44910223092193,9.456816873815857,1.266670470944586,12.222464780870684,8.483147480210327,-14.258575267318712,-20.07625986557176,-25.227151541622646,-48.27216687220321,-48.32181702639043,-23.48906020296439,-18.40126268602212,-20.92972067494781,-10.204393056395688,-10.477114592613841,-21.272298963994697,-34.75064608504188,-69.85607043875842,-105.18727778483326,-108.1716395850288,-110.43322667045737,-142.27157468578898,-151.80294675153323,-33.45512853242998,255.43009355164793,594.0022113650712,742.4051372788705,495.6878222461954,-69.1879779345874,-488.171446605827,-431.45788397649017,-188.68574878125114,-117.61796680419896,-104.37980105326812,-30.977199718546274,-22.238426831760748,-53.46528324090691,-19.14823208066633,4.468545057309182,-23.815070135832137,-27.517383368627463,-15.000014657338037,-26.77168702763973,-27.492384239938193,-6.419097774053178,0.8532497740046896,0.13912928371222688,17.531301413922627,39.41217334337478,49.49374362856008,64.26609217516882,81.98688049427801,73.21151868155823,42.97224829264778,15.505245039761183,-6.012599043664385,-7.804148405768873,8.417878415544145,-4.92849199911182,-38.071072700140434,-24.20773809144567,12.474755701942417,7.228611933171078,-7.934480801917301,4.000914768152752,3.068439087553376,-22.686495023299358,-32.53071684175503,-19.717986759323946,-12.556691351070597,-23.441625282272675,-35.511270191456596,-23.625438967098752,4.669769062028333,16.972908028769858,13.55010511663585,14.272873303685873,6.363636264487109,-21.150560313058985,-39.24709277283975,-33.74628433141319,-30.175898082644185,-37.54674218392945,-36.88535144020652,-21.164474817384995,-1.6642064119243862,7.336955300190057,1.0742221494775102,-13.175683160340434,-33.15367179515276,-61.26727472445378,-89.31957918922147,-104.35200209416831,-108.99285891274991,-140.03131340744227,-195.62108500631297,-134.8581738092303,154.9634752667327,540.8814261159852,786.2640911466083,696.9594833461547,187.0955814604373,-409.37261627013805,-542.5834223615329,-277.7710222056065,-128.782040947836,-144.42814683049426,-87.31889621013747,-20.992371499506802,-28.188035287564283,-16.194141843437233,2.1259218489435945,-19.207548031909056,-23.482531203498965,-19.574150422987238,-44.471965338958995,-41.17481328925858,-8.24789476136581,-21.84651191150315,-50.51093000863286,-16.756240851207004,27.721963890223392,12.745067536868838,-2.6918711263039263,36.41906536035199,74.07412869778275,73.28953873320722,66.08759532291907,58.1677062389832,43.490147469532616,43.041252702486496,43.81093146464224,15.985482299880726,-13.545953890481321,-13.565824535941138,-9.887443766557166,-24.619860429316173,-34.55505180684111,-27.342610312040485,-25.418009783265312,-32.41898113285414,-28.89648312986605,-25.368721009438985,-36.625049688231584,-35.39760242383559,-12.763523379885196,-6.3648121653190515,-18.02706680076167,-9.742714190288057,14.20475845044508,18.528813140284484,1.6456450282891915,-13.59350959657213,-20.864231525904756,-27.010757678282502,-27.34940405286569,-14.476240845547231,-0.2993248091335019,3.446362769775055,4.160994464666032,1.7880811232524234,-17.55703549086244,-51.403188120655884,-82.67380424708345,-101.87767455463297,-106.3533194226612,-107.34337048628345,-134.64015089499358,-169.55935791653243,-103.80837578037526,133.20505749042655,466.0030647576964,729.0021400287027,691.697659649057,209.95227145230098,-396.21867440102665,-568.2853513885782,-319.623283665694,-134.72626336542277,-123.00993350951963,-77.43697292939709,-21.010312018899356,-34.87890479999439,-37.45227489926231,-17.206839029276708,-27.954048087189854,-27.569292628203957,1.134879673312497,3.4725908418661575,-13.939454536176505,-12.503037413211954,-5.050650545350223,-4.082135010999206,3.393983653800033,13.305425773563037,17.980734878849457,28.3897715541678,42.025309981082835,46.173256273733365,52.58816340423029,63.3222293275621,52.29763110992367,30.765872382594008,32.91144224449988,33.23225969856807,-0.8931021593456325,-32.24648827793697,-31.745924902867365,-30.84714369446446,-42.50143790334624,-41.848801760773505,-30.119547242998156,-26.480992547954926,-21.72317848787209,-3.573138231182666,8.480297604048427,0.9954121729578382,-4.467995292839753,-1.20988473999277,-14.224688329011556,-34.77209894208948,-25.011833892288166,2.292903577877148,6.406037469400221,-4.935610954273301,-3.9520872140215957,4.007800833276939,3.5774411818393013,-2.1872902435283876,-4.369113999737635,-6.403973339385665,-16.62553579899933,-27.299531938634548,-28.835842400321177,-32.58674509550613,-45.491230778200254,-61.13150295322587,-87.53661533326718,-120.09647479256603,-128.79388089700996,-139.9161379823647,-197.80899824976004,-192.69464710154702,41.128467023315125,451.080527006986,813.0181647433101,879.086292228651,439.2017310571925,-303.0542579418645,-678.9095083604989,-466.50094785251264,-196.69833183523576,-159.55556159186244,-117.4235518630336,-29.226821713315715,-36.16246764957984,-52.692565305162404,-13.323049690177314,-10.02117465659817,-28.06072851982399,-3.303944929016197,15.83632450485031,-3.8473550973490553,-24.037510336739405,-28.779214577937807,-21.925840415487716,-0.89532216418666,23.383335107178407,43.5478442169888,66.48631234994875,83.22709416469066,77.76155115093883,58.22411416564978,40.67828922343239,30.719049118942923,32.357006793747786,37.747333135343254,25.96607237009354,-3.588854583197042,-32.38133215413669,-50.75518430035997,-54.042585584282946,-45.39185391128662,-42.39988516693924,-42.32675835869256,-25.382510983169404,-8.0508138854264,-16.01097139722085,-25.711136751685114,-10.895869165351854,7.064037514849009,7.265566872849337,0.6202139217723115,-3.674015322724479,-4.733535015871787,2.1687163443146815,6.877210981475789,-4.158126359686751,-8.973047387987755,7.673046480080458,5.587667422429423,-28.920219716252486,-38.168753224337124,-9.958356381783556,-3.793834969457496,-23.44588227432212,-21.737781706911957,-12.610575437385165,-35.68681882378266,-72.06232652687457,-92.44864568014006,-104.30962645764505,-115.45673792296358,-138.1080449122716,-177.5708690614921,-142.91505468504667,84.44536336023256,459.34903732472765,777.5797802392973,770.7148198537777,275.7985778146237,-390.26576186713817,-613.7856974835084,-357.91024298650933,-146.42593589189605,-130.2190877325824,-79.21617101550942,-7.710505789485296,-20.560060910855782,-32.097401966421934,-8.661123666131797,-10.11691372826878,-21.01181693240712,-19.374044378456073,-19.99745895471478,-15.908924845122684,-11.746232248038112,-18.802856342517828,-15.623788996973673,3.248652914849024,19.38816588731918,37.57546155072762,58.948836662254806,61.609940809127345,51.16472545242834,50.017069219643695,40.1499733437944,6.446131884747374,-16.349969917045886,-19.087150649374767,-33.231305060442374,-38.15242354062529,-0.12157431544438424,35.5045126776422,25.943456129796658,3.8150541125071036,-1.1377569671103913,1.5379155109574967,1.5634197265820449,-6.795752213018426,-20.315941566111775,-23.81562616986382,-16.150757414088588,-10.082447527087119,-13.59390527693224,-24.75209074396321,-27.7913321188177,-15.71992038115524,-9.417472356907222,-18.956328633986686,-25.640323161857694,-20.207893999463415,-14.513819314909227,-16.591757963209076,-10.885140036323659,21.528747105668565,50.46171147271875,29.33532803336694,-12.661563249267358,-18.767687937997326,-10.797504673541056,-37.03489792978352,-83.089655512072,-111.27366234150317,-120.56987441274478,-127.12733235698303,-137.72476584267042,-156.02506690248413,-145.19581738201623,-4.006652598498505,303.57886251826204,635.0844835847088,746.0655798821135,446.3842907482788,-148.7692246534017,-542.8893967315456,-439.6404089893406,-174.07226793633816,-95.13763188280397,-84.60309917455989,-34.98021767719693,-43.03509906324849,-62.67132632159438,-13.890472589764409,11.342820811952393,-14.75631617377477,-14.907355594948985,-11.115533350135966,-37.78585338517669,-40.518962414689824,-14.894653486863525,-13.134635227445557,-18.821860910837458,5.91946312320533,36.928140233708056,50.42668520560355,62.16713112189552,72.2607992000922,64.64518318659616,50.133912313611155,43.23917453904271,34.08839270351057,19.456169110363845,12.304316106575374,9.967746733395822,-1.989103870227415,-19.16610286066115,-26.3085884239957,-27.469646382281724,-35.71520322805251,-39.61886389969479,-24.238045589890653,-10.08806970135944,-14.950534249796139,-19.868028814137833,-16.14816031050668,-12.18995927237134,-3.1471977156590043,-3.9976895826520042,-29.493183195360796,-32.37651547633612,10.843039866883041,38.002508793627555,23.645084420794664,9.347890324860302,-0.32802220489036316,-23.652250006170526,-44.396419220317355,-43.461065751599044,-24.175260086234594,-10.199139919019792,-20.735596801565848,-25.579791207219,2.4481092384319165,12.595297957510295,-33.60726651518476,-81.25167298584014,-93.95068866442483,-112.33079007020777,-142.62418850555534,-157.5584287944436,-179.2303937471491,-165.6272238458961,30.49109339905391,416.3019716964384,785.2994920198598,872.5423806447944,467.48909258494723,-263.8646836462215,-686.8322684304878,-510.6722025487549,-208.30911248620757,-140.19234679788025,-117.45800998204025,-34.81804816380968,-12.006740387017487,-20.743205952009596,6.429733923106628,16.955200177626647,1.6385594079451522,-1.144329522172936,-7.021418420761282,-24.120878126484357,-29.440249248830515,-27.808281689418553,-27.346499316363854,-9.176360629072768,23.382023561231577,43.247966014258445,56.53057434534338,75.21814099088431,76.79402064186411,61.89928149517339,59.31220544442169,59.91097071673304,47.59892184787034,34.92124684014403,17.147940109899455,-13.216818340562835,-36.05081150605818,-47.079077332522985,-53.50552008631796,-46.74684651619475,-37.26859852961192,-39.51247844303226,-35.48626916235705,-21.43474284193822,-14.793767072130011,-7.770709150872294,5.244294649847992,8.149549197073322,3.3719588659110045,4.150943634254784,7.459309622551119,8.063157161682533,6.650480642778991,6.200390769890998,2.4225616207278655,-18.69169895103633,-44.396579587035006,-43.9515056943409,-31.484784077004292,-32.94173902005672,-27.690027702000535,-7.225428998306278,-0.8304683815505207,-4.505317100538116,7.0682251286599165,11.07474426202179,-24.715132189521235,-72.3582905612588,-93.59630360837579,-104.7377007813607,-120.89451051519988,-133.0401609342104,-165.6895202897752,-184.3039740266506,-30.373451153282517,340.0251290407123,729.872152380201,865.2636862072458,527.1316773709821,-166.13338134506682,-615.8694368556538,-485.0454552945774,-202.91381782076223,-142.1017169340604,-119.02196902988689,-34.73660058001414,-27.212567872208425,-49.59902078851202,-18.222164131929244,-5.244834970257898,-19.80403582610024,-17.029782979630042,-24.61140335955608,-37.831711553163345,-24.671893453268066,-18.959727349717046,-33.119178630664635,-23.44197838642433,9.379625884061708,31.391690508756824,44.656765039671946,59.47183045249147,66.72941917380206,63.93401181655772,56.19359169216303,43.805362634005746,31.104637949245927,23.177064566188932,16.295241170992625,4.466534857572648,-15.067965365384826,-35.32992234745945,-41.12215803901048,-35.64535143527672,-38.95292037837744,-47.10360881886877,-38.08156059982946,-17.33892484223537,-8.03726992595886,-8.055180764880163,-1.9662015545998734,4.543813234760865,4.002736394679847,7.0704298692285175,8.132940786655531,-12.261440561947417,-35.639670300841054,-32.06753200999349,-17.042274186651785,-13.902919973118927,-18.635045486441,-28.764842613401637,-37.964518691406916,-31.67882842937228,-21.58424493178026,-18.014776090066057,-2.41239780178066,15.168042270784271,5.067931861088821,-9.145851137196829,-0.9167422343562777,-7.063394646300779,-49.00075988475958,-85.39439877404753,-95.26690239554863,-100.98107753409225,-113.97291690463416,-141.38388937167224,-164.26287611705712,-79.38729100176867,188.9297639721978,546.6459549049124,772.7697203368298,615.0870584791709,40.44711239193214,-493.909246595623,-517.5744819560192,-242.32217105437184,-116.0580692591608,-104.25304955956184,-44.81023104079625,-23.12410101938002,-48.531288913891316,-27.522389299003862,-3.757843263193795,-17.910547811193155,-22.072243934292064,-17.6496975208714,-23.275421888245788,-25.699745108224942,-30.217869029533624,-30.523392384747815,-10.002472613273385,9.160925037677444,18.593078651161374,39.48104267232114,58.68030918266064,56.73450688726089,50.3003180428456,46.65609024733216,35.091473503222865,24.029307971567675,22.598976102315422,18.160588511471918,3.3414741952824745,-13.368951186031206,-26.90193631340425,-33.889660740889205,-27.416422735710512,-15.77523002133514,-17.47476253847711,-25.39927640656016,-17.506251413634907,-2.699832128665552,-4.177844891831279,-13.339957147936481,-13.86161068312046,-15.424774766915434,-18.290805891031674,-1.7847587833429088,23.58177461484096,24.84668580103923,8.975766534469216,1.5103040840003281,-2.3184585103892132,-3.9529712799768664,7.540223018138107,5.6410685062779535,-30.83476764349996,-55.75202325018122,-39.6853442463871,-24.863623865751602,-27.854674739236696,-19.011457073036553,-4.874256323946078,-2.941603418580108,2.1370821658109502,-0.5827433918129028,-38.65689195005393,-85.06722041200447,-106.05989981570228,-110.01710081122826,-107.93764277505741,-125.33137888511595,-168.86744186810117,-119.20747091209745,143.70559454795858,534.2626098751253,822.241053095938,740.8338958694575,177.61745773190506,-468.8509193711873,-613.652171736082,-330.3984672487961,-133.27764742773925,-108.74840239265725,-63.804099216629844,-28.830249459635155,-42.48974270823939,-22.2604787824026,3.982627922772412,-13.982782708611122,-15.413198555373665,8.303804972340517,-3.1149534601512485,-32.948540573716635,-32.32572831455219,-15.071785612674551,-5.559129899047591,5.979411156338891,24.637148045108553,45.29311911436472,69.12675298247734,78.69009100284721,56.77051048512451,32.75527138074628,32.189153013171925,33.4549947147614,24.63576771290795,16.969421920405352,7.0119126082832155,-7.057525259042782,-16.027615238716965,-21.385290046959973,-25.630494068858283,-25.11322783628244,-22.454234883438446,-22.25481270666715,-24.626080893382234,-24.54688861656891,-15.68839379100009,-3.0000205429160207,5.4159978857985,11.099942073194182,11.683738252885023,5.038541140525886,1.4794900461959308,-1.13473151809632,-17.960473186190033,-40.26371262281339,-46.75474099566089,-38.996467747464365,-29.634469752811317,-20.962193160292813,-12.627655549711996,-9.778457297262378,-13.148843265799012,-13.241222208442377,-6.726780244303775,-1.7539597078260556,2.204671069970363,7.759811460026516,3.706217982041167,-9.106788521153044,-18.373560515300657,-36.64349370042548,-74.8708759518955,-108.41729766047136,-116.15935466555607,-113.9321468716735,-138.91845268985128,-182.71948522939496,-129.22306804199962,132.41848375634856,537.6205699116385,858.0589675511441,788.9051795116396,203.70682082672408,-470.94667635640775,-627.2356224448343,-342.00131082477276,-143.2324038465335,-121.95021702827115,-74.71738901401864,-28.97404591717607,-42.28437342341051,-37.370022970385676,-13.796871061635706,-14.971697270156906,-16.647573626246523,-11.846610875104972,-13.734118609000163,-12.047015415027154,-14.190315808606506,-23.956143051459907,-14.260631809137113,12.088198773711776,23.976405757879547,26.90669447096122,42.35285352101114,57.44772158860585,54.07051876020632,43.24426803584159,38.781208179953396,39.797274695915206,42.667622492298676,38.209151686823255,19.4024329931846,-1.309378839100983,-15.597638526394013,-33.36445634991303,-48.86516946660659,-42.96455487960756,-24.28067628617803,-14.816232244731202,-9.506389371642946,2.146041335911658,2.5276571377691184,-19.231311002299368,-34.96849430385235,-25.924701565666204,-16.745564123516097,-23.104031875031104,-25.12494288389442,-16.798550671842342,-17.073076188567093,-24.770056503131045,-22.200815912420648,-14.06796855559434,-12.210971531061716,-9.472252838824009,-5.9843446274337175,-12.305123783729229,-16.212389381263712,-9.71520408162839,-14.35628363158812,-27.196131076879304,-19.115729912952652,2.5243715667836177,12.688792437725056,10.268364075580044,0.3682018340922433,-10.66123977446873,-22.149138337298623,-52.47831148182071,-95.09252281395905,-114.21359853188338,-115.78704213028753,-139.12585831454493,-174.0402707581874,-137.89485940815652,57.52118828468954,405.74550066363827,748.1997621935141,796.0402917773738,354.1748155860081,-302.84113429595135,-592.1174877248648,-398.5075243700349,-167.2352532656479,-122.95079314129225,-99.20788133709672,-40.89405023663046,-24.459402582027245,-24.77497490263471,-15.837248698700176,-20.461168243069807,-19.338040310742556,-5.131340596071551,-9.239627232476195,-24.343565147258566,-25.18733229911159,-20.48670128921564,-16.842168787956037,-3.409247271993353,9.467362807495238,6.035704021434804,7.443906559396198,31.022001786718466,49.12494997842067,45.3752355003989,42.301195429599034,48.92143488261715,52.86557169677107,48.100105753897154,31.944993727153477,8.943628104107015,-8.459293653881804,-18.927985555734196,-24.42996036995098,-21.382365378441605,-14.706963190763572,-11.570504303567176,-15.432264549056402,-32.25413752985365,-50.71733226942237,-46.69977532593784,-27.652839291812047,-19.81613800116824,-22.16029256288618,-22.20446588680931,-21.25431685605706,-18.155105540055544,-9.799505956181669,-5.3813549020509015,-9.2095877679332,-11.877221960165734,-11.670215385876798,-12.8574217800372,-8.381053427905272,1.9923739907641753,0.08209345925685696,-14.891651168142147,-19.197103974650133,-10.866033384433422,-10.41174786417325,-14.329216631264021,-4.51920376320566,9.477359024187258,7.859329015212978,0.16833722090395753,4.645528474642653,3.610776985971021,-30.907520050875675,-76.79696012228307,-96.21280333367105,-102.48481032963639,-116.5438941380504,-131.7122998612959,-146.6564107078787,-108.68896991450926,91.19017639779827,438.1004757115836,733.6259752288855,719.4532834520863,264.06103385875593,-352.77456515414735,-589.3587284756247,-372.5077911699323,-146.767041481664,-97.65510037930592,-62.32744888220996,-22.12499462549964,-30.502649997392894,-24.147076732076982,-0.777796867088508,-8.331539629767477,-17.43047252753551,-15.750003759213227,-24.636003412537086,-24.165918020918525,-11.74634791695469,-14.942338029225189,-21.993423158816398,-13.493885455119475,-2.7812250736970254,6.428860783581867,27.294109273619064,54.33821670094001,71.58359306689533,74.33040122400485,65.74313568400515,58.7479680368172,64.00099789828985,59.53935583290321,23.141172396688223,-16.379454182559947,-27.006825994189146,-26.466843657506892,-35.482265063847336,-44.38296254319887,-44.44552692697306,-39.210297919457105,-34.42108461272127,-33.742897700264194,-31.420056836913904,-23.188897604654223,-17.97229628353809,-18.90726772659919,-19.01170579277147,-17.152387102409847,-13.16057295393421,-7.2824442784792645,-4.7843218367030715,-0.3582981961231262,8.788400952012712,1.8734767445070482,-20.879423891213037,-24.22679328371037,-9.555731865977663,-10.340224527995886,-15.703429581338924,-4.513404132687022,-2.476173918464948,-16.60332218834374,-13.07102002295974,0.5684952136551082,-6.261048103458606,-13.933049236345223,-3.4454773702339327,2.398831748898246,-0.5653439758720573,1.400763091524249,-5.40192982552843,-29.638168324943276,-56.8501316420851,-85.0982456793707,-111.93088475451992,-124.5659281826698,-143.20848049984357,-174.9792900475341,-121.35763744680959,125.97016862715262,516.719487992281,836.9511567676354,787.8464469785545,231.84545793206095,-444.44286651201355,-641.3063945922797,-379.41151318259745,-165.8994102303495,-128.61530858726528,-70.69553286549612,-13.865922093616163,-32.31139122587084,-37.81261753114404,-9.74007439170082,-4.5963264661311065,-6.251127888852446,-1.300659651852964,-6.7395477994708095,-10.083971315409357,-6.083027305833422,-3.112779510946421,-1.4851612588933332,-11.416999023469144,-20.078021101396217,4.359460916332262,40.07963714915214,51.18943932576062,52.48815973060871,54.155825039124444,44.59288653653657,39.23605766874593,47.93745528355284,42.749310422030106,15.675506457251828,-3.881142152562545,-7.02782349885,-15.366209100487573,-34.73431308963629,-46.566321220873746,-41.50431683377694,-30.878405745859844,-27.046339019616937,-30.363104199330387,-33.31518349626632,-29.435353824919304,-20.588925667016177,-14.20555155677658,-11.191159780125144,-6.728027970074578,-3.9253229925259596,-8.772352736927832,-14.006636849635768,-9.81168021354588,-1.8758536020216603,-0.0022579234704878104,-3.3929342641399565,-6.544909134893279,-5.152258367098348,1.0818653263560236,3.214205184461978,-7.200400436151018,-21.71696170901533,-24.909850476393714,-18.349315683433787,-15.229044583259093,-14.808863544369984,-6.873036699504636,2.5195960040273597,0.09044142722690829,-7.3737597081162765,-10.113780767475525,-22.17344252540407,-53.436423505344905,-86.51348511664189,-106.1804039023295,-114.83040955083808,-127.57161733105627,-153.47763659651648,-126.57441437148555,70.34181319864392,430.6580764359491,756.9612570967686,766.0173117638058,305.0178028879942,-339.03074127037837,-602.4315274569167,-392.8037563059987,-160.71288596544977,-112.67248639434685,-77.9203960832041,-25.088074518506104,-29.26052610327359,-31.692827099891336,-3.9991130957877488,-0.7126943428085184,-6.9011639461534,9.166561416737716,11.865882435314518,-19.75820327437843,-48.005231191735774,-45.0478705320997,-31.881297472894488,-26.071156211296753,-11.320544025352529,11.206767354941665,19.893632060182362,24.54172893194375,40.99134892253741,54.150626142233605,54.64003683084843,53.695315272589475,53.076787673439554,42.237776940220876,19.958111939464224,0.6727463621773184,-7.624931678001545,-15.939349618637992,-26.93443804178262,-29.965938537688274,-29.77685686859448,-32.98188777121169,-30.673471424530035,-26.270600933208016,-28.1405783506024,-21.627781315733287,-5.212449682664907,-5.635306518802775,-20.721136140448348,-20.45752578686732,-7.976893786990171,-5.697344672871864,-9.375081929584638,-9.582874242770824,-11.71526454890262,-14.156609221582432,-11.895849131155995,-8.651028513636179,-4.308579638810215,-1.1855439464998199,-7.109308373320911,-11.942315993976177,-5.2143586050121336,-3.09205119373393,-12.094454760850098,-15.751684354429834,-15.179767711445727,-18.100964161854158,-9.556169795534682,11.027430686810971,14.563977777494454,-1.519008853029054,-5.957360046591945,-0.9871399598339803,-23.3789761517848,-68.49915380724454,-96.76395302369886,-105.75071278725449,-117.5544466656768,-138.09204133446687,-154.34490306159313,-98.75873800507439,119.42905287141683,470.78207817395537,760.4953165086679,718.2303977032841,225.14118668958128,-386.4417699521747,-581.4510113504849,-348.5551159372593,-137.14281325241132,-96.8550709331351,-56.67922258425489,-3.449455461609361,-8.595915090750566,-29.897975400158018,-37.1984382274574,-40.19897678453676,-29.708749457777166,-21.21773603130344,-27.040416141222813,-26.85402802415681,-26.387691575668573,-36.17500595447652,-35.0802584880966,-18.9786217835167,-1.9862380830369952,15.325697356239944,28.98306869678128,36.54526591934822,49.75300968612196,65.62924194238148,68.83124966230376,61.85898584430193,52.603776365527935,38.220532182821465,21.121433961913574,9.49502552664708,-2.3142164480700957,-23.860399633170225,-41.31205662154387,-36.45335282936375,-25.375741536620623,-32.17183450877755,-44.297760452135364,-40.67249931503278,-28.65953910411465,-20.871295996146998,-15.55066366761383,-10.70436336642404,-8.546295380866916,-9.874671293325818,-13.039014329657267,-12.343465680669194,-4.337519077329269,3.386595762804504,0.7521385979149713,-10.325656656841428,-16.865945255723158,-10.938979357286485,-2.429830451049021,-4.162458383040068,-8.849639887087282,-4.185760372760594,2.9957030338349924,2.312619052052323,-4.547210972598762,-12.241379215372032,-13.109838955999926,-6.799529703432135,-7.197824200248423,-10.945533357794098,-0.18296561527580657,12.52500790232823,6.2825761777635005,-13.399645230788,-42.07012069043541,-74.26098544725437,-94.36418529607406,-108.5751082119456,-123.05992729057456,-131.6551119419359,-144.5628299176734,-106.71056745262587,112.43226637853047,503.2408051957708,824.2091197087238,763.6481988990577,224.54416817904854,-408.72716272117395,-592.7767735200715,-361.5948961639704,-172.35264633182553,-128.23816925938706,-64.26581381727388,-16.108104053293033,-36.311288488467795,-33.905360627003034,-2.7226686537353686,-7.747868627378246,-31.54204601746533,-37.248231113490455,-29.446049056215347,-24.9321871269832,-32.95888187934545,-37.63245314789946,-23.519771127362368,-7.530646227635266,-1.16287865709067,7.5158400223916075,24.055251991238045,43.73863506374474,58.56405748615657,63.29127873242812,67.9725248623313,78.71770057625818,79.73689769911641,63.14574973955721,39.6289812947644,11.20950313926981,-20.090945596279944,-35.556864552743974,-32.99084048422513,-35.27367090366744,-44.865563798428795,-44.209347551996274,-35.82437189277095,-31.662696671057123,-28.538764736284,-21.691599317451697,-14.266061060518403,-11.193492822958913,-13.084020495171668,-11.435111280870377,-5.72634025548059,-10.2003137508811,-20.44433820674547,-17.49610882330825,-8.207056459321272,-7.71765768846474,-9.197265871494473,-5.3696156026113115,-2.5401725740373706,-5.985360868890783,-9.768009830289774,-4.091243599437057,2.785089159415813,-3.2699416303842384,-10.221168445944208,-7.2889509152221645,-5.28862861630545,-0.010214185260347008,14.72112549108936,20.709338613127898,15.906809784728667,9.201776046269543,-16.625433656074335,-59.32849714109328,-87.36680479382616,-104.93594969876048,-127.21803141734037,-136.76636260163434,-142.9040949830569,-162.1285706656666,-107.12044912794772,137.87317314613233,530.469912157775,840.7008237690986,757.0490467183979,179.55953839139568,-465.3562560841473,-618.1993888059035,-355.49492703176907,-159.42659092122983,-120.74681781541747,-61.14130161927857,-12.174783774550136,-31.781066692456115,-36.77057548572613,-15.65493459448101,-18.764875676830805,-25.010414218837504,-16.84100226836728,-17.110004886899638,-25.777743507454545,-29.817845968658396,-30.599893738821446,-27.999238994795032,-14.377994201989615,6.280075647513097,18.028210674257394,25.701546243139006,45.93541954273405,67.75352206638908,78.1246384488524,83.12678057102211,77.25769084716977,58.84355728589516,42.679789415459865,23.21929991741043,-3.8861824175646085,-19.379775329986458,-27.06175214675219,-40.6709962240204,-44.959987310384335,-36.38445985885426,-30.81036950947062,-26.95182246357577,-24.75785986916,-29.4274546285421,-29.176565851907323,-21.081994663668798,-17.22801146214772,-15.885883033177333,-13.92535302347951,-15.672402516201274,-14.382677065227126,-3.887211519084744,6.915790468408627,7.7118490942140845,-2.2156911429269,-12.813158670354817,-14.62186458015194,-11.262174981564167,-7.615745687989186,-4.067618769608444,-4.742147783130989,-6.280971428484298,0.2062679128335123,7.153014250347734,4.848058969337343,0.5415823420509724,0.06822339323257509,0.45324833513913276,0.5643216256636858,1.706979145857118,6.0472386743919575,1.370382523938428,-37.770573330172276,-98.00705608863909,-130.21676756637396,-127.63139392941962,-127.65674736687285,-150.85209371533372,-171.42603145978865,-101.99662425550201,143.52831453215484,514.4603684309311,790.7283403386843,692.4665168990575,153.62084449016655,-428.02269890708567,-562.1954458161063,-326.04217266284434,-142.89604451682058,-101.33236484148739,-61.42147346698296,-33.47923898209922,-37.767364089406584,-18.454977008448033,1.3885270438853645,-13.174758555368122,-25.63479913014681,-26.750862952218284,-33.026890985041966,-31.477514233396228,-24.5938207315536,-30.46923831874545,-37.254052177005136,-28.032840526539864,-7.613833394470207,15.968682340146993,36.34340079827554,46.376362777612954,52.463114304815,66.05668236301564,78.33551514478773,75.63801077713303,63.7923298251269,49.3566589051251,30.21892987548676,11.326016292103768,-5.502690217421586,-24.759458767058995,-37.83391240098248,-39.799741895204775,-41.966538175330854,-40.78334809894044,-26.866491075578665,-17.54246435296615,-23.1140683380968,-22.866580247668267,-11.195800003984246,-7.3954560930639595,-12.230249618329047,-10.686640235414142,-3.3345512452503705,1.3564869071740553,2.1401120654902215,0.9748617257458925,4.228964633961153,11.36206925915617,-1.5113345002916212,-39.05255900464621,-54.745360415513225,-30.213883137884558,-13.231623511673266,-18.041112652840866,-10.42786233175211,-2.2869506162860986,-17.54981964162448,-24.432277956591022,-9.771343311359615,-2.2128649700437357,2.1490305016526943,11.126174095054399,2.6788498470653606,-12.056190011197804,-12.75907085672534,-30.107301445422472,-76.52690495624971,-113.87074162304565,-126.13327430460954,-130.21365388606776,-141.08642331316634,-135.67670908811198,-18.78342496246792,278.7039272643868,650.3610663582855,826.6049079536108,552.215685623301,-86.40201831277962,-562.8115503993238,-521.4442173558052,-253.31280142394806,-129.11878856095376,-91.52811667311599,-37.46394815771757,-28.691095000854943,-38.048378596738516,-12.485037133672897,-2.478345427319802,-9.836690174214894,-1.0347197324803314,-11.498367273191192,-39.69872579779537,-37.20492438952978,-24.182720369972994,-29.967614984331156,-25.665417198015945,-7.24843736374807,-2.7442627477821553,5.8392994447260875,44.47823568310359,79.62384935681209,80.50384277625365,75.2791651553969,83.19313729537215,80.30451632033083,59.81076650294194,39.01632619939163,21.38425408435527,5.194335615831094,-12.547936539502007,-36.56460327456983,-49.61026064456571,-39.792139423557394,-30.47738249422457,-34.30878767927548,-40.19759405683233,-44.7168819593557,-42.04006750965005,-29.426313543612522,-19.499663897312345,-9.857821919513057,3.813091532205039,7.237598013190238,5.793057715377518,7.43480724734432,-7.153428562319668,-28.48072837691717,-24.97351441795832,-11.572051971792284,-14.603271853193412,-23.97779422930568,-24.582128893989292,-14.139844968681743,-1.2235072103454137,0.0014313065486319942,-4.857688625700472,-3.367031720898183,-3.259135982622645,-5.961632605517089,-1.2484301814978682,2.138677590876785,-4.039067316768175,-7.211958061755896,-9.132355425318558,-29.596571420726583,-65.45992359799614,-95.77030961185498,-111.53818242892308,-114.4914691630719,-126.24159664048837,-165.32493546016406,-153.34167937393977,46.769425536408505,435.6354311029895,812.9557878298647,866.7115678109734,394.54305300661406,-321.05323518056844,-651.1975323430136,-448.28868975943936,-184.2082039395254,-116.07217240259887,-82.16848296546652,-32.81252144775951,-37.131222164080256,-38.73156345747135,-10.898708638325964,-8.824435889823427,-15.401788849926376,-2.6308008867048773,-6.480417709269055,-30.55195412433557,-34.177216454093674,-15.30565197257579,-6.0746078317242755,-11.411118356033501,-7.858745706718982,8.653133347756896,23.440122701601265,37.57549327826887,56.61790560179536,72.10046194588537,74.80777442189228,67.0141145856054,62.00743118039234,58.53702386702737,34.15556565045057,-1.0990410745581074,-13.788529394517518,-19.008175027768868,-38.39751525946109,-42.00337702485553,-20.780090693030154,-10.822734794129907,-18.516843345278204,-26.12140651401915,-35.58854745754405,-45.06618398672242,-40.853103676724416,-27.122219424214286,-19.77340949467538,-20.943314347838886,-21.873304960402642,-18.49203587558273,-10.95392611635511,-0.07444483222512943,5.054293504402999,-3.4369269215351714,-13.492498912649527,-12.313404251413575,-7.539422040762879,-6.05988608783003,-4.771888812869982,-7.489228178735267,-14.439606571828968,-11.49191786328852,1.877115365359737,5.986672758853965,-2.3877543664993954,-6.0981153898018,-2.0604258098521413,-0.4675856783867758,-4.111465772148257,-19.18383852757781,-54.41331114758895,-94.38089344670838,-112.51121035693271,-111.43102274344085,-125.13415761209806,-165.2137448046568,-153.76576878123745,31.187935704988263,396.67223795870706,763.2607209202948,831.4421795407625,399.1254831517905,-278.85215660840873,-605.9737794733439,-424.37411841873046,-179.7496448305061,-121.30757650757079,-83.7493171460206,-27.362553328918594,-37.06109261983703,-43.77342271440001,-12.389675456887616,-14.726079448663327,-31.269246085086223,-19.002695812206838,-11.875372747142237,-18.561082538548227,-25.831210461317596,-42.612344866997745,-46.07586220536891,-20.066735688950278,-1.6791243188029013,2.846643776160494,25.007596093054023,50.53753596395378,54.88441629105026,63.832979068204324,87.45497906381482,85.73602095289039,55.704390821379604,41.42559257076702,39.49301612667866,16.507692945375677,-10.215387036822214,-14.98493233585507,-13.014931852047562,-19.20828858968852,-35.21094199165438,-54.516857331740034,-54.00571702750399,-37.80634414563974,-38.426331300278875,-45.361214476591314,-32.79005222069992,-21.071672643311253,-23.446771353219866,-19.31517682612118,-8.820386785422656,-3.934394146144605,3.400933011517612,10.495011547459196,2.21233706161032,-8.7428063118751,-2.615165475517607,2.3286923147371645,-15.969029596969992,-33.039473206749314,-21.076991819152568,-2.541635596248039,-3.2961286214872736,-7.657218096259815,-2.6381304648770296,-0.45422586452185953,-2.5778179750753925,-0.415349183802439,3.3209740448139806,4.986816873960037,2.3350410874719483,-10.138870252161356,-28.055228636308268,-46.27386689113476,-73.86502202829016,-105.77319648690474,-121.26667874829904,-136.55781015708263,-171.59355648080677,-148.7570159121783,51.454281221922656,422.21081509514204,773.6632964123937,794.2865459813902,310.1995569834593,-348.02473643400555,-600.0153619391104,-395.45403018582203,-177.61052630389452,-116.36978587975412,-66.15381424005278,-20.06874057268773,-24.994537718995872,-17.472099440245252,2.973365645153457,-12.852144365790188,-31.076687784944625,-24.52072883477174,-21.060389114785014,-26.155174246816856,-29.734680727679354,-32.99516979497909,-27.92848255941316,-7.325604297941121,14.918835964144849,21.06167117080026,19.807960199904002,36.43615222454885,67.65410691501924,85.37841453463278,81.11505019185506,65.8740396458914,49.186067593213096,35.32229826535598,19.726398120315196,-0.42145052094317403,-17.24409143316107,-29.28948557252322,-41.89187315576348,-52.000768134314754,-53.11522310529248,-42.779955679922615,-28.345409527082936,-24.080912989660156,-26.346199657532424,-21.207309708790874,-16.859882102372044,-21.209088776995397,-18.76549248494893,-7.131846997250054,-4.187472198516286,-9.725494453667828,-9.456884092591878,-5.159567387353544,-7.9241885877380795,-15.28587250044858,-14.989493544669259,-5.690954135470587,1.295396809251141,-1.550205641163835,-7.913474075403077,-2.926464990674857,10.07553836541807,1.3381421978265386,-30.49418912870959,-38.325924877865155,-6.4715900752849365,18.32492727964443,5.887611173093118,-16.817424987373382,-17.671646447393456,-9.554014840082361,-29.05971395082161,-75.53555545000229,-109.12423924411411,-110.47627114233129,-108.23071499807685,-143.3937312355144,-186.5042630085963,-108.14279527837041,185.75686462513568,611.134787353118,903.5513096898615,733.6378431793134,72.16539149383473,-547.6112988029872,-615.1743049963106,-334.405720217932,-160.59211413338159,-111.43267118854305,-51.32300809565726,-24.54775117764764,-27.88318247876888,1.912601537440672,18.70229837422753,-3.086750548246286,-5.75172390879996,9.858177095957611,4.654748543739732,-8.930989397355361,-15.944547981052644,-31.67074084992307,-50.57376667480855,-43.049433505239726,-11.0110681223724,12.469230277190908,22.712824548869214,41.57227245331523,64.4000259673738,73.95678246753793,79.12737506017561,87.229670995093,80.81226214699238,52.992587171668866,22.144024874499173,-0.15766868261617162,-19.606151170671247,-37.3966914274727,-46.28298160306359,-46.12534541729518,-44.18868065346172,-42.32181023996617,-35.732922616620264,-24.072876631734218,-16.493349861219954,-20.225198663211565,-26.325955666649676,-20.706988809681786,-10.89838922382711,-15.009165143345609,-23.97174725721036,-18.509163026287375,-11.827326929510132,-18.084626422964913,-14.818093524004421,4.477035881115022,5.7082132772100245,-14.644441462347402,-18.950499078112436,-5.237385731514518,-5.581444137533058,-18.127870977660432,-19.812517073272392,-15.833718074333472,-14.163705153090003,-1.1622389712652925,16.134026026606026,13.544471014169797,4.10800839905458,5.084918391875588,-10.541962463347241,-52.47137876737049,-87.61602889567297,-108.6236984339269,-125.64784445843551,-135.0722502214164,-156.53486566707016,-168.76843704170125,-39.57833345971429,303.4162079844357,709.4685271150985,875.6430970467337,549.698444450109,-131.95001066680487,-595.7574319370312,-520.2385963248291,-248.3518810638914,-134.24353512092836,-95.58807280716204,-34.94561247089513,-14.882539618729965,-18.03057059267698,-0.14168650279863115,9.647950068617865,7.97913901990284,6.517218703858235,-9.459552291739389,-30.985690429535197,-44.31143067993151,-53.71201367801571,-50.44752186251101,-34.25572331042517,-20.897052911924053,-5.60443097601295,17.09372527939714,34.7519846416145,47.1667897394768,58.98080640997215,62.977899553457064,64.5007098538756,70.74520943835445,65.55773966262734,45.08548682933042,25.490350274361553,1.0402197438219467,-31.088917515178455,-45.705438400682205,-44.127844000093006,-48.92437594535323,-48.453485944834064,-35.37277500632254,-32.97134905020303,-36.48905243106303,-24.500058937528397,-12.03514350431027,-12.892745017060065,-11.758429315422156,-6.821596704162992,-7.617125346156925,-5.859241394640861,-0.634716618316876,-5.5537206076024965,-12.886854317137207,-8.673130651482214,-6.828255857131243,-16.452807378005453,-18.27720460170761,-7.8079543539097145,-6.45654477409775,-16.040770968378983,-16.454268017115837,-7.74519406894645,-6.373962225823849,-7.144404238971788,3.301954062011525,10.220022518189033,2.1946510011411275,1.519064221963636,7.547506592499724,-15.191596084903518,-58.58845819316378,-86.8587950159216,-105.75612061098494,-119.01813095453281,-119.0324237018366,-138.30030203273046,-146.71893091070456,-1.4429981843320405,340.7278005420534,703.3719307996123,799.1877578172328,426.16797107274016,-216.33483105491518,-574.8604045929819,-444.8009522930839,-199.95319227934084,-108.1976612084538,-69.43468268984839,-30.29323233730443,-31.545409234287682,-26.850773693299207,1.530812218662188,6.844809287732616,-7.505541500558554,-22.736478701733382,-37.387470088389605,-36.958800512817604,-28.413853527225015,-30.052004999435148,-30.021844776775346,-26.15526318200518,-28.83301375210385,-19.481921562411756,12.163937968381468,41.44632907286817,53.66270212876272,55.205915041921784,56.53802115623414,69.33276968831785,82.45254851879183,67.61089124139735,32.79753724607153,6.924271825309012,-10.749878810557343,-24.767138470214125,-29.811353393750714,-39.53301888062495,-52.85587930967615,-43.100724764562955,-24.051166839757535,-26.320710649441338,-30.662124096416207,-20.490821511581245,-16.982482581259223,-20.20092771844399,-14.253741952373108,-7.399256422320569,-5.651628119196694,-4.068611852859931,-7.904699681689738,-15.91812717820936,-14.471229029416012,-2.1278805179704285,8.203254932223517,5.246251338653408,-8.249250223714316,-17.534932338363294,-16.190164848740334,-11.719604970298805,-10.817719416289389,-12.012146672372317,-8.62152419472918,-2.2004241544755168,-3.2334775572986842,-5.605479439879032,4.219282533036454,15.685289555977196,14.642885137459032,-0.45501774829147656,-34.84699700577932,-77.7525420823459,-102.92326758307034,-111.94912907817667,-120.941301578379,-138.13909695362958,-160.84662315316513,-118.84771210323498,100.58919473683196,493.2184249687666,850.0015681625163,827.9235031347624,274.42421989502213,-401.82129299998326,-608.492708989171,-380.5689938425469,-189.93652635897723,-147.0106908788397,-91.5147821105378,-45.77292511560816,-51.551442862955014,-36.69041202894216,-10.243832645224092,-15.040820728326963,-12.658864033178936,1.5698042828710577,-11.899026628195745,-30.395884481034273,-19.8179531258895,-6.8005962190116875,-16.801354491729878,-26.25577032307765,-12.20956861711656,9.566511291541334,21.776082188834522,35.67026687013936,58.67030621239977,76.31618175456435,81.85389856074889,82.11636806267157,75.479266811864,56.18352474193234,29.988470839556847,7.024966332969678,-11.657537810732299,-29.70735099900803,-42.53624485793257,-43.62036256897004,-40.196651423519505,-41.46258552884833,-41.24721287904878,-33.09466133479216,-23.876471550999945,-19.676903144780745,-17.48086261773907,-14.660963700135575,-13.382003591507551,-13.252941114680016,-9.222338025556905,-3.8385617686782894,-6.362868211792247,-11.098651801966513,-5.278873932121316,1.0727442589619471,-5.440272426244379,-9.765317708373068,-1.8359493323871217,-1.6390276555233285,-13.218880585568117,-14.515398354170738,-7.896591575331419,-11.245022887868814,-16.784256072236634,-14.46307330137994,-9.960595292538695,-1.0362525333429087,11.30682173542662,12.936548615129404,7.618520792987583,6.665243683456609,-3.424605688240903,-33.39558086135217,-68.19683362937691,-94.17769851379506,-113.25706670809714,-142.553750663255,-193.69825352471372,-202.6403936333968,-44.576683554617986,312.7533346193593,722.0203694965625,891.0526929939482,552.0156564660283,-149.7240951001695,-614.8528362185755,-529.5041189614499,-254.34676783468703,-141.183800535351,-103.1382197910207,-43.66430579366889,-23.799178274705227,-24.404398205717555,-5.703082347867504,-3.4142768636229874,-11.944033358531279,-5.348541766452984,-9.431453762108994,-28.635078365338224,-36.67578612941351,-35.27225998064114,-31.42964957563107,-20.143939558527002,-5.41179628602327,9.359744984296313,24.536368798639767,34.61987142479775,42.67206948339163,57.300977337769694,71.12352319251956,73.90404711398291,70.15588976764634,64.11330260618705,50.914929860419576,28.718558361456882,3.558541534935475,-17.976595683340854,-35.80622774013581,-51.87148180939973,-59.39994063337977,-50.40915948207747,-33.457391761202906,-25.941047265834033,-29.39541587430275,-29.57345400597235,-20.17556938296631,-8.778303099802386,-2.587298135265282,-4.14378550828269,-9.890470076911608,-10.13376079294936,-6.1502100340635195,-6.942713822370784,-7.303007430960363,-4.46656368912787,-6.837746311510189,-6.727725845507603,2.72592755318509,7.445188770413388,5.410161275139178,1.3427941530876755,-11.67567860904299,-20.393918076588594,-12.00877230427951,-8.79994449795679,-15.170958638110278,-10.406070869776855,0.21707501075356994,9.357319324747795,20.11180935389961,19.228038246585072,7.971947610779656,-4.696881773471116,-37.79290034167121,-80.96317429044015,-98.43464309888962,-108.70908939515253,-130.37499556094252,-144.07868566987798,-160.2240841852145,-146.0757043853274,25.774510173337006,385.4866363194756,753.0748449125423,828.7663460470105,405.25527038089473,-271.2511953980877,-601.8941804409961,-427.41518919446156,-187.1162312734172,-123.85442702844789,-85.05344558474123,-29.588300962324993,-27.694277676981415,-26.52799001243644,0.4457080411760579,1.3092588302518031,-12.978063521969105,-13.738331553552268,-16.475987040174783,-23.78552704171359,-27.752704589143313,-34.34346975993993,-38.18276294999489,-25.512285807134,-1.552010232275295,15.569791117587066,24.07923649601117,37.0642014657696,53.11866820927213,66.08270389187092,82.4473288716084,92.53289698114487,78.45638614111377,56.164557610193015,42.27037188842491,20.58401172060161,-9.716553250326374,-26.910669142450914,-35.2084588669951,-44.682551769350006,-42.11644013334451,-31.958034475928514,-33.42410267321191,-31.916142622599395,-16.335595700262573,-15.962846870870596,-33.15799171520652,-31.48770849215581,-16.392781646335834,-16.876287763459377,-16.34611314172565,-0.441057922079505,4.051933191818968,-5.056573359952683,-2.9732045798265574,1.788879276071313,-3.88115997578004,-6.015915178845429,-3.283497802275413,-0.2728453418615988,11.19595306178936,13.532124343693177,-11.883846075472885,-33.78491050601238,-29.143128485958993,-20.9055462904563,-21.07438646735303,-20.857889740079926,-17.88789770926508,-8.664097036013473,4.226122099701868,8.251190251975249,4.50220713310792,-0.6066362024704723,-10.585590289820232,-25.15596186667319,-44.043823597560504,-75.82613383927868,-114.51814209399302,-132.7604009494781,-129.4724788240426,-143.18061145739216,-151.03005985869964,-20.523008519258397,325.24198202462406,737.8056757460079,887.8667112483834,522.2522633375349,-169.81982420476467,-602.2442057746886,-503.1076645366451,-233.59355532917596,-125.19839130971856,-86.81969014129118,-26.523165905810572,-14.22179585730656,-30.738621705059746,-14.733082719688126,1.425513495472348,-5.445003461191483,-11.319400226426382,-14.454645413914278,-21.353761937828033,-24.230015795539394,-20.71520890874263,-14.026771768897738,-7.834642283276712,-6.791016962835296,-3.500156073643554,19.908945479538566,56.617696853451896,73.94474817893158,70.58187006215253,76.11486080300587,87.94615315510505,84.52325991665383,68.41595034095617,45.16345865434309,19.533961807875006,2.6595569039885696,-16.293826950644686,-43.327479277940135,-52.768585843516064,-47.740618397101585,-53.149044654288026,-47.88308589869156,-17.528226727439925,-1.6094576107237906,-12.534251567438229,-16.335016944643417,-5.955333728933386,-2.4486810765651583,-12.818164732457483,-25.43333509657216,-22.471907273946336,-7.28212968216986,-6.3530050283760815,-20.322967964578844,-25.17230863302072,-20.26898211418439,-14.023821581523563,-3.32345255352746,2.7555232013483675,-0.9498782597818476,0.9573113059152121,6.445824113338853,2.8655167286759955,-0.8073405259951798,-4.065523283162168,-17.031497895273496,-23.073314859154507,-10.403594387344747,1.4686071646013925,3.1371890383598187,0.03975079534904946,-6.620534365933523,-9.712343398969157,-15.995231096410361,-47.62740551105149,-89.55465587884504,-110.86631772940775,-120.51212099636592,-136.49454537654705,-158.09758494212934,-153.04206400651975,-15.592765818344503,342.0858842222649,785.8082423719745,947.4716582078848,546.8269961331774,-188.500605251046,-633.3775129043219,-527.0863677719373,-247.61247117340125,-123.8230828698836,-78.67783516844689,-35.910845638301225,-39.070707143130804,-47.363207901575436,-24.712956742846472,-14.58625655860596,-18.363731482858665,-14.588404330705513,-15.424593430696298,-19.704485806270863,-24.08432387536074,-34.80659640274638,-32.36102165894782,-10.805353462531903,0.1733230053725281,-1.1831439496308518,11.884628350340794,40.446444374636755,65.32441812895851,76.34314571016574,77.59725807568775,78.66971977187524,77.65680295346355,65.27927009861978,44.41124197176106,21.683013501073273,-3.2879244519855457,-27.245052979253902,-44.699855192039905,-53.534146148003025,-50.72690507861553,-40.91478425780873,-35.39339355239186,-32.08938247838292,-25.010687263855118,-20.30505147987791,-16.763847161516495,-7.091651088621198,-2.7017656718653704,-10.21530906815569,-11.523097087162073,-2.9398788779481393,1.1529966125292859,5.154023153423465,9.600393110054853,-5.2489740793348645,-28.759838063644803,-28.089812813538575,-12.966152145748879,-12.963827587956793,-21.67806548855898,-21.840472047825678,-18.544975778290016,-18.60326139166635,-16.45879235936267,-9.379066664534104,-4.762146279556273,-7.665113817177463,-8.996108545845184,2.0189595339385153,15.718113903712947,14.164790461988636,-0.48092377659745367,-18.847541675871533,-46.44855668849285,-83.01040945786795,-110.59616911139669,-122.8397264431327,-138.6701998762228,-168.58938088838988,-160.4102331537897,-7.180267517287717,336.3783572126092,734.8960729743666,873.9472283671874,495.49284215811304,-196.2535805791951,-603.2587409284089,-487.18895027265904,-229.82791725798137,-134.30181240616844,-99.99655212741143,-48.88650934451165,-35.21804078702063,-35.10110425661363,-17.906569009875604,-13.493850086216877,-18.165836732653027,-18.203887692452128,-23.44986768237669,-27.163468881948795,-27.18444547599199,-29.04477904290205,-19.318617849763484,-4.164872529917531,-3.7524377733074186,-1.583092996539637,18.45365698627063,40.83176854602471,58.65652280339993,74.35029051089974,83.98954107292595,91.4919634820659,90.3258874173103,65.49105606576651,36.32351266238106,23.042554006541415,8.610317684470598,-10.967224146109114,-27.064607640355653,-53.66000086749128,-79.31569756195032,-72.64102741650191,-53.25930967481641,-49.82128119324511,-46.68999635462892,-33.95811705856256,-22.523391300638586,-14.244960463317764,-10.185188090800736,-10.906099690864266,-9.223287556619542,-4.4524263907800545,-1.1580600960930703,-0.9659204816709313,-2.724854292100119,-2.232781242014063,-2.67211979650169,-8.259608016949487,-7.564912675313259,2.7461267127622087,9.180197741713497,11.644489094288346,11.619477010491646,-2.4561826032031213,-21.3636981908723,-24.871027612644063,-22.232910320817464,-24.87383032309413,-20.131231108784476,-7.4035906433258685,-2.6533473160908425,-2.1341277922621593,3.1499374529819786,-3.2129275852180905,-34.507321916281775,-73.74897036574548,-101.06765804809292,-113.48165877460963,-119.84888642366612,-139.5316423981742,-160.03154450215237,-89.77489538304535,166.30857293971317,564.7279133602027,860.3220161429307,720.6117117104873,107.71271190294104,-486.70726267494956,-578.3545668521381,-327.2473343845034,-159.92904741427785,-116.23169112596496,-55.897246616729724,-15.710411555627516,-23.946265173759052,-15.437087186903966,-1.8744833794740927,-17.589445089433998,-26.532701293632776,-18.362573887739423,-21.406640427684067,-27.92657021496574,-26.381015407685894,-29.964933462568027,-32.149088571014616,-19.266467932385993,-5.5543911725648005,5.195886249363339,31.950539351220257,67.97200965871846,90.4754171622353,99.1475610359262,100.89948252802552,97.33986060277297,83.81441634943127,47.11703192946524,2.3589365230935293,-17.40795081169719,-26.944536365160346,-47.1247241751922,-53.58720558795682,-46.54594611522659,-46.77705877705136,-35.67906626536943,-20.461444724717904,-31.011406627357466,-29.268752803740576,-1.1654077736326158,-12.73797310546653,-50.713745738005684,-41.05507243517585,-14.043884263805289,-18.427705403667815,-18.295557968487362,-2.9481022943011297,-1.3496660406759737,0.5900578083312169,10.872354225867337,4.01728835766761,-12.691011443546088,-14.611793380145667,-7.1175372793083405,-2.247920436594299,-1.1802651581716113,-3.5755245971297605,-6.29640606164882,-5.361507883022377,-2.186484379781799,-4.331140970543945,-14.477086173322114,-17.331040825430485,-4.165103288658828,3.9992861643157056,-4.873716634255098,-15.956535238074688,-30.618219155525978,-63.05876123203059,-100.0313386786695,-117.73034794834531,-120.440844762561,-140.2594083242017,-178.06090580655987,-133.4464339045026,119.24322224326093,548.8181205740324,908.0402139811231,848.1983673761202,248.5479433103393,-458.07601359102205,-675.6540432835727,-428.0288893209874,-190.357581387302,-115.17914421916863,-63.17316442664668,-24.929494845683863,-25.71186937745614,-9.430354787135688,18.827896320221637,15.924660630245107,-9.192794335697766,-34.65072655326711,-45.429490630734435,-38.41292679938185,-34.05537880120982,-38.00834091628738,-34.56990827766779,-19.115318694179212,3.2781497018769157,24.517818855889306,40.19635905686296,57.99406474922275,77.91116641207324,89.26493049446208,91.07249885970562,83.84784978429899,65.93309181024523,44.90068301018782,22.958906580392433,-3.116693918344208,-21.903467457163217,-28.670780888158205,-38.24105454194218,-48.727169347381775,-47.55539193901602,-47.13734062626386,-53.705789327162165,-46.48174060567041,-28.636891989254398,-25.02051392368081,-27.323872107157687,-18.564325923109372,-11.715548655807961,-10.745836423245773,-0.8324084814022967,9.076842397611006,3.9325110851100273,-2.1774764905712303,0.6013511191308751,-1.3925876063290055,-9.125534446846599,-10.34020256555976,-8.334926011599606,-7.738063594268773,-2.6952611801862663,0.1238302528660924,-8.618706749441323,-16.14791657100397,-13.988432522924604,-12.970707955682489,-10.239521073594979,3.219050177581316,8.928512184869817,-5.833957296371878,-16.43956543122867,-11.527994721666731,-19.546663480794976,-54.31752748283884,-92.9563326919616,-114.06398178977076,-119.45808128323885,-134.01793134056493,-168.78375402644224,-149.25926209289844,46.3635662378266,429.8900159298269,814.2785658569434,866.3867929304392,386.2859338784072,-311.31157178122,-621.710359063215,-436.7429960842841,-193.16252771687647,-111.83816732698703,-55.801808511532414,0.5944291399506625,-19.44567344423217,-57.67032483584427,-49.04220015354039,-30.48764881820145,-31.145758960319245,-39.1361340776445,-43.264558503286985,-40.40786328624369,-36.048661073986885,-32.04522481927743,-24.068620868633463,-16.801747174903472,-9.486635996932636,8.207705997886546,30.823448291987496,47.27089225155508,60.591419818244596,72.1616702149544,77.60194494496305,78.63187134207766,74.47892132689843,60.36513847378944,40.80961742346154,20.624300418012716,-3.74877827549553,-27.615092980012612,-39.87787925740177,-42.018431278778095,-40.28490649266913,-36.9715688181414,-35.71953568101284,-32.61398671514745,-23.472018638053832,-22.252797951945126,-31.47146310117502,-28.55090317967474,-14.168408230492116,-10.638474580654869,-13.08133427675584,-7.554159878826461,-2.5107786639292087,-3.3357646435344392,-2.773032460125716,-1.7437960571507176,-5.535023573617185,-11.656375647306355,-14.500558741870323,-13.491080438188163,-13.543991654924415,-15.35065464103639,-13.864604782562843,-10.505149627331237,-8.889297932017506,-3.750935522285184,7.238389045630278,15.941428984636715,16.01348029531431,6.986706020190557,-5.8899240075125725,-11.070201938919306,-11.155729730219171,-28.92238767110725,-66.46015332557002,-94.96322645493564,-102.9953576431642,-109.18799206117478,-129.08978823099176,-143.45167269216026,-69.37584222752865,182.85582970587177,554.2233747346294,790.2481931731088,616.7284759769259,47.52680561711253,-483.9634154273858,-560.4597108012774,-318.845929537357,-154.49055756110826,-115.35707516340716,-63.7377753047212,-30.455303490323004,-40.03991416183624,-24.145073568134062,-2.4171814165164065,-14.554134359766856,-17.936775760541064,-5.929781415950629,-15.213987230771224,-30.689845129757064,-27.733169031231988,-20.456310467338078,-21.430170655502152,-22.716898523592533,-11.597465075352456,12.621397367596966,34.12726856337005,47.02537719697627,62.77135826260108,74.87070460333112,66.44856343366757,53.635945287583056,55.19534665101982,48.18785837791915,20.591835617514928,0.5613931620582024,-7.960046805783671,-23.82724359972521,-35.03736520955251,-33.58437417921434,-36.93316916545841,-39.17908908081317,-28.959637309177044,-25.095171236864385,-32.805838511607135,-31.493906393551022,-17.935992250787926,-7.256703148689908,-7.179958646661625,-9.724476354874149,-5.218040633804307,-1.7230599776903333,-6.265151351274302,-9.848869180297978,-13.220070555428919,-17.211386427605884,-9.349314098357219,-1.5392771081858285,-9.758761944397666,-11.238212234303703,-0.4228381533052996,-4.863596186096956,-14.581969690829784,-7.168109485353121,-4.644911711236418,-19.20116828054708,-22.256693940537776,-3.3547039439250135,12.663889280876631,10.336697027381913,2.6552840088256096,-2.952862087828576,-24.294873980251545,-59.253447235309935,-79.91108985838937,-92.63733768408818,-113.00188257094901,-129.09264518794782,-157.50207800487857,-174.552401824219,-24.19132499959113,356.1974389046385,738.6488922594652,803.778807222772,412.36146040535607,-224.18032132711744,-602.5131324631997,-484.8933211910215,-214.8654500834053,-119.66478532522757,-96.47833688967728,-35.92880759735155,-16.864957138955816,-32.56474994654639,-18.51009476238376,-4.04692033035813,-10.412687653308314,-11.777813334290112,-11.3767609278256,-20.535587044899692,-32.163741266913924,-41.008031229751765,-39.60358056709545,-22.1775255034189,1.0151142594483211,17.089451886798564,28.517432094563205,45.01443008924005,59.17198856309684,58.48007165407542,57.50350271014282,66.1220337890366,64.44078184292297,54.32568160835035,50.840940378842994,30.277757107373464,-13.378436150787405,-38.667888681547055,-40.958426071076126,-47.697829544901026,-49.85335228225712,-38.903111355231616,-31.830089335829573,-26.18290335224936,-17.988673472269554,-22.45873747686531,-29.440191068903285,-18.54556672085454,-6.908663608162843,-10.308628038035891,-12.494202891196842,-8.014405721777024,-9.678553001665378,-16.260773826167743,-19.258637823545243,-19.357765061617776,-19.075116981013842,-18.80640977838671,-17.785566485886307,-14.313767183985014,-10.633179424014166,-10.443937555987983,-12.28229516608343,-14.046748437579897,-17.174131950443574,-17.717811003621485,-4.190102289582718,18.67981498249649,24.297014536062893,8.990673431980053,-1.4278107852822721,-7.8392396533739,-29.82218289498426,-61.66589020718958,-99.01802816181241,-136.2870553101089,-147.39546814689857,-155.98810216528835,-183.05256160667435,-101.18386114609116,206.09890123435085,614.0579501993304,853.8831088918082,672.2158720016444,48.92757276327367,-543.9233473492494,-598.4040390685001,-301.4691052475457,-134.8010473909943,-108.60781146991233,-47.100686318064476,-10.57007400191037,-30.7371720648569,-24.643309396368366,-8.171666151441492,-19.024733563261933,-24.201326305618565,-20.38881607983123,-25.644236789279905,-27.929237320985564,-24.30092187457627,-20.96227109512055,-14.013321583302847,-4.755327610570151,8.86482271346817,31.611157314230457,52.004192941583234,60.38771290305216,58.94669501408144,49.15285705945095,42.6100406664354,49.22208151535773,49.59959529091759,31.39453652556999,15.56111144106512,8.597836161327633,-6.954951463249948,-29.024049084267336,-42.860275951102224,-49.00191485352924,-50.61500609855414,-43.89293673721775,-32.53942124113837,-27.630058590221527,-28.098058330822475,-21.760099417813695,-11.853259337848932,-11.615317212301004,-11.890373886226714,0.6440530321653171,9.25175901141648,-2.33693170681331,-16.787277968003224,-13.714830837203545,-3.4751287484821027,-6.990572457166813,-15.176386247378101,-4.31227880238259,11.185986980945023,4.543557330063107,-5.867432183274712,-0.8628552659469548,-0.01746338798074376,-6.845404851587805,-6.775058376420528,-10.47263008730112,-19.97776498275793,-17.196505927798675,-10.127712019487474,-12.240866888767332,-16.53518123379877,-30.909690543708116,-65.48506842092766,-98.95881367641881,-112.09062099969003,-113.76898971581464,-128.92597298645376,-161.3472526815301,-129.2641927344085,79.60183253030513,438.0194199677811,746.5080537976391,736.7955817032216,275.4124971769777,-340.84589906932786,-576.7398484359528,-372.8498907795419,-157.2654144895902,-106.51983775639181,-70.43906097746428,-31.374791637741097,-37.66160248054082,-27.271868080212418,-0.07563034346074105,-7.338201379340667,-15.831518277180983,-8.681249977899583,-17.990219408050564,-27.074048129321888,-19.940247548326916,-21.429206409311778,-25.254291712862937,-13.252997939129367,-0.6881058462999574,10.623884603527454,31.489516324601695,45.26992349331116,45.6416060055983,49.17616298980501,48.20879706961822,33.725478689276606,26.864067550379254,29.465501722968575,20.107566973779875,5.645992772490886,-1.7642964055987669,-12.847498523054686,-23.46243473058656,-22.89842777944848,-27.206103906956095,-39.25447466417128,-37.50908828365513,-27.435501919995623,-23.535602127623235,-13.809011656349156,-0.8857084615303386,-3.1032135906177487,-6.91070308339614,3.311208421275049,11.064688584845179,5.127443180201862,-6.663491644250264,-11.757212921460296,-0.2502237601002868,6.65370964786857,-17.19324334194711,-37.62675427199044,-21.092694017419706,-5.738659127700629,-14.632940254454674,-17.577867332698137,-16.531407982791315,-30.80705831387018,-36.60522718857416,-19.107861587930035,-0.24096244796164967,11.687694945816942,18.97495996540684,12.688652564027397,-0.757243695317503,-5.417322231555824,-13.857624042037251,-45.848124496050445,-87.56585048501944,-111.54561014460879,-114.1910329458259,-122.2642382493915,-157.67335615107913,-158.628814556728,4.170421686280747,353.1443890528289,714.4923586573916,809.3867245597537,441.3020373017133,-204.07549949745513,-582.3404966519595,-459.44749009528533,-203.75323895704827,-119.31190622822776,-94.33293824452937,-41.38675939927886,-28.229962401205185,-34.84219614343703,-18.981990881384593,-10.435787301159166,-8.402601470383484,-2.561245112387965,-15.857618244785726,-32.36270562622429,-24.30827776204161,-14.950984066109505,-20.502082431643398,-19.784297047444788,-4.109915572769841,16.19730958772972,36.245682352665796,51.05630411342916,53.176329654201226,48.305675768451934,47.70121978257291,47.81497340492584,43.0038184847289,37.51843353401002,27.83177162478662,9.91068288540836,-5.835699121516776,-18.46938432830046,-32.91037607958455,-34.91623522214562,-21.633099617576,-13.835182740538055,-14.854503593771994,-14.650836669463501,-13.100857033392305,-10.446454395273769,-13.861617485924164,-30.493839513594313,-39.861140441242654,-27.602585037203607,-15.250961118269089,-14.967415272994753,-14.729680332612556,-12.265227317115404,-12.110658275730245,-12.294165317601443,-12.951621015709328,-13.640965461796906,-11.322717756810185,-9.322792343460641,-8.540629133199285,-1.863251306543269,3.849746171709029,-7.888110870096796,-24.868499103903456,-21.670699119105006,-7.642533462124344,-1.6857352002138875,4.467866065587481,11.37557423819797,4.202101875192195,-8.160676626052195,-14.353422395768947,-31.127850659300947,-68.08469458323403,-108.05973881247093,-131.0238546286865,-139.8588947005793,-163.51469404600653,-178.9314040867722,-63.94918307485881,250.01692493304682,643.2631361334192,862.546323234236,638.6219382601323,-12.720992476879474,-566.8267317358171,-567.7906609579888,-274.2637633439733,-134.29109828830707,-110.28696262358537,-45.96811117287817,-13.822497449660787,-28.318540631521458,-13.165087935522575,-0.5568635698283444,-19.013919289882146,-19.71103202065089,-5.967299389306245,-16.69894585355673,-36.021227230952505,-34.96321101142635,-22.343628148319794,-14.034875899110904,-2.6641116188576213,20.22983975512334,40.296156351158174,45.40379577758624,46.24113289867534,48.83838925448601,45.43574709487053,41.94401574830485,47.614692405208054,48.54517413642304,36.263756142660185,23.27121513197841,7.544331521105933,-13.035515345271188,-17.160753609081727,-11.928613791349495,-23.479602017994,-31.084148073121707,-22.871024556029873,-33.8963970793784,-52.91295038247141,-39.74405618057068,-19.95024052711466,-19.58264237123742,-14.137842073445334,-8.40718730903972,-21.858646570315933,-26.9675998389858,-10.747815644519001,-2.8906749978213035,-8.547972468166378,-8.246269459837713,-2.4519000143988414,-2.5950954574839677,-6.3297068696859515,0.6521909701029536,13.701727083387308,1.8698489756101715,-30.716359330977227,-36.79004266007816,-15.706386904193323,-12.241312297667854,-25.678433158156647,-23.46403820039826,-6.21462853803839,8.631076854647871,15.96128070467122,16.715889431356516,13.535253304894848,0.8816281577592822,-33.062378756461676,-77.91902248649606,-107.57121999059707,-115.58482981946395,-118.30807314030008,-140.12011100310087,-170.92003429009964,-116.62098144469707,118.73611428742132,488.19183399666366,787.1476610508382,732.4851119287199,208.34317830367058,-412.1010200054603,-584.4350368846356,-343.64802389597037,-147.86639147778092,-111.17755658974225,-67.3205720546024,-22.596220112906067,-24.220899948374274,-16.326643567462945,-2.979839410244704,-16.298489437324314,-26.761454949300102,-26.334104080672468,-28.568797252366533,-23.09237879110003,-17.360312943676988,-24.373845587360393,-25.734781285985584,-8.86371069277777,13.560484624015748,29.58121842212019,39.61210825840506,47.83997087443383,50.94871799528484,46.451144225354525,43.69384844562582,47.53740154035679,49.249014483655245,40.23645891320186,23.669012371041717,12.862998425056004,4.247351222452345,-23.986337755937676,-56.92559322749738,-56.84534878854147,-39.60646937025847,-38.37152994811562,-37.66687776912575,-25.059425084402797,-17.574438607308856,-14.424450795693609,-11.334186192461544,-18.938194568734172,-26.895398276399327,-20.60723744823612,-13.782421333330952,-13.887420530942485,-10.569681899673792,-6.278271164138506,-7.053062676175401,-6.833864026219903,-4.313397010197793,-5.21053116840169,-8.705778563080877,-10.036748145626671,-9.025691291861829,-9.932879183567781,-14.151119109938811,-16.35653746220996,-13.665461066321878,-10.17016270657371,-6.888339036749894,-3.829243011509302,-7.294215846592632,-11.150913667970807,1.910802962118069,17.013389530040293,5.757299853480683,-10.815078534080625,-9.693340702264146,-25.242826141339354,-68.18862401912719,-96.38635415963921,-106.27718958235303,-121.19281904154053,-137.25682649720414,-148.82180427798264,-106.26724432936554,95.93864273976266,454.2328319200311,765.8934875998111,736.8532220852488,243.46813283801006,-374.09434076620863,-579.2249555305813,-357.56827784534124,-145.8028255582239,-97.29940866248235,-66.63073546073493,-38.07850837733989,-43.60419685808784,-32.01714820670563,-13.40277117002223,-17.438214599982174,-9.953911184269725,2.475924746251522,-10.633020848586177,-18.503003099686985,-6.9700687364719975,-7.216294709460543,-11.8199412301534,2.0940125499540345,12.021784048032421,2.2564072819999783,0.4034510139649501,19.11716791298931,35.237979586834555,37.51599151704517,37.270425200471585,40.717049954060485,46.6846133173084,49.51775875205034,33.5761469159588,-2.0711951440386516,-27.067157852555543,-25.973202747261602,-24.288277743426246,-33.7947406838783,-31.516434858369138,-18.330974261671912,-22.548532512714527,-35.714146396972595,-28.054600358290564,-12.323793156803617,-10.954578180684422,-9.280954498251074,-4.228710809523609,-13.384233998593803,-18.696700406846706,-6.388348546969308,-9.555486031552082,-27.017978200426434,-18.12414911734663,1.9551489510588276,-0.8405605013347532,-6.046940400594538,1.4082128598348689,0.9544532582226459,-9.13970837220293,-14.02882937814983,-11.145598725311837,-4.955136623098957,-4.278090821599164,-10.958107877967635,-12.96871664606674,-8.497542013295506,-5.599002813455346,-2.849430210104263,0.35446232501000097,1.4473154863562279,4.487794446729126,6.657847276319054,-1.2840256289258765,-16.10482474216976,-32.32509472675379,-55.894555310111784,-89.89051113812621,-121.4345241358248,-130.71701905551498,-126.35646711249447,-146.1988225048496,-156.11120876675886,-20.076078790422883,320.12282374614534,716.9865073891915,884.1947651960605,564.5830837473746,-126.83333021459401,-608.0139322951243,-527.8296902928339,-240.1986898314373,-127.61955868135993,-95.25749002794151,-37.38396913314284,-34.30943500621382,-48.05369295488585,-8.583234383054727,15.551089584704982,-8.993829018790922,-31.323187924489538,-36.13051586605544,-32.08051513528854,-25.182695942503084,-27.559244940479037,-29.78277971893641,-19.684629743705685,-9.12511786111474,2.2997348609719754,25.52180826435082,45.64764275789458,48.974575940545364,50.69830422570848,59.178664892481,61.994039262757966,58.45062224524789,56.180168573752866,46.10634079302773,20.273398801423035,-9.456070908915603,-28.84917856666295,-34.731223395458514,-34.4004416948782,-38.103026381473676,-41.78470748551821,-33.102981283237824,-18.17529724678194,-14.833344240553075,-23.482735350747603,-28.43144955315666,-23.128012326120007,-15.89573268295284,-11.089577822605268,-4.69327358973554,1.5547995600055629,3.191824927384479,0.8252979977403037,-5.837422502500608,-13.79617404820711,-15.178378066964665,-11.662540618015777,-10.630178353785364,-12.04552371204645,-11.510008944076446,-5.622007139476043,0.45976688253688636,-2.7250833192844617,-7.853858973614702,-5.659802119142945,-7.8576581187392485,-17.041877658077457,-18.349185684008262,-15.440531306018457,-17.363238101008204,-11.973228038946203,5.009184323073727,15.00068424250964,9.228934343112918,4.236758651838907,7.913048035305765,-8.788837754591329,-61.25837903165555,-106.74129057815331,-115.46452008642974,-115.30206863393997,-130.61265488635215,-156.0490708829376,-140.4987124766559,23.776736753649885,365.11848020353136,720.2108715430246,815.3035291539962,451.07855522852833,-197.91022214960032,-582.710397287469,-464.3791530496028,-222.6698249760254,-148.1816371999309,-110.93581132384838,-50.504270035210226,-47.20106446065206,-50.70134060175531,-20.72378405565486,-14.683836272229797,-23.28990775530537,-15.186092235034824,-14.333328361830944,-19.224954625752382,-16.590244256323853,-19.908091298347205,-20.19992294518807,-6.932635689542204,1.8027326296362824,9.924267861640502,31.764967595606542,47.476988039496796,47.77802843759161,52.54256106255427,57.38531297670565,48.481630871024926,44.2760031265158,51.24663973766649,42.842533089531884,16.777565073283863,-4.026492494171199,-17.706435670198847,-29.461357328861787,-34.30985451443732,-36.79897381714788,-39.74327999172198,-34.782592011543464,-27.4399586906572,-24.199354173613838,-15.388369542066322,-8.234054269756303,-15.950715941219105,-18.409900285016413,-5.43267044863722,-3.562317208536836,-13.33928201376188,-7.919435335545003,3.91608384642894,0.07025563273730562,-6.197194038852281,-0.0016329620322252936,5.083352018680733,-1.32046283421505,-10.169893269646913,-14.036617117636483,-16.295841520130253,-19.56593904739917,-17.49259819120032,-6.747567120045575,0.6542951950179106,-1.8750282396672837,-2.5578780825538097,-0.683957192160328,-5.303318170433432,-5.40952872305866,0.7875387576056418,-8.998830169535303,-24.308399968482487,-15.996772785013594,-2.944661649897956,-9.722670894692135,-18.39199725286202,-24.57234877285855,-49.83555581458626,-88.74359070622505,-115.57367146196542,-121.46842457997815,-126.56186410433565,-148.32857275698763,-124.51003200841922,56.573534416719866,397.992297826629,728.9467339803573,765.7902011231856,329.0653995663995,-307.76419336388517,-583.571081870607,-394.3022799872077,-164.90246464550623,-108.69782801640741,-77.98100666350726,-27.867813518256924,-26.221543193716947,-36.06063759623115,-20.787436419474037,-14.98344460808272,-22.621742276163218,-21.29067061593326,-15.312452821719923,-15.809736385304692,-20.818702671414485,-23.986226859064896,-23.222978780287214,-15.774820836936044,2.709416436305755,22.1219727069031,29.633295318470083,35.173113595846544,47.750942058961385,55.37965364237702,55.08080125524857,58.40332114387063,60.274304155334264,48.44347644365173,34.19344762803463,27.968673830062862,12.052378765673396,-16.581683230382083,-30.16489539743763,-29.760132569801627,-40.12271810672517,-47.76988356697781,-34.397710651438196,-25.61326743710994,-35.40124997382267,-36.47291485223075,-20.00476005022092,-8.520166596956766,-7.502157218279848,-4.28326566861768,0.9528712717893306,2.4487047476456496,3.566130012576055,6.474987211812368,10.539070062910966,11.787029934821646,-5.389543632729573,-37.64564456618335,-46.28957885929647,-23.04819091301077,-10.175203714802489,-21.27616724124578,-28.242139739557395,-21.573935249884393,-11.10683491288437,-4.507280468967739,-8.459779678161699,-13.17630832548447,-6.781914900348102,-5.463144508069277,-13.480190764406789,-7.758831898985285,4.482019894298011,4.742239140451478,11.869486874346672,25.539219698240807,12.614613799245006,-17.6166164438713,-39.42060500204989,-66.78379812005025,-103.09678216652752,-125.53358677959534,-129.9131163134773,-130.7579288107378,-146.61018338250454,-141.67964794245404,12.047042358608223,366.6299776047267,742.8109643230124,834.8568968895726,445.7920801529627,-222.5046144518663,-607.460822939534,-475.5185835356196,-215.95670720789153,-125.64365517845604,-82.22762769931418,-32.25409442639548,-43.05361528497538,-43.10633944513111,-1.8638229669091544,2.48866073821565,-10.320496096508219,2.9716569296749356,1.3420875277007127,-21.494258076843874,-29.887701981122447,-25.120381057419607,-18.86307700129897,-15.491092372150298,-14.924816039560096,-1.4854330275304592,23.513691219197845,38.65556364504634,47.057578537878015,58.844092362205494,61.260042555671426,53.925378655286096,58.06415908323315,67.01488761282383,48.64094134905547,10.97101752460227,-4.799097940610169,-3.1111198106195666,-17.715052911538535,-37.566933289722776,-42.32566635768216,-46.58533108636982,-49.175032853794576,-34.676025019427335,-18.72424284668509,-12.297701147674161,-5.746178431737409,-4.118122571099391,-6.318141788768649,1.4490180383191387,9.111278441825768,5.297761443459489,-4.545005117531588,-23.26362764667084,-41.03838505425802,-34.907058182016044,-18.538925057304827,-14.880768224326872,-13.088802859557148,-8.716402028731185,-13.513097047252646,-19.87888778655492,-17.378515276496802,-11.581805615289621,-7.251256792335713,-6.423732151002408,-8.433590026556796,-6.222752342642611,-0.5506304484481745,0.8143615156136192,-2.5752812947765484,-5.9030270711281645,-2.771435595896584,3.9129514247724018,-1.8026253055401593,-15.427651114795314,-18.409366359832628,-27.194238596086862,-60.119540989610805,-93.84755410865819,-112.09301956435556,-120.18496587579968,-125.11335327067324,-147.52567565501755,-142.18757578122404,33.79858294723789,410.59600042518514,781.6087508040903,838.4363281497042,397.35725672142837,-293.6231104715954,-641.5629094956643,-464.5441430406752,-200.11448835406432,-121.58471743250438,-82.44856019726863,-28.570395372029594,-30.39048419759446,-36.32832316708976,-14.913920657739109,-15.078762064624676,-24.524779825174328,-17.19987258500591,-14.183983859790494,