ECG,-13.92376600417792,61.12129450762997,488.295958692526,917.5792439818839,570.6203361968666,-245.24754003535728,-391.7003040265203,11.804347456495478,44.44850315845755,-140.9226662663501,-64.51954696099602,5.300108634063605,-72.68557938900642,-57.606778170439455,-1.792395585561895,-27.456526226058912,-32.62865569232416,-3.4583107711704484,-6.3442973314006,-9.844332793558273,3.003295677369651,8.71142766611892,18.98863119591701,37.68939503995429,46.304619379510235,43.44934230421228,36.833859605239304,30.06158469010498,23.437771471345595,13.660544856488832,5.61557644730247,8.23076326460696,10.749601563308357,-3.775339949018397,-25.328826142519898,-34.971557451822676,-35.36605268802084,-33.29020171033096,-29.619000019823474,-31.688248688568248,-34.93022737766691,-23.610381820969963,-7.881748105569901,-4.787212966705269,-5.4009268925793705,-5.814351260345553,-11.027742366211086,-5.0679885492751815,14.140681859424088,16.838931653291844,1.4217245271045478,-4.138984001589153,0.9376208325547246,2.325660545106782,-1.7719183681836093,-14.19927544447376,-27.304422483642394,-26.166633337581075,-24.703140846874135,-28.679508252091203,-11.05987351099212,14.836486588918238,11.245982798922926,-6.453357067473114,-18.489464104989025,-29.36182182061905,-32.30668543304795,-39.32900976778176,-51.72773060925165,-43.71716340890279,-51.83599698615074,-103.62092530015266,-165.3823001911351,-178.48485629561145,96.21229209764695,662.8452989780507,726.8252212286416,-53.94519950510323,-567.401985586781,-207.01952268895099,86.80849069341708,-87.21604846908565,-106.99481193632592,30.802492991913148,-24.12158135631166,-68.9967953357501,-3.2313569460235314,-23.818075636036312,-68.84492239105141,-39.07428860017683,-21.319413636079283,-18.87161304651836,2.095224729424431,4.534895281058876,8.51503108112032,42.873135196934086,65.47748405189947,59.206743583305276,48.30263653204899,41.23202394827415,39.5879270835332,42.632845573409156,39.7586341326357,27.475180191150265,11.810239231212865,-5.270529730067053,-25.91831922330296,-44.97873490887914,-52.23865401973746,-50.88566470183474,-49.8671343565255,-43.10017750292509,-28.53593198561235,-20.12678381024505,-18.83442403430047,-13.234266159011208,-5.6539143235191105,-3.1551442101918106,-1.8608308250017842,5.651189320249251,18.624363832869584,24.494391234231585,15.569297977791631,2.5032621334363974,-3.6301331073442586,-3.611436376135533,-5.769912599685959,-17.63846268372749,-25.753162363310025,-19.1581344977497,-23.899584088423055,-37.500254948681295,-15.530851604441729,17.864646529398293,9.1332362124869,-13.05584451688615,-18.253238044604572,-24.103069443934753,-31.56057883189975,-41.34933811325944,-49.19662944845617,-44.85361116314682,-66.20756906027852,-122.0911874360904,-184.46535625900094,-176.14340178441307,170.124246906078,738.3675770412776,655.755218372429,-186.7062550531297,-557.0566482204194,-124.0246931317111,78.13737568959863,-123.46090931037659,-94.81909746203651,38.10883448677754,-23.958055470014656,-62.16277318758726,-33.021956129754884,-60.313969315344124,-49.82740591053262,-5.31617826248147,-21.02411160387513,-23.028870149224367,15.953527260030636,25.11821281731516,30.98192721127552,58.21161294444934,60.706889419052615,48.420020445323736,54.15400122156602,56.37815854121601,41.28395439328271,24.991150684248062,14.536232680411318,7.334517623330646,-3.6707631040694597,-21.23823014760817,-34.270888205393575,-41.10449365330565,-48.343988933079224,-49.25798474906182,-44.532807798919805,-40.55584516182057,-27.657073331102904,-13.121946371937547,-13.818810281779232,-9.831789297984727,5.771942590191328,3.886877165269018,-3.8826041066210895,9.54486139132043,18.14106596311528,7.513976666693344,4.016865171643978,4.7370319487138115,-6.553177854903453,-16.104353815395868,-16.520165341454696,-14.152012205439085,-11.064510966910813,-18.492874559902898,-30.46918228252128,-17.39962984768227,8.02269884042549,8.80502658968425,-9.243114724428008,-25.2381349078658,-26.923747140764398,-15.272267863522636,-21.970076720043373,-41.91278370729175,-38.41169770920361,-46.415018854847496,-109.72023728491567,-211.87608485652467,-218.27061964215284,152.70211285132987,708.5417269837011,590.9809640721722,-206.857065319506,-498.3916518638338,-68.42282367721671,91.11447249084627,-110.91964802406017,-73.44388347631178,40.596343246200796,-42.87602884576088,-76.05726040414065,-13.808887808368983,-20.21010500531029,-30.156229671104676,-2.1771261028149747,-4.541226956246681,-9.314876287599517,8.549432069999543,18.320890978338596,28.70859311661813,44.29128443092419,48.254049691940196,50.14781134129783,53.82242730266623,47.65732830629417,36.728729013032094,27.202643828783238,16.08789512269233,4.793175105435827,-7.927039874330752,-23.175430165702714,-31.401616952887956,-30.944158260111895,-31.851294074197845,-32.270776825028406,-26.428892453425988,-21.059392459431635,-17.571815145826914,-9.632104318037856,-1.5547284992015378,1.8575694374834608,5.126509363652817,9.015713644820316,11.860761037009148,14.706763385848877,14.082415142183768,9.069901151178808,4.9467513533218455,-3.261282974997407,-20.763382919478776,-29.042728666947617,-16.931501684028195,-13.415649888361436,-30.635388953300534,-27.264392903268522,5.612065760305827,19.41645659117637,7.523468204243827,-0.4056698078317549,-7.230075117138009,-11.753551788689338,-12.213386296885396,-26.90196080402099,-32.14151927837476,-24.366661487915394,-63.679212856542364,-154.42517736061978,-266.2136654651216,-247.75764839050794,191.72913622272415,726.7024319118982,490.88117181288504,-262.6715380826522,-383.74394982258235,17.482356207463347,41.740911405743454,-132.03238919320714,-36.229565597052506,35.5397969522553,-54.541749540241184,-56.603196483553866,-17.573355251068065,-40.93815179637692,-28.98816756354918,1.9984901456606892,-8.562428371040653,-5.0169188686609765,19.28512086395671,26.403239940805676,33.396254338077156,44.914333594400695,43.57486594013814,38.187182508766796,36.11485410931566,31.721486944502207,25.09077292894895,15.682451178742843,2.9468964996816345,-6.519843087692493,-10.84867983878465,-17.651275099714525,-28.342043102074054,-34.049396495277946,-32.69113011955271,-31.356703219414293,-29.456350132331863,-21.85699748147235,-13.023324228315243,-7.312427568524203,-1.4387601976585174,2.928306562777273,2.388822756839362,2.6127771017972155,5.2911071043495514,3.1174620191826463,-3.4496102184315927,-7.18463537106042,-8.417067268661256,-14.112598664552966,-25.99230229380553,-32.854563154084694,-29.194657739922256,-30.390722465076664,-31.605086153320944,-3.694433277304949,31.160934378217796,24.84138494334759,-2.707281214421428,-12.743277267880199,-13.880480850851328,-19.702463016888558,-32.780156338695726,-43.12984127624074,-36.432318095118156,-42.95758005806356,-94.61484400131096,-191.75530622663237,-256.2821589352398,-8.866662189682117,541.7664877849612,634.3016058983114,-28.75999369301455,-449.47257327433874,-127.13290320492544,98.36324333868485,-84.59595144054884,-105.01286365297204,24.275881774849008,-20.368756176969264,-60.6757438287212,1.482638998425088,0.02521298357239843,-20.958135001162745,10.6959650923863,19.518140883127302,8.24391718407599,9.430926878708746,1.3478692513250188,4.929180230983344,30.179287552087537,38.973688346852235,34.091933556675166,34.41958292438507,29.316435890828217,20.30110007240355,17.21219566233358,12.440283465155543,1.4805458561615135,-9.072088957424928,-15.398120019877155,-20.21673586972907,-26.083325668110675,-29.929565114082397,-31.331658718657867,-32.58953905084269,-27.617987636356844,-16.49533050396954,-12.076278405071438,-13.170968514671678,-8.754375563520965,-2.9210628570116555,-1.744226178687308,-0.629156719059516,3.2396797314985584,6.668762675103876,4.200831291053845,-5.057782936160528,-14.37738124147585,-19.629288272950106,-20.500635998690125,-20.448176461699052,-25.887118053192175,-21.587674423147366,9.92008941710776,37.61849060535488,26.223573661805318,-7.571674493690072,-29.54426743614441,-23.810429940745387,-14.068473682653757,-31.754497274260036,-40.994583263778075,-23.956444167418887,-40.73816983600684,-99.3400577828273,-178.41753801295113,-179.18990336109283,159.3990811278373,613.9596694313277,405.43383071954577,-302.67564983315344,-427.98222305518345,-5.767797890790792,66.4982551414439,-113.42889137421821,-48.33246316424255,29.369474741287867,-44.34767298389289,-37.23950255168054,14.399197343455345,-9.978527059396946,-10.868250452617172,18.038801796139182,9.030476855527109,11.657455142399114,37.35304892298037,31.398319512668692,10.064443049370643,11.319334376397858,22.63274837186298,23.38074505462618,15.665908459476352,12.400594248521116,15.631814914851361,13.134472662315927,3.8081611779196076,-0.45592577232864606,-2.5012313771980157,-13.143911067515841,-24.556774496724984,-26.351478984525844,-27.561711213973886,-33.39524131872237,-32.401805848193085,-23.23063938716615,-17.551647123890547,-15.911117475136933,-11.366490803946744,-6.1184364854515785,-4.765078763064039,-4.241516142195028,-1.3758138467787742,0.2886822855495197,-2.067548876761787,-6.9357760992911786,-15.247603968579092,-24.813235638276186,-24.447058514755376,-15.713560544438947,-13.886567815063458,-8.812277463877557,16.8294182425711,35.20210829735504,20.433788682122195,-3.3144687200737444,-19.415637427766526,-29.585569571118697,-26.63895863301103,-27.310573569296658,-36.08896579667397,-26.77672464307485,-29.967010089909692,-79.79051948453443,-155.85337173196748,-195.09218694064606,28.524177393736466,519.439372239833,583.2078994066267,-72.96748658743269,-484.68327428810085,-144.72607307540554,108.55823228044021,-64.99369452791571,-92.60812644372292,33.78165261900674,-15.405838713618259,-64.00036374123671,-0.20384937969848593,3.426225674556207,-20.63689403311511,5.204025193423581,7.349649740242645,-5.839097239223616,13.369887777626985,28.443375287859425,30.22472492312042,39.44353604588742,44.95094385671613,45.0670521826184,45.20366864189242,39.33343478877541,33.053384139175314,26.08327398621319,9.433939694327105,-6.1652133767169115,-17.647272937176062,-35.739852415638865,-44.167333514574835,-34.460521891169066,-34.90394157332983,-44.249543473543646,-35.20878451327419,-22.355388901670814,-22.549115229565796,-15.316766833458214,-0.40470564072453286,3.2065465587303734,3.493773392643824,4.752418877418156,-3.5893687080604835,-8.461987237834254,0.9243420101874147,3.4418799190340845,-10.171968334520493,-19.525685634477444,-15.288918376155358,-15.18548961360877,-25.92723022184904,-16.549307048454864,21.770087905327795,36.85354904422257,10.282460355271544,-13.19320624603562,-21.611491218893335,-24.941522442230433,-19.250610788878028,-25.742279541815606,-41.35048816960814,-41.73334742342064,-59.59712604513522,-109.05615048848306,-170.1044887937569,-152.06462700732104,186.97318526181738,651.5882532710289,454.3855243713016,-307.92023356593245,-493.7033371153004,-36.86503037645746,84.30131295758733,-114.17803980230903,-60.15518663487095,38.361709127548224,-40.51576300999842,-48.83076865296455,7.314864453827997,-17.917653541296147,-30.72593428850076,-2.666115934311244,-2.7366276387359534,-2.7998445528005296,9.36561073650673,14.94691288191197,34.43557249226414,55.31924351139961,54.454699219548395,52.60605136532178,53.865513455855194,44.664329756026504,34.333549008798826,29.605418544142353,25.69875069332675,17.30673387047041,-5.50766088121706,-35.74424336070996,-48.35968396015863,-43.26361711669839,-41.77243387611213,-46.77010054970664,-46.258133191571126,-36.539013733127206,-25.43384889582329,-20.56974962770925,-15.13100231101549,-1.8981406592274155,6.775237919371765,4.038872626314269,1.6462956969439677,1.28756842734985,-0.14215889583018537,2.394830052267624,-0.28193152911042674,-14.022753553365426,-20.204887280681042,-16.654786942558918,-12.33215086595889,5.391622313876782,25.679374821972576,17.137745498348487,-7.20136109050658,-19.212673038581425,-19.24480953036622,-22.191398519364704,-39.309867010657,-43.94366426762876,-24.39418219830678,-40.23993200927083,-100.92826361548063,-167.9631277762122,-172.2377918517342,125.20742474422438,616.796350745265,521.516325663155,-222.74235503027757,-499.8306742058546,-79.84821996329694,75.46295261092874,-121.00392059016355,-70.9155821529934,50.0490165253233,-33.38426056581807,-57.30015531238167,11.729681835176782,-6.690791119040394,-25.048127510779263,6.931669712121547,-0.24893223732943603,-10.479197955763587,17.78309286300271,32.42210942268057,30.096887722896113,39.163647288884405,50.39289752600957,51.91252811980031,41.32263279878329,27.26209679873672,26.127386740853794,28.41841898273042,17.61925072718813,5.859902977984927,2.084502513797561,-5.585018847458764,-19.023498082582822,-29.75811422380001,-35.857465913153476,-35.7085114391048,-27.167541359503815,-13.262191502038743,-1.5919072784458272,-2.9825962270758524,-16.812987259115282,-24.964764401543142,-18.884064671601458,-9.195245365195639,-3.5562744889530364,-1.5546004393515709,-3.1870661942269862,-8.200391089964459,-13.120858382718154,-14.167206876210017,-16.062395766827724,-17.8395782427309,1.0159029356668796,32.01063372865538,31.406187829354945,4.0140773428724685,-13.63147220212535,-24.170575238740376,-29.85583066722208,-28.215023906367797,-32.85286642069572,-27.617306421589817,-21.71269920805978,-58.21621238526433,-120.53046192034131,-190.67800300019212,-127.76668958024096,304.06123329942903,680.3567950324237,257.43897339524983,-440.64570283430885,-363.05916284625744,65.48033691015715,15.797203548542866,-130.7764554773192,-7.818524509769855,20.696301567513792,-63.925475280930826,-23.782364892891472,10.102286104711862,-26.008892570209156,-7.001230341566847,19.380834314213615,1.146450967213302,5.485653867928752,27.209043759810136,33.21640193390101,42.7753222730585,50.599246221682435,42.22043895570098,32.55640020300646,26.768473731726665,19.709478890578534,16.284628417025814,15.432618161861104,8.071256984391775,-3.5712943020081314,-10.314101195778079,-14.656419518241375,-24.24677255223815,-34.499041908101,-34.82124217990532,-24.930308566787886,-14.647524951591146,-8.988813610524977,-2.9514114677066594,3.9703588778843875,7.150226001023529,10.363543865093018,11.913598543036917,-1.1178390623468637,-21.87982999781629,-29.44444441481435,-24.90644913535578,-20.151783462392977,-19.044947107251904,-21.742593904435687,-12.470972266148468,19.708803713641565,40.4286418930525,21.898399708764344,-9.775089941479653,-28.454239226432716,-29.04552325112936,-20.42092363287135,-30.24143867937613,-41.79708646890336,-26.327913614379327,-35.844933802964135,-88.92196590078248,-149.83133082516386,-174.44852840330918,62.87032729718442,543.5392190436125,536.8632098525892,-158.5229975493192,-497.56422428246947,-102.23096649190842,107.42171077866726,-88.09695525190374,-84.50908570569723,41.78445237142545,-16.57952674728452,-49.568318769717294,7.532543021719235,-9.130156948057667,-26.410048962277703,9.602976409555868,9.583365322310499,-0.9841105911496166,19.142854399769167,27.684365696847756,28.874112241116997,41.61773515571386,43.35563505525296,34.81362072426142,29.705648856280128,22.61534224591611,16.694958500735076,16.72474286159386,13.70508857734294,5.304908709091007,-4.221437805969562,-15.430480237853573,-25.366336486974053,-29.328671565895604,-28.721399305594304,-26.444763638695843,-26.186834138578675,-27.282309521204922,-20.486805707144658,-7.784640713465166,-0.5088434182098247,4.21832377315439,5.143239788852723,-7.207021419116748,-17.423021828717772,-12.075294781305386,-5.929985272598103,-1.6798923495720306,4.199628612000007,5.781950651291147,20.547274415126896,48.49842572808406,46.27582450153473,10.508399314879709,-25.411727193463726,-47.2960582312851,-47.16802162560408,-45.437291508119024,-58.91873224808134,-51.70618454667512,-43.84977852256393,-83.38405482667012,-139.62052608877477,-170.6007217790788,-2.9119867057083724,463.8468787752791,623.2500174540633,2.8099011064262953,-522.5529535520375,-225.57063552150845,107.5722821421102,-46.29564410630965,-104.77181164383482,39.639154610122155,3.9394799924121955,-60.06368306700704,5.031217688058774,5.297778536379152,-37.13556612759975,-8.33214838695993,7.765847793363584,-5.1605590514861825,11.291881638478932,26.879298603639104,27.32417092976746,34.5857488734903,39.19024112574543,39.34924033368296,37.94446796240216,27.959837113065362,23.23598459789585,26.459323010145855,16.113961279660515,-2.422558630092757,-13.678436944281748,-24.897621716058104,-33.88758508716941,-31.73048214086287,-29.372410158652308,-32.16287198042426,-33.05704995582245,-32.86812760573757,-28.066318095322195,-14.066000371244911,-2.643269438634075,-1.5754862772402909,-4.924516074149768,-7.672763171833775,-8.386983359154186,-11.863850182289163,-18.45098508415216,-14.642914474912036,1.302206715299592,19.46665759776564,35.75536238706021,38.57150104420549,24.462175973588447,4.778410727139359,-24.29052784251181,-54.235057529608554,-65.37776548911094,-67.02043599929094,-56.85011009123531,-44.3244448055021,-71.7683441578916,-119.09523415685524,-161.36102271115675,-107.85109747515594,281.44910323046315,712.0303082853256,375.1739534268347,-427.328708131059,-500.90476898477266,-3.15372833403781,59.40873252796362,-129.8935158292979,-36.676958280921625,38.11791709194125,-53.13490901182686,-34.866974320189044,24.364419677846794,-11.287480336713909,-20.81804752528423,5.961798393433426,-1.3853296737923975,-2.981757291002715,12.502158385480271,21.12839575453597,33.093369390200486,39.53772324771724,35.22057841086449,37.36671965588576,39.03483473294319,32.90592397650084,29.12128863908213,25.996162768484695,17.93813912589257,5.314498255309848,-10.425407535991443,-23.74661762139973,-35.09653418380979,-44.8970973352334,-41.57131590755755,-28.68326157553923,-24.15622298383366,-24.483166680130832,-18.870099106522993,-10.679658258662421,-3.1984533978988683,-1.088125511571313,-8.214852863388199,-14.55355948172082,-15.386904882695957,-16.10657701266984,-12.892003446205232,-2.927960005944815,11.082643364687222,27.38847711705231,36.20788719808573,31.255172624748276,12.08728553244262,-19.95048002326331,-39.92751165203601,-42.053761166970176,-53.30923829047772,-52.684557680208115,-37.20263796301549,-65.65358978556003,-124.4865348646428,-175.954375846919,-114.3837139869618,292.3854668439026,719.1682812818374,373.0394140137378,-398.675455436219,-443.67614363987644,18.86021381433403,40.60103575719687,-132.60770513219157,-16.092930412885398,45.64424751668998,-67.9772303738933,-61.39840228721272,-6.4266510957355685,-36.570780948303494,-31.913806220226476,6.07388862571649,0.7239176489984551,1.6859439685497009,23.397397238422617,28.382991455463436,34.569252421112054,51.433319778521536,53.325211516320664,38.764865793434346,26.175840808199446,21.658491284718707,18.216004201473904,13.080335843164061,9.1092174490126,0.3401076453379632,-14.741166399739914,-22.914994316160602,-23.972795328504915,-30.001952549383414,-36.6001847049705,-34.715773314791015,-28.84182655501705,-22.52283717643804,-13.036361027175381,-3.10254543592173,-0.6376861753167091,-6.273268590673517,-11.06496950117345,-13.539469567113274,-18.009328371081097,-16.00373220520162,-7.6075157395818565,-6.942417531361793,0.628047511228254,28.907870509139336,43.6338953596881,24.851944719226577,-1.629557982085565,-16.11882879337304,-22.437809685734607,-40.729844202580566,-62.768772933041404,-50.57507127674649,-43.048863289001375,-87.69660935260768,-144.37399978795136,-187.1944207422237,-47.102434539238615,444.8205306239106,703.1700573141911,109.30691922959728,-525.2216231072002,-292.61935449642874,95.67635124185924,-35.2582403428255,-129.2147407645258,23.49870158703614,13.016661173887108,-61.26072259471323,-0.8122082673340145,11.671605806158304,-26.957045520544554,3.942078165694099,22.796975812931844,4.058699785452604,7.040696661564953,6.7401014954345015,5.529569047389831,29.349700078377175,42.657179871065054,38.746004122427266,38.939118759408785,30.10307369787317,18.097589177866663,20.195369078131993,16.332634102077776,-0.08230548730685872,-8.985322963296444,-13.77292127635185,-24.02675603546751,-30.850312485553978,-32.42067135185011,-33.632530263424115,-30.853684815376162,-24.471401362572863,-19.248787539865553,-12.51599585917335,-4.354248345735183,-2.5548555129499775,-6.6483020070974135,-9.473426932660164,-12.61843911591368,-16.906064019519064,-15.129303057337768,-9.283258249247595,-3.693842784966481,10.319325053621515,31.64498433264058,37.545633942149415,12.14047456735065,-21.26824992388884,-23.449173213107045,-16.648131730896562,-39.94507458405504,-49.256356457420736,-35.531765766306066,-66.89961883764795,-126.62333797716454,-179.05228320963977,-127.18169392447693,268.6513426958481,694.9849377593441,357.27275948267874,-404.99128272935906,-445.00586966294276,19.591810049109014,42.19312297392584,-138.91040161497006,-33.38450388882643,39.1861036150688,-46.45202769240303,-29.144057361089484,18.267331110253405,-16.069610120653973,-18.61361174178833,4.984493747792683,-2.645914600344156,4.787802110688313,23.50510145113379,23.788646271426185,29.87962167306053,41.467420741020646,41.8171587163917,40.800937218198456,38.80278840236722,30.116125417832592,24.63551777203569,26.974900768846332,29.270545895539662,25.543812423267703,13.75694265437236,-9.544282615909475,-40.19511143600157,-57.51450695167045,-51.291738849516605,-40.82660759984188,-38.766986572086815,-33.6753465898084,-22.084011495516997,-12.049503575965463,-4.0616915522247155,0.3577503607209671,-4.367453778385077,-14.878813572609864,-22.14932306003814,-20.674868241766312,-13.157464692308789,-7.952170468744271,-3.317909078922874,10.927047551917463,28.35931318512398,23.651328963714864,-7.03276419387309,-25.224242620815815,-19.641822100818775,-30.670590401280435,-44.64705621090252,-28.552060958946992,-37.203322552576935,-88.0914882272738,-145.152290390337,-171.71226337726762,62.56878392040653,549.3704632359402,538.8288123732278,-186.27638350966777,-543.1551387087349,-126.61980023571668,104.04848846645967,-94.15774008517008,-88.86493081569402,45.12657904396298,-19.72830685628952,-57.42107928095048,10.039990819199968,-0.6894325227018498,-21.68209703074053,14.024085500174973,15.491057161722413,3.247208091365451,22.262918494194587,29.14065657500419,26.16906145718825,37.3724568046758,40.87710147333844,32.541890012016566,27.177987426193106,22.991282697805026,21.104732558118023,22.456625103668458,17.71754771499551,8.021716134163151,1.1292162517830293,-5.0010564753432245,-12.048122774324872,-18.55742707803578,-25.538173717580573,-28.05270578579693,-21.88276313992572,-13.57046175312372,-6.458342843211314,-3.3333704039830856,-13.621602414348356,-28.320955601604346,-28.088926509526818,-22.027344512154947,-24.69712399837239,-25.48617454262607,-20.510152156772524,-19.43498610209324,-14.250010032974682,6.528387080655948,30.328709963817943,30.159625454187683,-0.7389021765812878,-25.640470454812675,-24.01571959563056,-30.900706062846105,-43.20852210420761,-32.45931158782879,-41.11840872900987,-86.73517098495245,-140.64606583073385,-144.26854394325795,130.4517576687232,608.7032968959417,537.4980313338731,-207.4891030775364,-536.1557551068054,-122.27502938681427,86.07679957587767,-105.06112009736515,-92.95925668739469,31.29587932252217,-27.00964183014532,-50.33952739251124,15.192047670587105,-0.7419075958081187,-23.603584879351942,8.13970698526437,11.81453706570359,5.589848220194041,23.154930594190226,27.94766071673989,27.427365884292318,36.81172203862233,35.38565102981783,26.708360690167154,22.065842941446434,15.913684475690413,13.591018071878493,18.938870636804594,21.571683631567424,17.437837046625567,7.773096603534093,-6.488073206601156,-18.700874058625885,-25.520346541129204,-29.024678439592364,-27.351297621600512,-21.98361259117664,-18.376675007015375,-14.183230583262606,-7.184283309860405,-2.6509091437925747,-3.094794351969112,-6.605657692994342,-11.158803666955386,-13.749520817464926,-12.086721783633855,-6.350622508776436,-2.3359868568533173,-8.791242982859323,-15.951231961445503,-2.5391264918281333,12.969067475489108,-5.662902927004433,-31.485968385823817,-30.385733550163874,-37.48055247808202,-53.903671916678746,-41.34044552641652,-42.62193260557563,-89.95515569698915,-148.9601760457283,-148.88605915668444,126.00587789911475,602.7885329151957,548.9358507828164,-182.09580731878148,-528.0617002313188,-129.90144296314384,89.46051668228583,-92.99317432630805,-88.29478738317076,28.3750415838946,-34.38218963346614,-60.208779001565475,7.397352407728736,-5.7914314871253865,-26.54438555818342,6.5340357147178,6.1543187263238375,-5.39520700804025,13.958270247838154,24.260748985808373,26.109005526991695,36.03963066426263,36.66938623114577,29.985376611109377,24.84490403916359,16.459415129142496,11.923049512634918,17.614747805110994,22.674298978283744,17.195137726063685,6.3729679406197395,-0.5426993399007092,-10.975507042974142,-31.629724133206594,-41.8791317129414,-32.38912323914024,-26.725260323606122,-27.762959471378462,-17.154223213715838,-4.818680416030531,-4.348683835623575,-4.231676553146379,-4.0370905948522235,-14.890575071638985,-24.97066636396373,-20.23259778577941,-13.371535265435579,-17.544324033779805,-20.638309998350884,-3.8354426548895084,25.133898994248504,29.857760604147554,1.6137021221732457,-16.446268157852458,-14.95634662540228,-27.926597816258642,-39.48669298043606,-43.050072701959316,-80.93905304407292,-134.25739251541063,-178.72651230370516,-127.71801192995927,256.17469762428,703.5410498667674,419.7846415479888,-361.86663151698076,-488.8270876942494,-33.24711162392217,44.174285844192624,-136.5693009546635,-50.258333081932186,35.296462169771594,-51.28489584412482,-40.7749027247888,22.080339365059565,-12.559295007396113,-27.24113664502218,6.427880037317809,3.5561529327465085,-4.356747864870391,8.287232701231833,12.869174715967295,21.99654312598216,38.70512789509649,39.34637309652441,32.071101173042095,29.03712623220718,20.63107125579718,10.665472654358515,14.035624686962718,23.273800497580318,18.73150107815905,1.2631429705948998,-13.828021842283649,-22.938186541356984,-30.053712984492797,-33.561074294334354,-32.457689295242304,-27.909151953164404,-21.047565194325387,-17.06228975234107,-14.307151597498065,-4.414086159240092,3.1212374031883776,-4.395839202853374,-14.476104156528713,-17.118574606611364,-20.017327215310615,-21.36336129910984,-18.745113680335656,-20.623364379426235,-14.965719840030552,13.432167848043797,29.662368158208867,0.7808406594745065,-34.021215647251424,-43.4028335557524,-48.897526282459765,-42.74808936848627,-32.14938237067545,-67.76066222252938,-124.95509912385793,-172.97830099286867,-128.91107994470747,264.85027329009273,752.5374872610906,476.45039578978,-362.2972398118467,-520.5359001427504,-30.944784951803527,65.7595230146859,-132.0928657341839,-55.57529042649763,23.452621614238083,-72.79652530907553,-59.799498051306664,7.61304797320701,-24.1717259737679,-31.7933025550357,-0.9410831984966785,-10.027559757020308,-9.730105199159993,8.235174861478534,7.20100992358194,18.0662268768766,38.76599836659665,33.567810176374905,22.532274041662596,27.240123624116904,31.660804200880044,25.548886846355504,14.794495940530169,9.514063011680559,11.587109367243901,9.243310121115279,-1.3054304298732564,-14.334180763735418,-31.12992607703338,-44.120586232432714,-38.42616367959573,-25.351559876757097,-24.876090586662624,-27.788426032382446,-19.879192334674684,-9.33720457564663,-2.458430041838348,5.133839577366736,4.837428614041702,-10.84646257110256,-21.563322355704265,-14.811150012299013,-12.857587706763994,-23.673944430675007,-21.79215382258348,2.4584144202070988,21.640467880809364,7.375852621212417,-20.244414582154,-24.58507029939065,-29.22015696531001,-49.76876161438672,-47.524119517376775,-49.05819168086008,-96.3493963471604,-159.41068107229464,-190.25176961545458,26.426909072703666,565.8690954415221,710.4305841291145,-2.8130988825799363,-563.0656442818157,-234.23493140359815,98.32050220997272,-81.5318569559115,-135.24099800414308,23.163912499969904,-11.412631108880376,-70.34980635077999,1.511698758083707,5.233645508807953,-28.194650126686764,8.279238471683326,23.295589362724346,7.372252298417562,21.241884961321073,35.120000830138615,36.284337076969834,43.695921313016385,45.442043451104325,33.28481014646198,11.173941370930663,-6.096642066745932,-2.019278959832409,4.777610634969671,-1.5207675592259657,-3.3079574152758537,-0.9465587342243378,-8.214446435043492,-16.506645949622914,-21.13653569499219,-26.3954340819173,-26.78740332608352,-22.95472067389303,-18.775530896143927,-9.916916403776458,-3.115105645631573,-5.295529561374762,-3.666584444606226,3.4422793741066258,1.1069623217311673,-7.010623820093661,-10.236760033243804,-13.141055460565244,-17.184008904979912,-19.98674095372571,-25.573676323274086,-22.843431479990546,4.711681528289734,28.900557697267207,10.49380891030851,-18.35921892265469,-18.078959033495366,-24.918980064886497,-43.40083572116259,-32.572463686199605,-38.16830642634932,-99.59289027505477,-181.13602240541277,-219.54439253760646,26.435007907736292,574.29730307195,663.1299525453526,-48.312118219843555,-512.7717071185033,-162.01864538304847,104.52992031023051,-82.68563669904232,-112.458727453091,22.15221551673674,-22.490476453425067,-61.082022033884705,6.3766200251243195,1.4646658356553672,-22.61431948022645,10.453421558580938,15.519817747816145,5.515115961303218,23.03449492631614,27.528366962139195,24.451449249231562,36.47477764349913,39.99474168009301,32.357043585910176,23.060851022321238,7.927130360043588,-0.8931963408960581,2.377801542694726,6.0431008567742746,11.034048111710769,10.765043309850203,-10.454779384967194,-33.85223530139292,-35.27367732142588,-30.25133283181247,-32.584954003633705,-29.19534176167417,-17.233974342678454,-6.953142055417953,-0.22506736898659518,2.5930367462701938,0.9141117469182092,-0.1770043315492842,0.08219382196048919,-3.670810027588079,-12.258088481143268,-19.712949345513273,-20.336838539316282,-17.816311899922702,-21.414884551862006,-27.578645357712908,-16.221633995982554,14.947232651598963,25.633700858414617,-1.5525956323191048,-18.357212485209292,-15.364421325099077,-31.38964229271393,-38.45100152659854,-27.16596060206601,-60.58549357376915,-134.73838806547215,-214.6924266663749,-163.60115712521667,270.0559844628578,721.7056698678384,384.841628786218,-363.8158498269914,-399.9643652450934,29.530923334853625,30.443888237664616,-136.4165178617322,-32.03207632903487,22.935450148569956,-58.09378803083127,-28.034746059848544,18.821284037728834,-14.557141696942654,-9.76349254385661,16.766528829085154,7.706250732344652,12.366575672217015,26.211596723815603,20.74294455492148,22.331341461916285,31.300978344173696,29.386182733936245,24.571975749289685,16.406906274306657,-1.0224286523914088,-13.0561968031855,-8.33808227419899,2.0446056211029635,4.612523150737166,1.5623334641064477,-0.03784422466303994,-1.4864833805668205,-5.525798158591831,-8.52199645288941,-6.095710786343261,-4.027519000472495,-12.919361493964413,-24.288237214901763,-20.018643646826284,-9.671059078304417,-11.913069609117187,-16.557615120076026,-12.89178674606935,-11.736689640974312,-14.215108333988866,-13.580519678914737,-16.64556426113087,-23.051992522344882,-23.505310493116884,-24.61909185253299,-29.48981776262087,-19.256324494331558,9.554777748952176,23.100756031457347,2.7788094045280953,-14.97855314198493,-11.313787727588902,-21.26252654102653,-36.14077037337016,-28.06727261617524,-43.74541371542374,-108.63038145246648,-200.61467970293242,-225.28833374105488,95.44642418601913,649.0308709264876,603.8120124084562,-152.8214347510526,-487.068340817671,-89.9341549920423,88.0557325001553,-111.44747985313367,-92.61500456516127,28.987849195699155,-32.11087722161856,-53.30896574270022,11.562851904359446,-3.197331337916303,-21.359927109363507,12.541296775556699,15.699272147059023,7.37065008484571,22.540134278199076,26.498355414382438,23.88511538941135,30.58935376750149,29.756918055157552,20.757115778098427,11.328898366000008,-1.2432216763269557,-11.858572948389755,-13.83811060480722,-7.641469492966021,3.0116515979463903,8.312463681491877,3.065907395180706,-4.234560222392965,-8.681682981165057,-13.25677700617478,-14.292467860278428,-9.204255627197458,-4.821932525965195,-2.736372340756951,0.39862215465147877,2.599986474028679,2.5575163780436867,-3.2305394561410026,-19.39984030918108,-32.05404759874273,-26.22961937813442,-15.741419769634362,-16.30986741414979,-22.112930642244812,-25.36535205285955,-23.515814361438636,-19.28085457249511,-21.990107530262982,-26.555887839290556,-13.73781593122668,13.054242844654247,22.13127728736685,3.553866321030572,-9.949225117774818,-11.239295581132588,-27.552266269572836,-36.73952146526835,-25.037612301468414,-47.61603707560106,-117.0347691710977,-213.1697606789786,-221.75223189646772,150.22920016967356,695.0553334068521,549.2843176998324,-227.69725310239102,-465.71783326222186,-49.116444114925706,65.82508374932941,-126.41411336198556,-71.24904397124655,32.31931206788825,-39.25004712404922,-45.41627107169725,14.740673972927375,-3.5272851112422394,-10.541926028083378,20.099496173221496,11.821059202899995,1.1521563994960509,16.68491962763279,23.102914747300044,25.010718263584483,30.86200482090567,27.38854371877486,19.573379014140542,10.758663803748961,-3.3600303737474233,-12.157457588739911,-7.535150459094892,2.570956216594864,9.731468441823917,12.179593376345325,10.832024536247793,5.857084507408307,-4.456602483106298,-18.071668839225445,-26.596185847376407,-27.153765810631636,-26.08251145938428,-24.22580588664956,-18.603018675609235,-14.613951699312882,-13.852063776114097,-9.412728399186543,-3.976775950557929,-2.8433042447309305,0.6507400133839045,7.6429899920426205,8.446972418306679,3.2721569309984417,-0.1096014959022309,-1.2702732805268084,-5.7616273826498805,-21.559144661013814,-45.54930994813863,-52.927585268632356,-30.59033506367137,-0.32567316871524454,11.600808780395798,-0.9156841337279111,-17.70755616560036,-17.52724021300203,-20.412464312264266,-34.43315851280333,-29.426407589975685,-32.30172081624629,-86.33124850091033,-178.9814436519533,-245.93343826998768,-31.06138594405354,542.0340330621354,740.3495648862686,74.05028798311693,-500.98258061291176,-227.9616485281504,95.22369923179659,-63.818770883123264,-130.40638737148709,14.484519789819956,-8.001059018814992,-67.63669066518104,-3.586029187977303,8.777253111690225,-22.522893735733106,3.336281964905856,16.29094865739259,5.2416946887728315,18.950712633797682,25.759413888064522,19.804275935936555,27.889605723011293,30.29447376532947,16.185312067293093,4.6815805508650135,-0.07334707768520532,-2.4028794210956903,0.6954883217338277,10.466976883996535,18.362828006878242,15.177855797187792,7.575636009810487,1.869298649217205,-12.24281555984599,-31.55959630173003,-36.642342577034384,-30.92894731237386,-28.22522298808653,-23.047688804678344,-14.307672267569957,-12.237743991687367,-12.046995311737733,-6.899073302752845,-4.45890737035471,-5.905995337011596,-4.391161303858151,-1.0628363750235827,1.00597854916313,1.1937350687127015,-1.3455498003752648,-5.769429357326656,-11.558611273345498,-14.471763973581364,-11.356315061608225,-13.246513789349404,-20.982551166813366,-13.298508112487664,13.02350344039785,33.57882837816799,24.968900695823635,-8.14584746452889,-31.424437464831566,-37.9005454294592,-45.606286300404534,-40.86834061958652,-39.11338970061412,-83.13824757532511,-163.27598850735941,-246.0125593266369,-128.3443416694867,401.19255964270843,786.433417755446,286.0498594925501,-441.1482694078019,-346.7241797464287,59.80768517349314,-15.72006523799822,-148.6065754441826,-15.70568788631089,8.367907571562597,-68.4323323270611,-17.974214161654718,19.181210818700713,-14.194290327842728,2.060823902088364,24.953486846441987,13.749064968439335,21.439066366955853,27.786038776968756,12.666179686437903,11.997233503033941,20.19347057568996,15.738834172650478,8.154138070686898,0.8959067814390398,-6.59499672748079,-4.064850880561487,7.428607794441039,15.036358062591798,14.281605034087658,9.291595172571833,1.1688104997261881,-11.600141166641631,-23.74841675176168,-27.727205087646425,-26.299596855155762,-25.648752316256974,-23.69952534441609,-19.040780935237613,-15.874954247013529,-13.411825683359126,-9.81736667364797,-9.277466327043264,-9.80568680837835,-5.657202037048533,-0.9105209933315166,2.545303741114658,6.831010720804139,3.976117185418939,-6.052203806768787,-9.559813485439275,-7.6153771010825615,-9.842627755026697,-16.66909796609902,-25.714814593425636,-23.60285027347885,3.011677930371479,33.229481878746924,35.92432637919465,14.880984335409524,-8.747649856470666,-35.15351418287635,-61.25452106218511,-54.81928793971506,-34.31597013681235,-65.5819323978275,-135.64216890012165,-216.58232503640164,-220.6685761626219,146.4807145626448,720.4798853769432,609.4353491766037,-210.83372924040833,-518.2930015448399,-84.10686567133058,81.60966630070622,-117.94600878393697,-80.13891169503408,32.90503949118564,-38.52374681465204,-46.609003305088216,20.1841913904776,-7.297492594783108,-24.030363434977165,12.934227965370699,1.298821606487948,-19.38474021346268,0.11239057721837487,11.23326494387545,14.97887773917394,29.37008979081645,24.735264460936655,5.042055293321495,2.55866654093201,9.484372379404078,8.05327042870713,8.640752656827036,18.44724900514858,25.394808817039387,22.502261874958783,10.529407665308085,-10.527443770958511,-30.50911352255421,-37.46997231662658,-35.8959850551894,-31.08813873880075,-21.321199370572153,-15.074723058045077,-20.24012598809096,-24.205734924167867,-14.143828582894582,-0.387224502538178,1.8056037209381017,-3.151739283234132,-4.254386109206568,-2.537597140361189,0.7030808433503335,6.947556513377899,6.03512463595877,-7.1679246010039215,-16.607719363083646,-15.557538637483958,-17.25551613424805,-22.16573050402171,-22.846080297919485,-22.317403941809935,-10.848391736593097,10.703430084661736,4.095375537910373,-22.59261611077271,-24.592825066033853,-29.59634193972976,-48.744664358368816,-36.98359691411443,-38.65107283201538,-96.64734783657337,-175.343478914412,-212.93695173908606,64.04825859595309,676.7478232358968,747.9481664669992,-94.6836955353449,-621.303392184532,-200.23575428831896,105.97697701842037,-110.39037776855231,-132.20418312144778,32.27571211017098,-22.274088825847542,-76.3352224606997,-3.5520470285525096,-6.746292095586625,-37.03409717923294,-6.1838629087116015,0.06479677599731204,-13.857410785888607,-5.696222483264965,0.008850643764873212,10.140412105986496,27.456594298210003,33.18425564490559,39.45088925338749,38.11222483223793,16.849020847790026,11.342728482834637,26.80136560174337,29.68348804798719,29.766189049899026,37.2503995389654,20.927046089064923,-15.073667884319258,-31.2496610401727,-33.686641436008195,-49.46613591328427,-62.96533305733999,-50.42572496408455,-25.036135073875357,-8.576899802224286,-5.216008882963877,-12.267659790541359,-17.849367952095086,-5.1452202852396525,13.010754336684055,9.051423061682058,-2.964611529375782,3.870716376426593,12.048597937361304,4.642796020183125,-2.2677024847699307,-10.02450649899454,-25.535073040778414,-28.730574348207455,-22.076717302595533,-24.48677345874654,-21.39996828728279,-8.003076581619808,-5.752930164930973,-13.749831561746085,-19.948436569533843,-25.723625948350715,-35.72175747550871,-35.085879109668774,-9.130223065996216,-16.178403436528555,-86.88757695273324,-141.75521131577472,-180.39658683271762,-94.47135503299931,403.5499335853734,836.9249989725893,307.842143950607,-551.3046037116883,-452.3938414920632,72.66204466302233,-8.824734655624418,-203.1947025294763,-31.3354222845188,31.833501898253985,-68.26540438254258,-21.263850210230917,22.481212412482193,-36.772511155212946,-36.84459016004732,-4.932242136960875,-16.94974978061138,-16.06866601627641,6.931958120192226,19.380336842764677,24.236813793154127,28.96479498882185,38.92651935350151,40.66424753824066,20.473232568975376,11.83480065372365,34.423031216177314,52.06839996225861,45.6943350249915,29.750408235839068,7.626491210428697,-13.454198974669325,-21.982026607984707,-36.27060995710756,-59.86837712461144,-55.076990096321595,-27.003563551831903,-23.44891277148888,-39.034874672828465,-37.33676368248598,-15.350093240208489,12.26353548004488,21.499529812029564,3.2751168932682546,-4.726053058385784,8.209768473173323,1.2315919901058958,-15.094010573694517,-2.871034893052432,3.153091990727603,-24.090919586377428,-33.534640362545396,-11.155687405242617,-8.688915234863735,-26.48684491727233,-21.175874972971247,4.5899882442524,14.172040047192459,-10.287718195699089,-34.58926527698334,-20.869126843712266,-19.305526658190658,-50.313842384764044,-32.18191725575703,-7.847139492549729,-77.28154932999462,-170.07353910251774,-210.1780176556927,-26.456139761791988,544.5113190642222,825.0857648552274,106.63768708078094,-639.1624752345057,-344.429492761318,119.43390524014004,-57.476666364583046,-190.18335177151297,-6.765093103729377,0.11815288837080118,-74.55353612723232,-1.2815185752271043,16.297874253950273,-27.036540053728913,-4.83452735818088,-8.206875319616614,-31.093894287230224,10.893227393345196,38.011720574653445,17.549574139549257,27.39221597567697,48.534783373542254,32.7497530660044,24.27060005523706,41.97700830914779,37.29195921950338,14.023561192179454,18.574022287507226,33.855442170239066,15.806734776770181,-16.780124118164437,-21.69513307924826,-10.976519173457085,-23.04575218920779,-48.81438151460043,-48.61984478344365,-24.796409339193286,-13.674180339474773,-25.353729709201435,-33.95389146127073,-16.247309660083147,9.45839381363066,10.244836521234083,-0.8760086064358497,0.9624279912453808,2.35648790154708,-3.3482520946807472,-2.7050166131920506,-0.21507604456397544,-6.234075584236489,-19.815507238188832,-27.027994118130366,-13.926777599686929,-4.487203268130941,-18.23698121345806,-17.263131144312197,10.253866610182182,14.808855252320473,-14.67686063609678,-32.210857693850684,-22.22525764583853,-19.05976083373924,-24.819212684260442,-17.060922968398273,-40.218761674527684,-112.8668895087134,-187.6032290430966,-236.12917727097,-21.934118478016273,597.979273661497,839.4627003571511,70.80821120209971,-631.9534678136048,-304.8661883541461,126.74592845485932,-42.53537714084656,-136.26892906303996,26.470548554423303,-13.13763133126946,-97.87345336481826,-16.575092425416933,3.809370200401787,-39.29181670150227,-10.450406357123082,2.8787488408485506,-16.887979641700635,5.149401581203662,25.5864152550012,18.52998755233296,29.27778266451663,47.9809059295869,45.49322887058119,35.57522030838528,28.201925791507172,15.854720573925373,7.422724921940993,15.05070657234025,22.048708682124555,11.180840503156656,-2.518842910554751,-6.835495982112793,-14.716259015849605,-29.390814733727076,-36.366985471575354,-31.291013364545456,-21.973207280046882,-15.222084923405706,-14.211438300771231,-13.787351755823144,-5.284574136864986,4.893751857311602,4.528374629238945,-0.6963674871503116,-0.7039079566894095,2.890657656872799,7.222846779946549,7.020510865859888,-1.4412411972144223,-8.081506581156539,-11.468974374799279,-19.057081717601363,-19.648781706970773,-14.778451794874009,-23.06340031738672,-25.12049774655416,-2.217727598789292,16.188391333369744,13.359396748128397,1.1457834347110873,-10.608229513837921,-12.32777482540983,-15.819175118542955,-26.88983117674035,-23.583243258694054,-33.76859564787356,-103.50410745124144,-218.90350713973183,-254.7277992940168,74.5149386670434,663.9494682617095,656.8205571509943,-144.69329762939338,-557.2862709794249,-128.86914483063651,121.61606087308861,-94.3119162002485,-100.63495570100652,48.86049780574359,-8.464447676992776,-47.34542883413545,27.29921248303949,22.030092796024874,-0.7477123020503096,22.44518657852858,-2.63558722869086,-29.545080505734703,1.362634251416372,20.78820552749624,18.309566946164352,30.019475660704238,35.25293897224563,24.99620283339265,15.3587270737201,4.986888260016245,-5.343157028208568,-8.854068981785012,-3.5003078895990214,8.46182687291391,10.444932202458064,-5.20391138428833,-14.690799133561855,-8.461095633768336,-9.168812853597483,-19.03898068836397,-17.302286465987137,-6.340149326518423,-2.2264057416754266,-3.5763375643595747,-2.386221770356575,1.944185127710563,6.8383091587464175,8.416778539421477,5.095287389199529,0.21192524575654836,-3.521362711512623,-5.317217695770921,-6.1210123628066055,-8.544561892275288,-10.215759912775262,-10.088555604404338,-14.78890076922914,-18.539586542492113,-12.088978178755191,-12.417258590562351,-23.024772835970136,-12.964680104147995,13.71122997781632,22.63397276590527,16.04362566813205,6.753437157991615,-4.964716141467688,-13.253144164131726,-24.384125046365895,-37.497252294791814,-42.54705269514335,-64.3829939616804,-129.00588745589943,-239.51209565928716,-258.0465216644462,131.7156996896531,723.6126969672742,625.7665790817291,-163.31560832037488,-462.25809596304384,-67.37481475047497,67.03276210169489,-127.67255629173886,-83.53099421836609,31.201643754755118,-32.537622815400994,-42.139902143680786,24.501944462076356,14.857718965906992,-1.7060605388564172,8.570945465764446,-6.875920993081983,-7.565167341651581,14.762200550029537,17.020063829651424,16.257134125154984,25.635814240878226,25.82124352364719,16.561285283525056,2.4029120439189864,-13.361762547562595,-21.773468099399828,-22.101956608985308,-14.904535458037905,-2.9327495074869074,3.7945309110653382,5.236358302052282,5.354774981946966,0.7231353562598803,-5.621705454535366,-7.5559633445054395,-6.437086952552631,-4.444186300607331,-2.788188620065421,-0.1977808020890004,3.838354320583977,1.312172532451675,-5.263474552538796,-1.7269507157347803,3.054588401827222,-5.03477372624966,-10.667046558697026,-4.6038599102511775,-2.312027492182974,-6.215114194721491,-5.926438909292257,-3.4872047547837646,-6.2351103710769085,-12.269511101789657,-10.834081138160936,-3.712478289459966,-9.5528486663779,-19.379984666283445,-5.6628341976607,15.409049400387014,15.4975662035211,2.5796576093497006,-11.913465759772201,-21.02375169835949,-24.527564126045196,-36.80504081747482,-42.62586299515522,-37.62008912066493,-66.7409655231312,-140.40912953757305,-242.38455659923207,-222.80294826168586,222.03780493043564,792.1620617866281,586.6402918139108,-222.76326792310502,-434.50540919596165,-32.61298645573987,40.20860360139256,-140.39319689106117,-62.860328022071585,29.205391194952306,-40.02219716450155,-25.4871415777831,32.02576067096531,-6.293952611714143,-28.97103947514266,-4.54091661144064,-5.843204042119447,-5.923073271705025,10.374121205053775,12.241066099868855,11.947266330127718,19.64757582344975,20.80312548822269,14.52990392696919,4.204855552294613,-8.582880968355733,-15.085152111049187,-8.855715737849433,5.432319042063451,14.952090190686384,14.233979645454498,10.18574992841711,4.360062812942596,-5.843755238970809,-13.52981082683629,-14.913029491687187,-15.285618036038798,-13.752117540563088,-7.192972776732633,-0.9154246211543597,0.9775476486439612,0.04077134963017848,-3.5918668642199183,-8.39968882373893,-8.044725064467137,-0.5868075531220587,5.3539518659296785,2.135733773023066,-3.9094490455346023,-3.533469148785141,-0.6515798049624539,-0.6147619183747803,-1.4081166805187557,-8.426425288271542,-23.107780220224754,-26.30964901819626,-17.28238296931173,-21.090735287904764,-27.087372972958672,-8.020970128057165,13.553310815044503,10.023531260536078,-5.514674927939907,-16.978817477877183,-19.701388578632677,-25.24990609106041,-44.62630232703141,-49.06527618902105,-40.39010736111928,-67.7495517973162,-134.917480003606,-215.84021324353884,-137.5008168069436,338.40383234601694,778.209429823056,403.54432778730404,-340.8389306726681,-373.9652310379749,21.79256252309262,9.455857296246116,-142.57513700732846,-35.99457896859606,20.392271101716773,-57.52124741928938,-46.78915580095218,-15.105730636715514,-34.395805244281924,-17.02019344268097,5.677154258117742,-6.029599519462927,-2.501918447121822,7.779025674847507,5.326020770023406,12.72176082439353,18.58185362391528,10.972011220672645,9.12788832007549,10.890369159482749,8.461001120817976,14.831818310365389,28.27556841395792,32.79049144803932,28.678988257657416,22.213061425306346,11.061386625802058,-4.21215734807181,-17.748290414601684,-26.81524848869906,-29.640866602707355,-24.699382243268722,-16.465759500242225,-12.187302421008845,-14.230423236901315,-19.058707950501905,-20.418051529693972,-14.986456489349857,-6.293539718832404,0.010912344682237674,2.5813379784882535,1.3815492432997587,-4.804747339914355,-10.224609110761364,-6.632184955360561,-1.097170631126268,-3.7789917471549366,-8.616461783279128,-12.619425788897786,-19.307347305550643,-20.593881771895735,-19.90916491214698,-29.292904542775982,-27.727447796711655,-1.688248026877373,15.483734477484415,6.968069805432506,-7.657893284863423,-17.36539665290531,-24.458563299683643,-34.53860826735731,-39.75555012851372,-32.01992793515591,-42.16462625172182,-90.30814081527751,-166.67826708095436,-193.12096284217517,81.75725935487714,604.6960537727371,630.3642696797709,-68.66892885248087,-483.9275242013149,-156.87070866916238,73.2036245058039,-91.55821093581966,-101.78404615782293,24.576467642895224,-17.52600792971031,-52.53943046029185,11.665939293440553,15.071579355031083,-8.307161028912143,0.5472818493478728,-16.394386126714934,-27.71344349959223,-2.6583742602823452,4.858504349543055,-1.9089720111078572,6.561544930783889,12.185092766467358,12.587371682268355,19.457954372753402,24.411116381827952,28.56789294149793,38.440087057092384,44.891760365544,42.987942437848346,34.757234249413095,15.919517968506543,-9.56927377917884,-27.035422460778708,-34.648353294844824,-39.53357905406088,-38.96157905462836,-30.24688854711881,-20.754757101497454,-17.349185779394965,-19.672261116516196,-21.005916336556517,-15.915532798593958,-9.17081639720027,-6.037125616680932,-3.6782348515675913,-1.2364675373867104,-0.4111889755317826,2.190616181218834,7.972285028929197,9.928257706210765,3.3505424782792836,-5.953932511513273,-13.939195862181052,-22.367232131414884,-25.46656141673419,-23.74621604131636,-29.37319915640731,-28.888290360084547,-4.070432874735358,17.92344550090719,11.67963650940844,-4.898884318469099,-13.717354723464247,-19.568012787263065,-32.50538429088799,-42.21670366482493,-34.80192923256324,-40.863366718919764,-85.60071718974297,-156.40384025045506,-190.3429694375219,41.31753917968649,548.7543410576226,648.6217890468656,0.9102666463593891,-477.1944303481304,-196.02354892256204,80.58813917660825,-63.68705393638889,-105.85441640167492,20.229809827880736,-6.458305196544984,-47.98605836698104,12.617337232256705,5.358752703449031,-41.65190974367543,-22.13892379537304,-4.964556197420599,-15.150316340266219,-8.678702819236177,-1.743121218394533,-0.7226741081468417,9.917965412784255,16.013795445875854,14.95675464480417,18.973394429265806,23.47243696628788,28.609874612086113,40.37898296723917,49.67441096677968,47.80080226408213,36.063918174805295,15.344555721193803,-9.47893592777028,-30.438371053049202,-46.9347874813881,-57.31753230972134,-55.40630424421934,-45.19254689047854,-37.04864462713242,-31.43714526035445,-22.762661711485798,-12.25525274089124,-6.955971491556124,-7.07635343845779,-4.1397790979511555,3.4858593487454748,8.066595660458095,7.305220880327688,4.397615331356937,0.030548408554579964,-4.0187134065692405,-6.469794311069506,-13.126576727668223,-24.08922531627914,-25.476635378980816,-18.348269886548735,-23.45206341110515,-32.46991685095814,-17.609731344017945,7.791961826637614,12.989038124002839,-1.8430785576748185,-19.263044934308304,-25.01809185406583,-29.372125095964766,-43.87141414794211,-40.91718186107349,-30.837433438120776,-61.22321822157349,-119.42423260646804,-180.419281229212,-93.79210214737746,356.5731811139507,727.9947068691272,285.7522914539763,-447.65469378044395,-404.81255861189953,36.338149796310695,20.75957623995498,-132.87375975971833,-24.79537735481641,22.181964771914537,-54.31897813695714,-25.926501475208966,16.72279331642186,-7.267274492714257,0.5532035407778944,18.83114409922233,3.1018198244111703,-5.592285835999352,-9.215446787963424,-17.603404747151554,-7.756871634340332,8.796029402782361,15.110103944140953,21.819946544350145,31.365827675409783,42.51280387818342,60.27619105308871,73.44991719808706,63.5266799552883,34.43237032651031,5.86119090269564,-14.223597136756133,-30.607039775556142,-46.17668558136778,-60.00434984363891,-64.35917414879731,-49.98666724820249,-30.07118537772685,-26.660164722061364,-29.587579053471934,-16.596749355328658,1.8173587864108711,5.296486612691922,1.6364708741239404,5.087398919215847,10.441351308432587,10.942861056015367,6.794775605522833,-5.311898789883994,-17.45983764782579,-16.220752515038004,-15.88653251368229,-26.306871088466398,-27.36778388081252,-25.44487706605367,-35.48377148757032,-25.940085794300643,7.787666865477007,20.00079169871632,4.340564197435459,-15.171281938182473,-27.217180639794442,-29.115251193188804,-36.91191246995846,-45.474370887868936,-38.20267675504681,-52.17456545172454,-103.86677050597694,-169.47154980431327,-147.5333109416066,212.38362844088564,706.8742096352074,508.15913365886706,-304.51774659365583,-528.5757637637126,-60.19827256466702,73.55402174980883,-126.85193570276941,-59.3059826945156,46.002360550342246,-46.051720474961385,-51.43446598938579,12.033336797764967,-27.627770734101524,-42.838745107955084,0.3841765916842661,-5.74174111634202,-18.968583088621056,1.5353968378702625,13.973439709333627,25.00373581193668,39.75225963422689,37.34709296566736,36.24933162385146,47.304046665130485,48.1617683552316,42.359913460505,52.59787974820313,68.53533045830905,56.32520831055149,13.396441598649952,-26.30883976881052,-46.566518143665775,-58.30568472366965,-63.741645571999264,-62.66615106465038,-59.595152262654096,-46.637379841559095,-27.046534334280643,-20.47946459296721,-17.80564067652297,-1.677101577626523,9.458960824253145,3.3346334347624236,-0.7554564499045693,6.023052488288515,12.9967769907698,10.175437811489953,-4.74364296770009,-22.032682823057463,-29.295129999436135,-23.40451478886313,-15.164111444661422,-22.784104262431292,-33.311348177348464,-16.278165333945452,7.935511007588472,7.198563564830039,-3.3905101842046506,-13.10620915357432,-26.220014815197498,-37.16032994095952,-44.889340006483565,-37.2589047942204,-27.940600859138815,-60.92160259167918,-118.98547627989691,-183.9644660464149,-146.70766366129044,263.0538273149487,734.4661954488789,414.5719634957791,-398.543988364864,-484.26635459423187,9.11476972866329,67.85497450020176,-131.93106544655998,-50.01770408955545,27.432064124545576,-52.78651473553368,-33.5767496903288,20.040946644547727,-15.52227336428804,-20.625159212335824,12.964378822567362,13.738500402395967,12.458420645851817,17.24116167324322,16.55561894736494,29.54902908192111,39.40622132850129,37.22670159588266,46.9992501039414,50.84770118355252,30.678977365643227,18.411155589305558,22.97272720520689,20.009729464923794,10.17898082559387,1.0148746463577085,-14.010630442962102,-31.900618801890165,-48.274995490201974,-59.246037798343366,-47.67177608766472,-19.216623578674504,-8.655407926159228,-23.71995324667633,-40.95088550091814,-37.017265043835714,-5.035530062827393,21.36609662638547,10.805242873411757,1.1755882505276603,21.46800937208224,21.791549511522476,-14.626440399628237,-28.3831524508946,-9.533969049978007,-5.902507770709764,-15.884114159028947,-12.792650625085294,-12.235447547216637,-22.19442823702604,-14.846495600503408,6.079028558746074,1.040182253027897,-22.599329354030054,-24.02492605952555,-23.48462667096304,-46.48456156349566,-46.60485645403702,-30.506483251676716,-63.25503329659361,-135.54169397758116,-218.45850103512674,-145.05922941391765,336.1984563049558,765.249198226029,332.2887940765903,-437.81815109011325,-404.78074059994304,43.60499230263703,10.023565739183592,-150.73136062590592,-28.785688561462802,13.194069618234451,-61.65741962826327,-8.949606109941222,23.623515595842807,-35.20721178711879,-26.75518331968761,5.011334402964009,-9.94643813158567,6.0824562823211235,38.293149963954065,24.243638028196692,8.124073147385813,26.769429685559544,45.36062719004393,39.754075703088574,28.99304381541713,37.224406913127275,52.822519361733164,44.80513247208064,12.89194555566377,-15.375089676390825,-25.159279981078857,-27.438804805287525,-36.13202594600078,-46.52362481940976,-49.80311756253696,-44.98837796999338,-28.849664226111067,-14.03626017784947,-23.948209649280756,-38.40263618685437,-23.92285147951342,-2.070131709158943,2.176198246488095,5.8340028372038475,11.750151900175858,5.379747510851825,-5.167064246163886,-13.42992666928658,-20.710656763887403,-14.253248738259742,-2.152465739636501,-12.181455156053016,-25.64485276077403,-6.553410356718713,22.358905736219025,22.093391266871016,-1.2512915215357552,-19.268701686558547,-19.382950749391433,-25.43049849971216,-48.30181324247153,-43.40135581039968,-23.643109348461692,-59.6378288090789,-138.41794265153,-224.68145222936406,-177.71563423878263,262.03868920289096,724.5264086799166,384.3593022612338,-386.6929425884364,-429.7849421578173,29.038333170878644,47.53890844661064,-140.70811622998042,-47.37096440504354,22.02556446801178,-54.79656253912323,-26.077864176736057,25.126929961650863,-13.080465275569136,-13.826376844449767,10.720135144666347,-4.934806181151193,9.51699428681407,37.082632767383245,11.893189159589085,3.523205892925777,43.00515846637412,48.49438839762842,24.92991920334844,34.07459668888078,42.37270175623758,17.32430051900604,2.876006486309075,7.415451279636687,0.7414908453152669,-5.084289112431405,1.6955549464739832,-1.505371826283584,-20.75819283988363,-35.081518693180925,-28.739628460876926,-15.493073108352913,-22.774919188050294,-36.54374096215787,-24.98218238740931,-8.654630973133933,-11.399999763678444,-8.883095315162553,4.422507415551362,2.295821832160417,-11.269831199846791,-14.344703789191744,-7.015284686583421,-4.118656162797848,-15.8976340481221,-30.839507024587665,-25.285254096566383,-5.299669147419653,2.5170996524690636,8.155230725298452,26.419693494456304,14.403376684923906,-31.802382506538038,-33.28907993542624,-3.0149490696515144,-17.30268317985449,-35.884506200928485,-37.16429894955269,-87.72741929544091,-181.76402139470494,-245.39637752024709,-60.305132415212285,485.0778684412096,719.3597681277092,75.17110400173861,-530.9837161010394,-247.74852084896037,116.84506275381962,-48.58715512225793,-128.4181888239588,27.69950674126538,-3.2241791624317386,-76.78611026614382,-3.283789506335385,12.347127681421664,-28.145157053838524,-1.6705268854832465,14.137861305007995,0.9365525087781115,16.38040839230997,22.77921201486714,11.76135289893599,27.666620566079118,50.422517802668835,47.351948039373866,32.72056287414956,21.19272638680487,15.822478368941649,19.24458840959254,15.98730326463551,-5.582406450767525,-19.55543500121889,-12.253328094288232,-13.790122810424002,-27.92024081909586,-26.678521047423413,-23.490571036607648,-35.82028214787017,-31.996937632517614,-5.92335325857997,5.087697130319675,3.1741019432353,8.23012946616317,1.5592371950791808,-17.116743449257633,-14.294776348842664,1.799835583592749,-1.1676261655689615,-12.18286693449616,-11.30410713144742,-8.64939035563053,-12.358645882032913,-20.134181659344254,-26.17955979273352,-15.080144290016722,7.206590222154419,15.261929231175383,11.540568155634013,4.1257417371901735,-8.455856251896176,-12.605146921909876,-15.918977154885745,-28.57891522116092,-27.39207512590465,-34.43870172224435,-87.88243210413715,-179.15642375986215,-244.28261260626817,-19.196324312205576,546.8563002325066,688.6020372780675,-13.504286043042441,-527.3044302132489,-189.29425600566225,112.23524832802416,-69.47373134689397,-110.20679001229901,36.924754858578225,-6.99792851505061,-62.75195566851035,7.0607880896951585,11.13640747120177,-18.809829360062054,11.635507002772094,20.369856143528146,5.087088215389908,16.205037139491523,24.800285015168832,28.493565981708734,42.265216655682465,44.79245308617075,36.65319626777884,30.125461563348455,19.411076395219908,8.264389901997701,1.6191293722776168,-4.251044009861437,-5.342156118842517,-2.4898366542398565,-4.2117788158977785,-7.620070972056975,-10.960173867012255,-22.343695661141698,-33.48517051442599,-23.13626788651981,1.0810261168445354,7.558600910963395,-4.100774643107687,-4.870424766304451,4.571089967983564,3.0971775417897858,0.9288403908611631,11.465056162264668,16.734797435776297,9.929377781106927,5.642134224332283,3.0517237567194835,0.02256212296206961,1.139180908626452,-11.427154975689398,-41.04452645560157,-44.83253525664852,-12.509216861577013,10.8493731174669,9.397170725675018,-4.3671020103383675,-24.706364599596327,-29.415655038653057,-21.828371317918908,-31.02632677926018,-31.891442751286135,-22.923197219255492,-59.806483163840824,-145.69677199583037,-251.0018225762745,-187.6995153184364,301.7342859521551,748.2986320952737,346.13353185363434,-388.83826480484265,-354.0207482888235,64.09416578590296,13.793092239155122,-143.62676138720678,-20.0213322799844,21.934866969581464,-61.4991606544349,-27.166012826929702,11.935103568482862,-15.497490122688854,0.3184120886048891,14.453449682726344,-6.5469464817470575,6.844790212947476,28.153653583870398,23.461665134845777,30.973758358041074,43.126291493613174,36.223961529450875,24.69713294261568,9.432230950381818,-7.889442154426411,-10.273192354664191,-5.562329902633769,-5.814612559887902,-4.513350962556748,-3.9782582527646237,-9.496394470955789,-15.860022257766559,-21.967918538871572,-24.665300928203855,-17.592016017323907,-8.58365869294888,-5.380985960836677,-4.229431965904851,-5.4422274700884685,-7.651898997832465,-4.7829860001681315,-1.8110996477571124,-2.1261999282194246,-0.20605974812459316,-0.8820016110898834,-7.277247004194248,-9.589689019310512,-7.873910951275597,-6.857485340499355,-4.519247555107629,-5.935557037005637,-9.601934316483383,-5.8233022305496505,-3.3678190862246034,-7.444101767856388,-11.12740527764597,-19.761086090215258,-26.37726685474218,-24.455776147433532,-30.75231225492901,-31.447534975952987,-23.10054011823061,-50.48613219471843,-122.09640694735423,-230.4677322087939,-230.65861944371687,184.12728677383603,705.176223424563,464.1461457948865,-294.3055991695238,-407.63738090780487,18.96223679838937,57.146415305563615,-125.71695982589179,-39.65028843913789,28.390142139118787,-58.48983872430868,-38.35019362762181,22.4220195457252,-9.335613948854554,-17.165416140326393,11.029850671837087,5.7945490299086835,8.686433923291547,28.122140899884535,28.350609483472077,26.727391313664928,30.802498223374858,25.9262719785319,19.481688679288325,14.885811921213532,7.4944942379550294,1.9434478961610133,-0.5300305269018699,-1.3952117478318176,0.6643142913614382,2.6261137517307915,0.048799099688573655,-8.608262525639644,-19.65856708086857,-24.03596607354622,-20.081347404581155,-14.006775283645283,-7.957742304988212,-4.921089780885756,-6.601457126690807,-5.184325519428011,0.0050562202366446485,1.5297289592119458,1.7927113279774236,0.39609641645783533,-8.601756244264768,-17.59270344140372,-19.12034239550276,-15.103364075525281,-8.33855730352787,-10.640121490718297,-18.576560838514858,-3.2081219427886563,27.894910750648656,37.69535041227856,23.78621945616357,-0.790173666795063,-26.155700735539703,-39.990792560594606,-45.25041534560236,-38.91600910674903,-28.925623184936068,-53.93117083934016,-117.5445032959693,-208.7802989203084,-208.6074968749591,158.21826361207587,646.7449632058656,454.4752949270578,-259.51822992407205,-402.758077332746,4.118459307048781,69.77490731335172,-110.25699325719071,-43.55533926982199,32.29055654292471,-44.854281399267535,-35.53462275482551,21.128187058721302,-7.937524459574828,-22.178816475019836,4.484377377891251,7.005245971235516,9.946687867994443,22.910332736083774,21.010204662774186,20.3951055547438,27.557126305902546,26.891845348503704,20.424483433021944,14.916236322493603,11.624456077852646,10.940729990996102,10.877386168827769,11.310357494384196,11.049685240404312,5.812793603422092,-4.21768489210707,-15.901495288911832,-25.3691872989439,-27.052330980641585,-21.972000424489764,-17.4124516739055,-14.671698942546756,-10.728579357259822,-5.445795660106715,0.7700049129863356,6.00489661042268,7.039845998938982,5.369734063931096,2.939242454370726,-1.7420215510142523,-8.137872804736869,-13.387946714329495,-12.92798064419427,-9.471224061744952,-18.03677898225468,-29.016132273071022,-9.268069697200469,25.85032520079941,29.749354519753727,7.030010138017916,-9.724781913462119,-12.292018193708719,-11.999964943251403,-20.260718582766362,-24.746618155090335,-22.222742826113375,-42.72376181507829,-93.55594919758997,-167.7702307862249,-151.89165258561337,197.23010054905248,635.839945559009,422.98750581159345,-282.0164850209729,-439.23881497162773,-40.80713851333261,54.602283778479624,-109.36605807383444,-52.11714935856616,32.17849856322769,-32.36712402018881,-32.549045955714234,14.738933777477882,-11.640191330776304,-24.65267717722389,-2.9371239582546878,-8.156732382623012,-9.48305330468416,7.1692218541273505,13.072504621126068,18.82834023355404,26.999427470920153,23.17338296982057,16.646175153692678,14.554761309356323,13.986519803632135,17.792007479469888,24.634441618770335,29.314340877309952,26.521860587576604,10.738132275393621,-11.301237302928772,-26.636122396153507,-32.873994374343496,-32.73244371399706,-30.195285583092662,-30.28805029450878,-29.909524288651742,-24.389128731118085,-16.376811011721642,-8.825321906251627,-5.890672581691263,-8.439164109544887,-6.435713735410193,-1.5442598558919407,-7.334001991509787,-15.399045904979133,-12.922253641338322,-11.260032445854673,-18.296832597109592,-26.303514832306934,-26.36043720443196,-9.455174947026673,16.8430281607381,27.00197363770648,11.362624562071804,-13.010945828456904,-20.024810798556178,-14.443335629486388,-26.68783849156594,-39.26225562871835,-35.473184576316044,-59.67110747062525,-107.40026639197376,-159.7898020473144,-165.78045075241812,141.74507591446036,661.9530546116825,565.9693251250762,-217.21150056903176,-519.2709701364779,-90.13976240036985,72.97466732406234,-139.14032816478434,-104.65334087875775,25.374670247600072,-38.752157827927654,-54.8729345908409,16.936945216957408,-0.871650352303952,-34.24882821726017,-19.286565414877913,-21.20464198207928,-21.842016755955704,-0.24659715504431734,13.542256791334951,24.16777877736672,31.366079221950645,29.33353820962568,38.578930895289645,46.69422843154536,33.36250923454848,29.19996149674435,44.118693593675516,41.90356307510974,19.996641880553938,0.913093853535873,-19.258783569060466,-40.28557471845897,-47.4694863228165,-45.95549969415742,-44.015353429668906,-37.81737378231692,-31.435004401363123,-25.43970635733786,-14.22885304312447,-8.61750657249587,-12.454725537548637,-8.470014113672534,4.498386122964668,11.376402331147846,6.581162062940976,-8.787890601292183,-21.51503716887401,-14.994200875752034,-5.748185085875683,-16.139912012728736,-23.446362228838424,-5.33059494541909,13.979625806028201,14.77075003317271,3.669236703078333,-15.90423523719901,-28.942366377423244,-28.035213163876506,-37.32184141903818,-45.54883040270862,-40.64827421087065,-65.44600077100688,-107.78198618739674,-150.43835171377245,-156.82940268772234,150.32800018952332,689.4643631010897,594.8431662509444,-235.58634918130412,-567.2773841341605,-99.30725773976177,108.11692671032891,-101.76956896156756,-74.02236125637431,50.57155740490756,-33.98624380586266,-69.60933838714985,-6.633268539490976,-30.242128598852346,-56.05333697070729,-23.967301620556412,-23.053619723144998,-26.167419078771676,2.174532054152648,12.874078307660417,16.155799073092894,41.431344597971,53.74383325709523,37.70466758416363,31.211845762616335,46.750423732504224,51.905451465918915,38.93718823223411,34.63516695456728,33.023685045991726,10.084170083536653,-18.043180722941734,-34.03595431757998,-49.03485314329696,-59.23164877881079,-53.725524606236974,-42.93152224944983,-33.78924762234898,-25.432881506743126,-19.725227525685124,-9.054363087528033,6.682433797484563,11.283111509554939,5.2921074250152795,-0.17048651944180548,-7.3383802770188815,-15.847528654986036,-18.67959533760135,-13.331028578804823,-5.447668314778468,-10.246289987511393,-20.191208309716362,-3.5342965104639994,27.518618788584856,29.752313027809933,4.113742377598765,-18.14276883155187,-21.5252089104372,-22.649316996629913,-39.23850302002594,-41.57177420024357,-28.748385373603,-57.68629088483426,-129.61360006889691,-216.63618447754482,-177.96544337744638,250.96320367951546,728.035068473054,421.9658234309751,-350.1989721980402,-430.0381544111881,11.692667315796985,42.019728688440324,-134.84376594184226,-37.01783857514402,35.83280610358947,-45.09512136416042,-29.1185770338207,17.889676144413748,-15.098002083945836,-19.678695041929164,2.8166028053514225,-6.406462536509698,-4.5013660461224205,17.315768999968448,32.03773397496381,44.41454540474007,49.73637706700611,45.359326400597915,44.82338343679741,44.486015859735446,32.65890904129178,11.356313810018605,-5.81508323275685,-9.406891781707873,-8.453946760772023,-12.46831577205062,-18.57735304396838,-26.03520569190293,-32.39527041871949,-31.865621648555802,-28.718540815845348,-25.791767005085177,-18.38895414025159,-9.674899156748628,-4.546366047714239,0.036452043651648225,5.58304058328242,8.333633298821711,4.059116770041308,-5.612780920458448,-14.206206604541117,-19.445890087194588,-18.002696280490575,-10.365099637452692,-13.158963809899088,-21.262082293421738,-2.816553796840287,29.086565122905377,33.9653528742659,16.40556015519038,-3.77634504543391,-17.413285157424802,-17.897905422869705,-21.469047543335172,-26.402333206422135,-17.38829531154309,-35.60162666117078,-106.7057079239533,-214.18018577201977,-267.57268896738344,23.6915209670629,596.5835947631758,629.9521191499524,-77.30357652788474,-442.8942810543234,-86.31873025841341,92.05617989359932,-101.88336744056309,-88.42783114166444,31.50461748819754,-33.27932242433123,-59.733368663092136,9.568014706961566,1.9961087061333487,-15.372215178932025,12.996460268601012,7.5317265506310065,-2.3296500818370496,19.224452630226324,24.895932350164372,20.955164203974107,31.387652011211784,33.90422894294571,27.249651774600416,24.94282451305031,18.6609882015882,9.181435667534792,5.682079375437822,4.568752512899321,5.6453553145941004,7.679352856490665,-5.583053842806974,-31.778668888036762,-41.96669593323233,-32.999863265755046,-28.429649158422578,-27.436074455888438,-16.03532061959765,-3.5186653881468644,-0.7679859359422814,-0.6619158674013637,1.5659088260571057,2.247767110400982,-0.7758070426183572,-6.826267254555727,-13.111004111943739,-19.851283691017077,-27.07718951465153,-27.083630067842748,-23.036976217008394,-23.5148101824826,-10.468794547943304,21.135174418730895,32.92900163274959,12.650372630870653,-9.172670982764608,-15.762932409163358,-13.567211950854647,-20.32424542537592,-32.12555527483927,-24.279037289302117,-27.22131957994845,-80.99735047690822,-175.4363622249296,-258.0724380742472,-84.89887185983804,449.907776149968,678.553515967044,99.39419820254952,-434.8965366283446,-196.49505941401395,97.62292654134698,-52.81429637321515,-116.47693649257718,16.128391860817,-10.91987850962279,-67.35213814264432,-1.4995796758125195,10.304453555952476,-20.616769663479346,9.105404623740407,21.11649366304172,0.21905950783463402,10.158370636706472,24.788126830904936,24.056384084505638,30.36205229973669,34.12432239582304,28.3169854114121,22.27825354497449,12.056302614809642,1.8099100786743243,1.5479529632427689,4.1065355124661025,2.327400217727437,-1.9152781123913698,-6.423977463040652,-7.7124095430119795,-7.406518702668756,-9.662304608891796,-9.978503401776534,-11.606455466100124,-24.555734470744557,-34.07611219813712,-22.521321694676434,-8.569813632650455,-11.462382291832267,-16.404071417079926,-11.349628723628625,-8.172276660306252,-12.564374343148693,-18.09809770343774,-25.038334342471252,-30.310023937744614,-24.886519200078272,-15.406362302000955,-5.7816423661579215,16.81644796826704,39.16577567159249,30.687238924446884,0.7498949069875493,-17.347440473134334,-15.162769408379782,-15.360717349239884,-30.300307600042917,-32.22255904053886,-22.927846712860458,-48.20040720177504,-114.09049515699131,-205.78349352893594,-182.7170248808333,209.9322148488987,659.9899529276877,404.3910836507422,-292.367462937724,-385.22657884112107,6.509955916110123,42.39924698054497,-124.8386786906502,-48.870172957949954,20.78924045509821,-49.66865418985925,-37.70035642375004,11.016103758128265,-10.301310845982691,-6.538478202638286,23.671084828137484,15.094909299589663,6.571072684499821,17.58358256508273,22.759406523939877,29.61971684609561,38.04155330774411,32.099376002893436,18.60204669383038,9.67990417729284,6.0463943716208215,5.258260959339829,5.651949960271897,6.005078691176394,2.2674929057827087,-6.379052610504776,-12.567347574601435,-15.619063881600933,-21.77270038502092,-26.680552093276837,-23.839902891907563,-17.144356997059983,-8.909460062960807,1.7397906268715921,8.956113648934913,5.3107180174790365,-10.57162976598772,-28.116888567379398,-29.20422601083631,-16.439907757790152,-12.194963038497395,-20.564142678346016,-29.752096115643774,-33.6688871879434,-27.230876739899475,-15.524775007351927,-7.878558296822105,8.727653832915589,33.62458697910784,33.66566584414723,7.473907272748926,-11.370049843558647,-13.752249671632299,-17.81205188278159,-33.00433345876632,-37.68758307704687,-23.935903242053733,-34.79344559804887,-90.69790654084254,-178.42486891096263,-206.08156936630883,84.67045983385161,591.7739094021888,559.8465843138133,-134.23250354104778,-464.91907683347404,-108.84514955677129,75.49500409327368,-100.16317108472106,-90.24101249357822,26.253564369540513,-28.409334645567597,-56.48811370419156,6.990527215660336,3.7197903504073153,-12.542914895372993,15.300611400093262,14.441193143059376,2.3048183218259113,16.172390091914103,22.626548648833477,24.677302451307987,36.440639381446985,34.575392998339666,21.74816153014733,17.121267064870406,14.660344123459481,12.395951393739217,16.07671686218305,15.887238867291527,7.494459575141805,1.1069398101094965,-5.246282429455015,-18.304756001045384,-28.647502530361095,-30.85575525368801,-32.80004181146974,-32.918410262462864,-25.29817938780887,-17.081938066511583,-14.382992144066693,-12.185120677220587,-7.8347917524107835,-4.523968044966656,-1.2500489161253938,4.464694207379299,6.621840818789956,0.39616974047042675,-8.278093845166211,-13.792656697848745,-10.8844074731953,-0.5470732523959576,-5.486956062214539,-23.75243611295846,-11.794495627660801,21.590424218389167,18.921798440227505,-13.006538844051146,-27.777188010617476,-24.814331371837962,-28.833680961111433,-40.37802466698127,-35.474481585092946,-24.276308762195544,-49.455965902657866,-109.44496690915923,-187.3937788562838,-162.95691032870684,211.93478030486773,665.8985495736417,431.8508587493897,-290.499675918378,-429.9545713110309,-24.458121207800193,50.34780733887969,-119.29848459148386,-55.570078490897,21.187044128478817,-46.21943446215529,-35.84805269280373,16.950293032024007,-4.789896195187534,-8.22405973150153,14.469683209756637,2.2374325261502785,-1.3910617583840823,17.79154681375019,24.948116041215343,29.00627588665459,35.103710546858224,31.22145425000566,24.524465572458094,20.265084241029577,16.564533182713394,15.764451344019346,16.229549968750426,15.446541469003346,12.115661090277403,3.137547648136649,-9.54506884660339,-21.81372005092826,-32.12195273203689,-36.98591733645268,-36.41149244923886,-34.686677931155444,-29.735030503216816,-21.454561971845823,-18.76926165407604,-20.094201093793846,-13.806232619716159,-3.3170427966601466,1.2443699168470417,2.4604220656739315,2.0004155713819944,-2.757878793048846,-7.745456798155686,-14.142612209113492,-21.276591978535397,-15.415508309197564,-3.8978355152445516,0.007648443897977586,18.83341809049659,46.19721865597401,31.129384898299055,-14.869356540400254,-35.701841846590774,-30.75497247351151,-31.546569779243676,-44.65846478684405,-47.442260675514646,-35.15258023925421,-48.06615504205567,-96.67733984731578,-167.53123315521242,-185.74444030959847,110.6499919277002,629.7690816421102,576.2159227372836,-179.56508225820943,-525.0754233005147,-120.20817437702908,85.44964761414445,-105.83212826495486,-88.3298768048123,42.62347821416495,-21.217883264756367,-56.15982387476606,8.491365142186066,-3.677162346110645,-26.98748634457172,3.904144505716623,1.010464887062204,-15.197642706440815,7.276447714617593,24.753210681389927,25.45848814258225,34.31360844379493,38.88770834864833,31.844609338297538,27.149907826294484,25.961399136457597,26.233390587305998,32.081407843795105,34.26362276979493,20.01940052357167,1.1005024468152653,-9.053651924526644,-24.204586197906156,-48.16703006177198,-57.031371648915304,-47.336761531924665,-38.369994703278465,-32.244161633522765,-25.19776161594766,-20.266265397801234,-11.613682601615974,-1.0345328934942977,-2.283780397924893,-6.963643299290789,0.48563406461205716,7.996857707847431,2.3612627606426067,-9.416604562739078,-18.766578355116916,-18.00493748282775,-9.700115558901643,-15.317655309252928,-25.59390584138261,-2.3860585309598674,33.36188119592359,31.09766351303883,5.2398387534645,-14.016474876540087,-27.72884234829883,-33.55012706016605,-40.372728297648976,-45.65665619009322,-28.00692252347413,-29.809801139221292,-84.59229351751209,-161.844502359568,-198.41468096708115,58.95210068843423,632.8253443644303,714.8774924311124,-76.14205758570512,-610.1862610472899,-230.8921659213757,93.55235944358091,-87.08358191739353,-121.95758446572444,22.50643807182341,-27.76081263676405,-74.77739060923355,3.3932589188294244,0.6313278580062658,-41.44791117481624,-18.536846577545944,-8.810495391666588,-15.400512458233132,5.1572608118462435,19.67004197806964,27.470935241132974,47.033101189148354,57.374677976580074,55.26997924333722,49.96525008372014,37.25110541812552,30.263052484700218,37.75994692793613,35.244122604713525,12.378998739289461,-9.387291867386349,-23.02532573778082,-38.99374033995735,-54.187364976991844,-58.14449983170164,-49.64319156313964,-38.41641133603504,-34.682689317855726,-30.260784451463916,-17.485079078024043,-12.121558861185584,-13.732728706966743,-2.391690482249505,8.33902210292026,1.5128642738788152,-1.3441994710027032,6.750131121959612,6.043841559409463,-3.3225604303132528,-11.831124601674677,-17.31750932940144,-18.694875083655077,-22.649805885714382,-23.509202248119756,-2.5105514890254437,26.44032377453531,29.2129205002965,0.8929274787616261,-24.20501411004234,-16.38457989316759,-13.146804214392084,-44.19041096174612,-53.766237834160606,-42.45021777312061,-73.20640937803789,-138.25026276314819,-202.55875285605308,-66.28277609184849,455.58791918978125,747.3979687223633,133.07824626554537,-557.0921250989181,-333.64920809518617,86.95732517150229,-37.81739493333605,-142.3378871595193,19.6627571266472,11.687668523256434,-82.80320789577577,-30.121502776405023,-5.654440733815612,-42.05188191036821,-19.45471449640916,0.07608514835145552,-11.473812649265982,0.6143057355945123,16.244669290677713,25.646133816543788,46.32182221904533,58.74874260950371,57.171141031455086,52.801080062608406,44.4246084424058,36.50436494790493,29.578418507887676,20.68365199254306,12.944595646926082,-4.441820814784268,-30.026579278578325,-37.604497378342984,-37.11505138102358,-54.093055175604846,-63.60685354258842,-45.56932633673775,-26.818765001072187,-20.45381837330333,-17.691080728731194,-14.004550486185527,-0.3203636035454629,10.793490421279547,-3.101926517829412,-12.299667163016018,6.717234949866234,14.134216426117895,-2.1845922341921735,-11.32926627524198,-15.594234702285721,-19.692466458982317,-11.181781018792325,-4.408432423717695,-3.9679626057674877,9.9585915048062,25.53111242347464,17.928354608803307,-8.233449409477338,-26.987168438849,-24.14223097435127,-28.05619016788179,-44.46227218730398,-35.186429475174435,-36.08235208808814,-97.55435430929069,-189.2778343925949,-246.0339850732762,-28.98416109837291,542.560535267316,730.0641918106282,38.306031409507426,-532.569255469307,-218.69349306810176,116.45395943747297,-61.00241468057181,-122.53958949139457,34.64197627767687,2.010688788441648,-65.74063464580918,-0.743078664522157,7.429000994067671,-25.87430083770925,-5.2518791262241775,-12.984081142599017,-37.366263635779276,-9.647758256179195,22.59824810489333,34.626487948306945,51.007129410582884,58.54893295959914,50.27386804363354,39.02809577471399,28.7971974667051,23.671758630756976,16.937442184630626,0.2521696352625362,-12.599346597104812,-17.201880562427156,-25.62935926036203,-31.973667785780293,-31.65570272259678,-40.1114616040488,-51.879623444061956,-42.79289148441658,-20.839969333582726,-10.22475633406021,-8.677110672505016,-7.332669791790654,-6.88228521114598,-1.3183649041669216,8.56103197014119,10.762382324944957,7.877091339289254,3.893988870324403,-8.036746841761605,-17.552372434758738,-11.090945164409382,-5.589572327427511,-16.559460417033876,-22.232231567622662,1.4291730292817757,33.85797235215703,38.18717155937665,16.455521848783054,-6.79575381464701,-17.230365780333656,-16.06018115351712,-26.50978933325986,-43.978284325100844,-36.01556954648055,-40.45459606006074,-100.61142092110411,-196.33027891813015,-270.745957441344,-63.01366014581279,528.0117712403071,753.3239564815567,88.29139065704561,-490.9128927030437,-206.96055292113,116.28972666950163,-53.5848525198505,-119.9954516580747,21.895557998008968,-10.495839149263958,-64.62985953128685,4.827689883724037,-2.4542840617749917,-54.1543915393931,-25.661984519664397,-4.9323737264763245,-15.10576490887757,5.912553019946374,28.110285318462484,32.4921917613851,44.59040445098786,53.37925351054146,50.631802989559134,47.75641673232565,38.921456145189296,22.826389050520685,11.622221321560886,3.857608342164112,-7.619857969313971,-18.83176739648544,-24.746892061459363,-27.004186192636478,-28.726239660173814,-30.529945349611975,-29.986709293429982,-25.137137760618298,-18.216040885604478,-11.457480246685218,-3.7775124182500086,3.9974529044949083,8.097602775160954,7.67603593670378,5.774139585928911,5.5771746672375535,6.449214277799765,3.90808661113092,-3.6244382504454933,-13.570463186973203,-21.54183104997425,-20.36380590560202,-13.994637532280274,-15.404028973865138,-11.573217285354133,13.314319366236386,31.562769666709386,22.09627695950747,4.8165306600909,-7.1956322603679315,-14.246158443253007,-21.27316342706095,-32.82712191589058,-30.824667564925853,-27.72440991914781,-68.59130244882016,-160.85989868361025,-279.5531339929484,-211.4885767426103,302.44219974177474,769.4443238826561,387.26255863969266,-335.75452955827126,-324.83640109620126,61.23610457163845,10.464426128053365,-143.21356724275205,-33.02931234528657,3.6772689522263136,-73.20023755997427,-33.55423770467504,11.197381554191086,-15.355892040009369,0.16754607655118203,22.5771988292924,-3.7814730186480556,-13.315746514757558,6.429112613216772,18.94755141244521,29.086138801343306,40.50852906377215,42.60862501396804,35.69811144064899,26.34486061548511,17.752493099514933,5.276022313963968,-9.293358843461156,-15.23787466866925,-16.9226544826255,-22.324656126482274,-25.302009041580988,-27.355919643620304,-33.906562919787476,-34.9617772981,-26.697745430422845,-18.56650894575215,-12.179852814377828,-6.957302642602869,-5.4562282347326985,-3.0890322695330887,1.297686879469424,1.6805808883618223,0.439912499763512,1.3880597204823832,0.9505779170889195,-0.46173224631193577,-0.739518320778144,-2.5799357011244837,-7.882403966407203,-18.76762813251348,-30.36196192802349,-29.556769476123264,-22.91947220633962,-21.353239088924838,-5.288485810067247,25.57449677076741,32.06599420924925,10.015322591017085,-10.268530300826468,-17.78637338236614,-17.365366226670425,-24.63121751611532,-38.19665111274007,-34.58557582346709,-39.11257115265896,-90.28892708183463,-189.22865379135766,-266.8394095242803,-36.2831411533937,561.1870526050639,753.2283974369154,83.50606355523826,-467.49067474114156,-200.8785811047092,81.36456321585823,-84.92309151468433,-134.64194992954208,4.411208425983332,-24.677732028475774,-75.24698537413968,-11.735814115773758,-6.979163132595804,-34.78694279963208,-1.2653930361161265,12.588052566914323,-1.0950489798423422,16.971149499811748,36.386996547523424,40.81346100704799,57.39266734189749,68.30957268920076,47.444984364272344,15.295809108130317,0.9475403670716247,1.9210788918351243,1.328819085845733,-4.229494481167704,-10.922113600820456,-17.641435439085342,-22.507063013226627,-25.627735631455295,-27.748376058310242,-28.684447542884893,-31.961994160958877,-35.189577688508415,-29.72621509491683,-18.65470705340448,-10.184238026491652,-4.649474795068759,-2.5014152781180385,-2.7998909023726704,-0.38856430564844935,2.817530446279971,1.8525226587555501,-1.2573556542316489,-2.9904348830275254,-2.609315587145989,-2.1558870887406876,-4.114459927268726,-7.927842326824674,-14.538436917132795,-20.92687884289086,-18.58386849904805,-17.191584187219114,-26.540436087762515,-22.120864057608895,4.208762682285492,17.86119452346629,7.710510729113373,-6.840729751058827,-14.516982973300891,-14.459462820935496,-22.734552716577472,-37.62597572005053,-32.14288597997863,-33.771762934978476,-83.19631972771806,-174.62180262354494,-238.0884231824945,-8.009112357879559,559.3917999266607,720.3483999038791,52.938327591876586,-478.6074713351823,-204.82170008851398,78.8089857081039,-83.67494545855804,-135.67985275310835,-0.5367478127420071,-27.743145542443855,-77.62320073263473,-13.428401737898183,-0.4028799723491332,-23.194566751300076,0.7806388337671955,4.1348921602149336,-8.162117649649048,12.683981579793771,30.480539788657776,35.39445911890332,46.00953199234975,44.51088159394979,34.422412088237195,34.39750276158675,31.1451686319824,19.609810026612806,14.949200206763447,15.789493468589116,12.433460125136005,3.9029132005061475,-6.613413787033199,-12.85652838264054,-20.18374654317934,-43.186243008181904,-65.55870861745082,-58.44225123687522,-38.346476612643244,-33.948682647283384,-34.44199657375907,-26.256148874088545,-16.53225140553662,-6.144112580049697,2.7049691427820974,-0.4721741967708404,-7.052259357094105,-3.2952017553214894,-0.6882967740725441,-5.61261654418087,-1.918153858571884,7.041668823215687,2.456383343978132,-8.33383538475556,-15.910054760742817,-25.21550952657016,-25.61792938296936,-19.612935828466377,-28.138745186972777,-25.975537669862753,6.925385201307016,22.111709581910752,3.8033777702358336,-6.965899118687943,-8.705515401001833,-21.800956832474416,-40.055349541590644,-46.68181596995207,-39.39530130948927,-49.128602648852834,-92.79012949292056,-171.33273229206037,-227.8514205429023,34.07414140190946,645.9599887784035,765.8473756781572,-15.420941564878532,-573.5536319112995,-226.49285586396388,85.79227421666118,-96.21005745989444,-134.45694498575008,13.275275477883994,-31.077253998645716,-81.7334634748978,-9.426542982132581,-9.322106581874841,-42.72850734181183,-14.416044052087766,-5.184553335691604,-10.325641388362964,16.45737350861588,32.182627986774605,34.459078423961046,52.80400961615849,65.67556147668517,59.56555057111618,54.05016049860644,57.44248968474368,53.05194883145023,26.42816989582257,-0.5417310072906067,-1.9242237426050348,-0.08300923468469357,-23.75302835485534,-54.73031982255932,-64.72987062125813,-58.165120312853865,-54.067271526404426,-55.731609766574394,-51.666111746899574,-37.03942817889863,-19.032531104551772,-3.8279796480431543,4.473933815266236,2.965988532094194,-1.0801557129350705,0.33386872308969373,3.2342634427467623,5.460922409657453,10.067553748324299,10.53345247053768,0.9115612175177823,-9.181488373637201,-11.865005122584328,-14.82743189943266,-20.27049215790168,-17.065652150537417,-12.510156915025902,-22.476678357362577,-24.589550566887823,0.26781268352350907,18.47261885392516,7.334532086787728,-15.415964365126186,-31.493551213132527,-31.77492885912502,-36.322236544093485,-54.60785330469453,-46.150812403511026,-39.99123147050116,-93.55796895778914,-161.03008245675107,-204.41582365024905,-57.25381252754519,485.7591771034368,835.882912072622,234.72651834354895,-541.2802966552306,-385.8682685625231,62.76098102563161,-33.89624421923741,-162.4187757461624,-9.064742787749054,3.296150282551139,-82.89053755598506,-30.2049509137519,-4.305669972210538,-42.08972034052867,-14.248469507958001,8.880940118079698,-11.172873425625703,1.0206968430829666,22.81787905092067,25.417130348027698,48.423996779330125,80.09283924220985,86.71517550612378,85.22451589234524,79.10305974539463,44.78658393149735,3.7007245070625734,-3.6744784214252446,4.594532329997781,-9.559620761793546,-37.07964696071889,-54.418409185439636,-59.421020313098026,-55.77381188414789,-51.55235657055062,-52.40911311751007,-46.79880463484243,-33.172667000493846,-25.96039973723614,-17.5876821926977,1.6952556594655306,7.926318168848347,-8.044573009877467,-13.939349052955324,2.025237387449957,15.59756836590531,16.011922076201664,8.95353534441586,-2.8761874214175833,-9.938880965932785,-6.3047420064557045,-7.528816350005052,-19.953134821681694,-24.811846399122963,-21.920439997517278,-28.205474812004727,-26.76970588762702,-2.8227548900679444,10.55838080074888,-0.5286483424726747,-13.011888873643048,-24.83497523107782,-34.4472610859923,-38.86429052859835,-50.38412721777132,-48.38361271449138,-39.497351104333305,-76.38950169779223,-137.24038754222997,-193.58883920225847,-130.1621625452418,320.4125245264935,803.4666273327266,438.84095485272985,-410.56910290727774,-482.99440329186973,10.90891153564186,40.24192224207881,-158.35446789528066,-52.93311148622384,23.0239452121209,-66.31020765864861,-46.89465402325,1.6919246490726252,-29.91443888538045,-20.418422963789705,1.8486201747915145,-20.68969376222232,-8.160261953168028,27.427337081914736,27.927370409745663,33.4209622419028,60.47220640723028,75.23146130079891,77.10369820394618,70.46816631051102,52.83373923386807,41.12516084367524,37.31387984616221,24.030646319184193,4.981869009058572,-12.285333839915246,-36.666173493042564,-60.76404759898864,-65.26497059019904,-54.79890600813084,-43.08895233448132,-33.56997852236468,-28.539932177299228,-23.407212739758222,-11.277796077631148,-1.255702093092589,-0.0012470629764766983,1.5493326230561326,5.771672406573996,8.265710257251428,10.842272556865607,11.020168968068804,3.9886248560417457,-3.7426200574059862,-6.748199636043642,-11.858303859121095,-19.98497620526013,-17.76755091333822,-7.341172053301737,-14.136708101602764,-31.73494987695045,-19.29659285068631,12.34966640177162,15.578513305290752,-1.2856909138759924,-10.805056403685033,-16.82098075047897,-19.02597182604776,-26.389204559484458,-41.76743931966291,-36.49317975922613,-39.2243469669929,-99.84483520677153,-201.8473682532169,-273.3572105006747,-51.14837103012775,561.5683962494564,814.230464271847,150.94606026141668,-471.5534303670518,-227.17895460509644,93.20666909189642,-76.60530126728236,-148.7010597346101,4.2363663204919035,-20.615744234111006,-87.96240207029138,-20.046482921712425,-3.7628232104508648,-36.414710174355555,-7.635878119057034,8.748630481385366,-2.3849580042705076,15.22709652282459,30.396447770971093,30.776794780485115,44.741659097673455,59.60129981681389,61.683094333613354,55.967850103672845,44.12982904613785,33.29021520967293,23.101533336325435,9.582125599705769,2.853371416932137,-4.145082095025131,-29.07352410644932,-52.05510052691029,-49.40544566034219,-38.905850642298184,-38.04621193308339,-36.80666156998423,-28.44803369954076,-18.649027322432637,-11.432825946075145,-5.793039706562045,0.6137164774267596,3.7535059580213463,-1.0801659995480097,-5.408969435077481,-2.0307310086351613,0.5882088075167111,-1.6812104448558234,-1.3359907264020734,1.707277719656675,0.3589105396864909,-7.4470141912939525,-17.052783387339076,-18.664639860085654,-14.890949326355425,-24.189104849735767,-35.43250098848455,-15.863846941586706,15.584237904821437,17.62334815110462,0.8891427418510354,-10.357947984896416,-15.16845045308067,-18.22416017087409,-28.632936837740594,-36.36162670711708,-32.66871469352324,-55.03359861680469,-127.35769119880342,-239.46708932083806,-259.77886020653125,117.85680766207122,716.3126537180333,663.2637100972187,-102.0270835958867,-441.43910414756215,-86.57586438021701,55.29847017906834,-132.63034104175625,-102.40601606407324,9.722037854271626,-50.59061530562802,-65.70795973552882,-2.8980957151963533,-15.33456162271628,-29.449382460556233,0.9074641086745032,1.9985182590523647,-2.582938269743985,17.533494682978116,29.079549961402776,36.486894175181995,51.43937403214295,58.24562491408057,56.867611365211395,50.62443915694009,38.99662740943932,31.498497508320924,26.235025256681052,16.51008760273581,6.934524631002669,-10.377576410832573,-38.793393724815715,-48.56660602022053,-32.421039867244204,-28.53555054786282,-43.79301835558126,-44.46943869901005,-29.693204607879913,-24.679878050874713,-26.62512792042908,-21.379925966589184,-13.871782317047604,-10.15120819303974,-6.043944720705014,-1.064434015670038,1.2317983743523087,1.2670194397474113,-0.2110432064482204,-2.8532340120000654,-3.1540401112743197,-3.4049483959054037,-11.971579567804284,-22.165846970157435,-21.821024385083696,-24.84746087869218,-37.89204315994671,-27.98371197627347,7.520078183417894,21.399041439572457,7.305573741285876,-4.981358229486116,-11.999271279979311,-14.943822681715762,-20.164908652578802,-35.340501809042685,-35.597675105242814,-33.11120359536504,-77.86200987436469,-170.3380959079788,-253.6429585644508,-98.51418714360732,439.746387293749,752.7952288204913,224.16825930364416,-411.7099758039749,-268.460494212357,69.71927641144137,-41.75003004522957,-142.78969344591604,-12.436111184096703,-8.829097641756832,-73.21117010682153,-19.5013583505795,0.5927999393772936,-33.69864508617354,-10.250259013055532,11.53917053914302,0.939982724130886,12.879637288600168,26.314057446401055,26.5176030143789,42.41929242981768,58.2911836888003,54.80438842160159,46.18701752383358,36.615100349110534,24.84673846814237,19.069324362285695,17.870942139171873,10.806475569796586,-3.752614044627729,-14.985179018038592,-16.92228842076797,-18.873345215867012,-23.608500903393733,-24.432364080206497,-31.976889755034563,-52.516018791242274,-58.93111007011608,-38.0476849862394,-17.866494912080157,-14.868451836703525,-15.408518733113286,-11.058747594580637,-4.41337254251156,2.912864288079735,7.561491060272655,6.688163198120602,2.9335116236263374,1.046050742156181,1.422021571281146,-3.3090965104050625,-14.962431550086695,-20.50405188578009,-19.275530172572005,-27.901199063026258,-34.658090466365444,-13.147365057309875,16.68086754589507,20.561350449436304,4.368888978066678,-14.192675271868353,-25.22077546513797,-28.4515697912357,-37.73188347932147,-43.53428471956206,-38.940417892827845,-59.848423430767475,-118.14559934765461,-200.32255244728864,-190.6589798641589,176.80561368413305,693.7736278631958,556.9776188840549,-185.92731688827033,-441.63058656488136,-65.71673077375496,53.192854387927234,-127.05679930175893,-86.86989023915064,10.786266044293463,-50.512136854112896,-54.352749548199675,1.5787832622771383,-20.819857640963185,-29.576665084083746,5.775636823993134,4.030307658146478,-0.37975323564663704,21.956047773796005,30.02465084866047,33.91201789758292,51.242832866579896,58.0463874840181,49.95945387521008,39.50361570323246,29.67211605085894,24.705931140569884,20.984639076696194,8.658169150836933,-6.770509613573639,-15.932812349232728,-23.20868064502098,-34.05963038276027,-41.79252073719065,-38.162493411976534,-31.117382339580296,-33.94264679549892,-38.12279922960724,-27.784764633032378,-10.279019339702996,0.21947164215537285,4.0377494687732955,4.9653323195223145,5.123387445311394,5.853417204338365,7.935876298606823,17.1285005160924,24.450332053506468,5.318921165027284,-25.376770077887265,-29.078612101746504,-20.422837647682837,-25.91964479973021,-26.202020192092057,-24.115453899914804,-42.05754691519635,-43.0983928040635,-5.675502246794455,16.226395289965602,2.352246993024515,-14.34101021690223,-24.32718298831005,-30.7965991035695,-36.756674183680765,-40.78988445852721,-34.133742748555576,-45.50158162134955,-93.95922376740282,-164.15556822541157,-207.51368691633013,27.36426424611335,591.0478030770947,723.4236417924915,2.2446397625983963,-540.9818377678796,-218.5359823977409,95.70356322882517,-74.79987455670523,-124.57448507889981,16.670001845268615,-20.861177700353338,-76.25604443730701,-14.080127820677948,-11.16912072312494,-34.325822143617785,-2.671346150402803,-2.8311426445273016,-20.315463468755922,5.681480106343789,29.568966639800784,33.81029155871406,42.9883569024649,52.28020224621674,59.891155917285644,56.79540056616842,33.115550116379765,20.241135907513854,30.442271585686036,29.73347377319589,13.443639483648115,-0.32088623541183736,-19.227969119359404,-40.674085157944546,-43.9947127864319,-38.38234451190452,-41.317543504019724,-39.20990698176546,-24.435804830605043,-18.537615324723795,-24.65282575187574,-15.298363720430656,6.871236269246488,4.281575716575816,-18.944467590654163,-22.46423222701418,-10.132963431376485,-8.313328734464047,-6.6298377320178545,3.2721052384949765,2.9110688546282937,-10.963599625271954,-22.11262038204852,-19.85258352518747,-11.973857871248793,-17.502936845166452,-23.855814011947633,-3.763234296809248,16.11352260644545,4.020529353143068,-17.296278147940278,-29.511375217620948,-32.07801224738198,-28.66522075733093,-41.72261334353527,-53.17971389680412,-44.343920780598694,-71.06093524388884,-132.20082019947756,-180.49071358793594,-141.62706208607517,231.0439972583095,764.8387611527733,588.2657752518776,-277.8491543194517,-568.3299085006447,-99.41319633162053,63.96638565961915,-133.91769546834655,-72.00125901147479,38.121190114097594,-54.45197060173421,-61.05644431682448,10.617353926911953,-31.105467664935162,-61.56267653076408,-18.033403859293962,-6.394674855502708,-8.350286357169319,13.479530058744174,27.061785423601645,41.81999539782605,62.500532652964445,64.36140551131219,59.56684272671717,58.74676135137039,50.616729569471495,44.496310506825736,43.022933729481366,31.389400720760975,12.939746082516926,-11.745796994290105,-42.62151442296647,-51.95613173292399,-43.178220784131476,-53.75983997511337,-65.5372865993897,-48.78565172439796,-31.40953896113743,-22.194283398146375,-5.946946467259462,-6.933945720798878,-20.684918614177374,-3.5595864573943405,21.445733965975133,13.353485163005216,5.0404245346722325,21.477101785695954,28.161513442370367,7.0052617265413915,-21.598113668542943,-36.939523656223614,-32.03316126390759,-21.491427807639297,-25.21529139970974,-30.801814012651363,-15.490880415608881,10.249067266304223,22.829596538159656,8.657860329984139,-27.272921198970188,-43.98197399410235,-33.743448999962744,-48.43764448292543,-63.85631716158284,-37.58522969412597,-51.44421488329496,-121.91107401882954,-177.30296412284906,-183.05979309476362,101.28242445748732,684.3185862557411,707.285807044183,-133.6270617239697,-602.5949803532867,-161.3027018770565,112.29397167193734,-114.09190823561032,-126.56287798748755,22.39427020731837,-40.31114260240269,-67.90180055474633,17.60633610398211,-11.533457153155524,-58.15032114115669,-12.048376155178817,-1.5314002747689717,-27.160402705904627,-0.7698870203394783,38.34172296601776,45.288576396192944,44.01326287733292,53.97593624064672,65.07996655213773,61.673697450221376,57.399916786769,63.3060545837962,49.34992429492978,15.416175012814056,-2.6610092728062065,-19.311627748872716,-47.74279052365988,-49.56438671948443,-35.67502251093556,-48.60067577116922,-55.925950709826076,-31.013429271450175,-18.68373277628897,-30.223385955115482,-31.160089029002762,-19.585318748800393,-8.266092567511855,0.9668027005127477,3.8809683046228294,6.468818314315913,14.915448504142446,17.955460038272616,14.128219640488112,11.907188369074182,1.7502448788659564,-22.010186653049107,-39.72554856224093,-40.4438536816512,-31.579872255048148,-11.482579910747251,10.292881897172592,7.435210282774044,-9.374197838194512,-14.333177796337969,-15.713450390265429,-24.39742962915288,-46.99998915939109,-68.36055219969208,-46.04884011060879,-27.336037386169636,-85.43042590838687,-174.79031989100355,-232.33943780627897,-68.74964261734357,483.7345192430489,796.0617521102356,177.02791907286797,-536.2699845546332,-330.1023535186527,84.79481447848933,-44.165229424689585,-153.15878356265668,11.283603671250006,14.701514551632478,-67.8748294180066,-11.532906126080666,4.030023720239768,-48.61605094995984,-31.325149260654428,-5.587675574032103,-17.971848402739887,-4.508719908414407,26.017333507750177,39.19939121428381,49.21460174661673,62.86681826182216,72.12478171413467,75.40838513891708,70.6051712064887,56.00772031703605,39.63603322340431,27.020048650244586,3.4051189652994025,-33.52720798041714,-50.28917040857849,-41.93780194580656,-45.31208914205224,-53.793922296112754,-40.82609810693425,-36.99915825487651,-51.19053856203682,-36.370233976362684,-8.838445742072132,-11.591143470948495,-6.865764928477859,14.100304618106048,-1.0787157652340866,-15.050389501491594,21.94434714077707,32.158770306311006,-18.302481297179966,-32.09597260066852,8.011177938895376,17.02857014653279,-7.027548022409356,-16.686534280180506,-22.732725122219648,-27.216349573867532,-8.486892079646667,8.902042524683164,-3.034866398105649,-27.426700223821246,-35.930828711272966,-25.83203457471706,-30.420828184305215,-46.37016715883761,-33.73154607964948,-39.65449027537065,-105.28567513379689,-188.34701770943343,-242.43629821226517,-9.433507453629971,615.19540493483,791.3483742741986,-16.68510275546012,-629.8559132337892,-235.60843042760916,123.58824066039224,-85.04098774301698,-115.7897323850585,51.17253273963155,-33.685278981579685,-90.94367590927432,16.350249369398483,-11.794473435942976,-82.05796260538013,-24.337754141660618,8.074510367241086,-10.112904971716812,11.862710614715661,28.325300088417947,35.28110576991053,73.55628909623874,96.57753937177363,82.4234059361736,67.28335301718883,58.75118615848022,48.549228863669335,35.477126630999024,20.97513669301485,3.109898782804687,-32.38891457946984,-70.34832234104064,-70.11045769982171,-45.97370998777379,-38.38770492939125,-42.19042621527865,-44.65010566281242,-44.08878341801104,-30.43169998031578,-15.518143027976308,-15.094579780554884,-9.836142040335616,7.417416181231335,15.680285319410807,10.882223580772337,2.5892226782360392,-1.8247874159480766,-1.5502929537431527,-10.397418287819999,-20.93812285605023,-7.162923091198515,2.2716173691681796,-27.082125536890736,-36.18953468323416,15.972459639835886,47.828409241975805,17.768975109525073,-0.387270271570884,10.272685108890315,3.7640078867082236,-13.17414312461064,-38.936984256836155,-66.08011809749098,-48.42519828705532,-42.62778877870475,-115.53274375003649,-203.764586314752,-236.56868465202655,-2.2960339951007143,583.8805837064225,751.038120139342,-23.2608186195164,-628.8412361045521,-244.03120468779233,137.46225063411325,-61.21976916542085,-117.706859362359,52.113689036979174,-11.729065996614281,-91.75944951549364,-2.6352441959051554,4.8543386141138605,-43.92828504765607,-13.269387771666864,-3.6628275188615547,-20.898756330427286,13.99987162528857,46.875785022225756,45.33739885363363,56.484671945692924,80.72601590471874,88.8895822449646,79.7546034937298,66.16233221455548,51.39468263356103,28.164929435253484,0.6020319342621736,-17.716258489684925,-26.695242263432423,-33.2476382421111,-41.075520060083704,-49.92953407089876,-50.810010837413884,-40.2932804622304,-28.126956246707625,-18.40988213529672,-12.02503288501591,-12.14959416546801,-8.643701689957194,5.885409339012307,16.395019812658067,14.599028110991341,11.708704435480907,13.655604801242937,16.2123088140608,14.034747598987336,6.552570117459606,-1.392624029532037,-11.4156830260285,-20.814746957573053,-14.961737844911113,-4.993700274951711,-7.335688661489652,6.737547915408394,39.7252931793741,41.66849816819877,19.290384504343052,10.360529380118386,2.5975686876963238,-2.75959941339417,-3.4322366892828597,-29.739261994643815,-53.63388452921805,-53.40087751856798,-86.18292323785718,-175.44560055313977,-288.2604666787529,-202.85966386746537,355.25187708480576,854.9853384236301,413.0717592437974,-404.8499805858129,-391.13297376794947,51.527269765916884,3.125670371652065,-163.05754658712365,-34.1669808346184,9.834691995270852,-75.37599192174419,-34.415492419600625,7.611370687475169,-26.388996749391033,-9.760265727623043,14.92207511569554,-2.6870375460625366,7.524514906527627,33.494854338890555,38.19791070561845,52.02709082968212,69.72702239615978,64.36046051399484,52.89557073981963,47.09615669238623,35.1009368309018,17.52490136358241,1.5506568459003978,-13.907626064172984,-26.917036954762878,-31.787524133988946,-30.5896134598893,-29.47639711779071,-29.60921082169768,-28.52128390165754,-23.95240256808038,-16.13402564622294,-6.896809992772149,2.480925997524267,6.731717981060902,1.3451185927383342,-3.298081707227219,3.873222704772381,12.371386581625753,9.833024187137909,3.9765596400555374,3.0096628455917926,0.5170972861183785,-7.221076398712338,-11.600817231752318,-9.792100437273945,-14.519886854594594,-28.056572228672152,-31.618191995737202,-23.43407850926065,-17.90898161259057,-3.564746728606691,23.034886514899156,27.953132960069514,8.243336421974522,-5.399164364489756,-10.257801275882798,-11.931741640822672,-16.971042301111147,-34.000791808044056,-37.038807076902785,-33.47391848019869,-76.62014459365847,-170.70531268083516,-287.7896037299538,-218.06379311800262,332.25073945101485,880.5398139092929,519.3985099613245,-304.109119572092,-391.7337183443929,-5.962491902202881,-30.546808461118033,-183.0678561847696,-61.480175951207485,-6.625210484277574,-82.62905560459625,-44.258201737019476,3.520105157487258,-25.114344358065942,-13.34333811775796,9.463085022101088,-6.043743970517149,1.646256960312259,24.061750874790118,28.70808432970788,42.19389886332077,58.840298867464114,57.798424176168844,53.269597961837256,47.29662539900662,32.70680176526075,19.941318522045787,10.20151670876826,-4.346576313929486,-18.671076928525068,-26.986838825198284,-30.18674681912057,-28.607601502602982,-26.312437726295112,-27.59463149040201,-28.265514239223794,-24.124247960304025,-17.129373869384658,-10.335856361597653,-5.248012548851818,-0.32321386888539116,5.13508701143461,6.597805887333768,4.438051464481694,6.466231614945574,10.992703383656949,6.803504899140602,-4.968327966714597,-10.66577779914896,-8.726633998794519,-10.07129025272818,-15.949693900710622,-21.774346975739682,-26.069996977565935,-23.178581764515844,-18.577411176109326,-22.48953950359517,-11.976484581178397,22.49986563680401,36.42301289878631,18.543643670067823,5.195952147886021,-1.2980578046784474,-9.309405791248862,-15.796487070976966,-30.30843873928989,-39.784610170252144,-42.535196048979415,-84.96032554612212,-189.9802625155614,-302.14336590056024,-168.7065943380852,406.3463117119302,836.3767287426938,371.5021181947993,-368.6322467651018,-338.0215861960192,32.62762362278866,-31.65763798485576,-164.83886987820577,-44.142004875512974,-13.054009580303997,-83.06200059460636,-39.28940230836591,-4.276730471928293,-35.50318005382238,-20.255313176634637,5.105845561259734,-1.3044140329519243,9.426234638738112,25.74629108548907,27.819652523872854,38.11148023875383,50.49636751629073,51.278240475357244,45.89064483436408,36.0044032997533,25.53886213355135,16.538987644166383,4.17498638476898,-6.7884920395806505,-12.131549657148632,-17.57242063284225,-23.803750853498066,-27.936479225993125,-30.5678392128131,-31.49804169483623,-30.65125397649865,-27.371763556310835,-19.975393357166475,-12.547128675085663,-9.757046529416098,-8.369155677916698,-4.988015825787723,-1.5261538044904324,-0.6130287430175088,-2.879304074766466,-5.911280100392043,-7.154263429897197,-7.247286674895971,-6.45972296923787,-5.150053394443976,-5.7168317099981465,-7.118716593138842,-6.588215155078906,-5.727427223666602,-7.723086841401141,-12.46684260232542,-12.993892991422806,-6.64186791227484,-7.465037786794294,-15.604504393200564,-7.126119133517291,12.632402984202008,15.28387943051959,2.4921837961707247,-11.404106893647457,-17.866650675308573,-18.873699344054295,-40.62054461540759,-70.68012272380365,-68.20344613604621,-71.89095282733723,-131.57435906191333,-224.39465474946786,-224.77083174885504,133.3771772415316,717.883007935838,705.4693649473147,-57.870127678199566,-473.8052127432096,-147.14250598262788,41.73349245989822,-132.3593568237796,-121.87947886968007,-1.7114769279141058,-49.55408596580098,-70.62696077051775,-10.057030736471733,-19.03310306700896,-30.543265147963414,2.9228170570785927,1.1491177597826718,-8.796353857023707,12.604753342985653,26.369615191551567,33.74496976034459,48.58295571392128,50.03139495216625,42.40204309327249,40.52583384965815,35.31070541653977,25.6636436755295,21.505048509213992,19.093582991251434,9.401726635783444,-5.3343680254028705,-16.14762519157831,-21.263140210374292,-27.187670557824553,-35.482199162509446,-39.4898179652715,-34.82554303698105,-25.078641066660747,-18.573322117455284,-17.866442303014136,-15.485826426020827,-9.859923468552578,-7.563814149950815,-3.7401869693948466,5.38371821016046,5.688416978976106,-2.688399568373125,-0.8464936698774501,6.671522733559083,5.84720617057707,5.406589619914637,6.916711942803696,-1.2679141257071525,-10.98653332533946,-13.271010615546427,-14.771541238939697,-13.557383107164537,-13.81691384673855,-25.012898279272683,-20.436302125872004,13.547302587608655,32.63907067173059,18.257542944829282,-5.866594791267428,-34.120549724069974,-52.81647270510716,-51.841942549027465,-55.89423974432397,-59.59967031823986,-56.58409034046897,-82.5080363398121,-144.1115599897737,-213.99846503317553,-114.40557977406003,375.86428348876,801.2439501323809,396.91129076356833,-363.39242157811077,-397.5794591923754,1.3415121909196142,-4.187948394638283,-152.17163019477067,-51.773336843435104,-2.5709048253757913,-73.90692475354444,-42.46469978992454,2.1448065910152856,-29.448100713559402,-27.456239320487803,0.7383184979712949,-1.719783336868114,3.2518706058685654,21.400311407256574,27.88666839143676,36.305021789117134,50.358428514365585,56.073705533824146,53.714530360004055,47.46069657844289,38.180845395017045,29.15029368821419,23.395838276164096,18.742668478205545,9.859392432485684,-3.1752630949151057,-16.46193143881949,-29.493740251988303,-40.14205205395109,-43.130914758308336,-39.65561490528453,-36.87124666665917,-36.34839879381623,-31.59578605004627,-19.29305172767666,-5.445526403252575,3.2987111219043292,5.440112995529898,2.3628475456708014,-0.7585923340925405,1.1952622975725191,5.418217517161535,6.628113656671133,5.339011765142207,3.303228545179927,-0.856303745691509,-7.680271222813847,-16.32541156327498,-26.427951951760548,-31.706654680178822,-26.74117295683957,-25.776023965907182,-34.27227059935775,-22.16268147143561,12.328096224188563,22.70936283467717,2.3053364143879627,-14.67726067049519,-20.489078265630965,-23.2311260985659,-32.64989112819874,-47.33383381458481,-45.92513010857748,-48.864128778008606,-90.83525851505271,-161.42339811232844,-206.8399281942932,-2.664540701761723,540.1942085355166,767.0594717544295,159.93013824538968,-451.78253488819564,-269.0554965161476,52.73481541740904,-62.525734634981674,-140.17915402468108,-11.351575834672033,-16.406096432050532,-73.34090231920825,-18.137276632726362,-0.9068399510447307,-32.005381003262386,-6.144128079158815,17.826027137694215,1.4915242622240221,-5.716647103753226,-0.3069676189940074,11.189225933247634,34.693603747055,50.551126619615104,50.3354061073412,45.75298901238373,38.94391907359278,32.95087152601746,32.20992232953954,27.367690512413155,13.131854827723282,-0.8110706475988239,-11.984614424861235,-25.82852821210092,-36.50280743168,-37.78852199628029,-35.61898459282203,-34.54674600105406,-34.3655998096742,-33.2547013547843,-25.223220221631408,-12.279039072432507,-4.306618964578945,0.21802931397829006,5.405453773221428,5.940988841067686,2.8977100212620783,1.8678464000585233,-0.45279623939841507,-4.775410836360168,-5.962151964531568,-5.493450074614746,-8.526133401086543,-17.058443920285374,-25.182962787693555,-22.011374125224364,-16.837406949553475,-26.459342934107926,-28.5328373516438,-1.1064319016291453,22.155011219098487,14.606663011124919,-2.129655473988022,-10.935687532095034,-14.817590609515559,-23.916637943358317,-38.560922664719854,-35.613646922825446,-28.945055349227086,-59.4011420689883,-124.5754381230536,-209.34537283133716,-145.75040944402,311.42925718478466,749.9082325498648,403.76493210153603,-325.392582655467,-388.36693637360224,-12.654109097777296,-3.2606671509324343,-143.51604124971126,-51.70259750092299,-1.0689012691659059,-70.15420238293265,-45.661359588332715,-2.060837944684007,-26.323259126393765,-21.428282294035128,0.9165737162680809,-7.504575127166592,-0.6428165901368461,20.246907113363324,25.61044930324517,37.96988593502219,56.48144283040397,56.985439775954966,53.25558792964798,56.320614014314586,49.60586142831978,34.33602987134338,25.677670705533068,19.884378360082476,10.501250960627559,-1.3505520157271258,-20.28609667509577,-40.41056774802269,-44.627942627590784,-38.12947819583487,-36.65829226452178,-36.65292308751185,-32.797036513129825,-29.718272985385628,-25.520507260901457,-15.192862391375119,-3.628163728137846,-0.2213437007348702,-5.976523430968157,-9.443890943047837,-1.308240806755716,8.920090849013258,4.918881890766748,-10.425808048800604,-19.90028970662632,-22.501556534302974,-29.270033780603328,-31.875124180547953,-22.946931522040828,-20.906030314573762,-22.16637485476307,0.017314955530899567,25.42195090532286,17.427708122955007,-6.555191098233674,-15.023866250142508,-12.955159601275287,-24.39375681623735,-44.80508820178542,-40.58616010514109,-34.872270440681575,-74.97308736984513,-140.10702681484125,-217.60106443810497,-163.20491701993336,302.20222955958536,787.7909644576587,437.6683304111433,-365.7773468264984,-443.4897569415375,-14.861674069023067,-4.280341924550882,-172.43188450671312,-61.82194299021418,7.17093623073751,-71.40403306306831,-43.92313815311625,2.583942872872427,-37.76067394566667,-36.868680317335944,2.9436879840732875,7.810195529448782,4.787433498873011,2.2196152943839182,5.803472626976154,41.21937645997585,71.56823215891235,71.35966108714705,72.40250841433954,72.38323024731018,53.303437087218555,35.56706326416724,27.755641579144935,14.329686463724148,-4.382040705956642,-21.16608018107516,-35.704744693551746,-47.25689786874483,-58.775323048005205,-68.18019549637259,-62.051186606565,-42.376991212017,-26.489462420437444,-16.25380071320061,-8.118152600168017,-9.111755151051874,-12.386824438560414,-0.5426722059129379,15.790946713105292,12.508747071974522,-1.9232020146410136,-5.5244226388930215,-5.879814282466558,-15.156234395405281,-19.863986645664994,-14.360171079123909,-15.538822725120454,-24.751850681656403,-20.788318479140322,1.1276147296250585,16.769352905602105,12.205087408345861,-1.0898690552023567,-18.487790341426727,-35.17205857881343,-39.542492941574835,-43.13347073056281,-45.91837161738571,-39.527679023460315,-59.86573681243432,-116.17325338399932,-191.6994189740612,-203.1094796824789,148.04244155901904,756.8215347013587,706.1403704915086,-159.91214250864078,-569.9425194397886,-129.76544876234408,89.13606620925495,-136.24504491712378,-130.28898742598003,5.347680045018947,-59.38331562671989,-88.36358447185684,-18.43236738017233,-27.861556453621652,-44.200877712925134,-9.08310027898097,0.07790898512708111,-0.4146342823593727,10.37663440486604,10.995519698312545,30.069353158051452,71.13903575092573,93.31183094130313,86.79791611709143,65.02357331319578,49.44165985521091,48.08927215883814,35.86804116982626,10.865788873281879,-3.84245589839775,-20.511162164018188,-49.546938304351684,-64.42454799223322,-59.84053692145052,-55.61879355114622,-50.43298483206208,-40.71329995245924,-37.08078735106915,-34.00233055863664,-19.940133712678197,-7.426785220053844,-5.114194484739958,2.0181661794701427,12.879669792986137,11.41309788378975,11.402487734005966,21.98168440810253,9.22883878057408,-27.17507497191042,-30.950202236432393,-0.5684021039234857,6.3329073753459255,-7.93975667283425,-0.5615807715619887,14.043225887977929,6.716577423930353,-12.263317226181059,-32.06043717473949,-39.19190524292113,-30.283022455536177,-42.46353354703637,-59.579991697541075,-41.81371814792702,-59.55696070667131,-141.002333706016,-214.68625444416602,-212.78763615475114,105.61599833929637,715.0191493682662,744.5439202895925,-108.26189541260524,-601.2379685407236,-172.5486665885221,106.50391266859818,-116.04527336407651,-127.93648730027576,30.05014474654063,-32.27876368238218,-86.24789967106511,-19.120926589091745,-24.909090852730664,-47.98299992556416,-16.333060954858826,-16.93381196033477,-26.242742961855097,4.232892675970422,32.37871033411044,50.32791643172681,72.11813999561504,85.03952724393025,82.98956879669898,64.26384443269271,42.94164163142382,38.31108193231842,31.255696451978096,8.77429895925363,-8.351743883233432,-21.359606167546296,-39.689075585802314,-47.08292076974323,-44.7399463927287,-49.4245912190235,-51.58690097640137,-41.236213017581875,-27.119001065544882,-14.48693061912623,-8.670233315161916,-9.362601603140847,-0.24155569204294736,13.140972349280688,6.330792801569212,-6.293979340577666,3.2493123439208667,13.584202346643355,-3.7280535097574674,-21.680016845855814,-10.857148059640867,-0.6278394593116978,-10.048474057522771,0.8833776872365657,34.50315750674967,36.70207186355108,6.6354483086254845,-17.62077012877335,-30.811784951401087,-36.86578018411478,-42.595086554655744,-48.82205317560711,-44.02306798371624,-61.172378929540635,-129.06419029712558,-224.79438011760692,-256.39981093138005,52.21947848215427,669.5124667290781,753.0181422764991,-25.049084404441203,-528.6363848101565,-169.12261052793474,97.93799040240944,-104.34746328899085,-128.31070637206966,22.40283285716872,-21.427464652401653,-64.3644524387882,5.36403817941005,9.21133715724066,-9.776431182911736,1.2643586191429144,-28.267871675785923,-35.39301789556794,12.97529676404259,26.593633716356216,23.152695797301156,57.36716631618842,80.29967664010388,69.77697242894547,61.747240887901015,52.70853929317043,29.159452035690165,9.855474637408317,1.1933271693136804,-11.415389650638682,-27.739635733623683,-37.84742191735335,-41.14256410548633,-38.351376750315396,-34.4393375753395,-39.917032822032816,-44.74380342792475,-32.097056798350096,-14.193543534479122,-2.5900738548549587,10.241949127075998,16.02953905825861,10.98255538723716,15.863961326010998,21.74020027446487,3.554682961131558,-18.938754768889623,-23.499640529291973,-21.01778876770419,-17.697892796250336,-16.27245273315852,-14.451191856507855,6.955524184372386,34.02503120194707,29.351626014637176,-0.6128029240011443,-25.447483930931597,-25.96551770125417,-12.692236069763446,-24.612420628711213,-47.451382509931065,-48.1383182240844,-71.69872320087518,-146.49492987726063,-249.10231151247706,-244.69121536717927,171.55486243355335,774.5625710756705,641.9693986563805,-183.80697246915926,-462.86296942066235,-52.71137870547669,45.72586352804112,-161.57395015543696,-87.0157360222762,29.312604987714963,-62.61161249543568,-78.8014367071325,-1.1051096193925805,-5.3028586173400925,-14.705732911474488,8.96665767378125,0.44552587555425305,-0.951641994228642,23.135580592485088,32.00586245632969,42.684335542970395,65.34559709039921,75.31365028706045,76.86539128676148,64.37428699206916,23.688653384047235,-9.66130763547256,-15.397265561626279,-20.765476790418575,-21.729757409594818,-16.127735659577525,-39.00066320615076,-62.3216477898524,-42.07414860425443,-30.537246888642464,-43.85289850110896,-18.495369459386072,10.241907199541505,-19.35307835496229,-34.43892190710061,5.273935226600582,18.781084165344502,-3.6896018441963676,-0.5467945017037623,13.910374038711227,9.945835393997006,3.3435429545001814,-12.314389974112402,-34.0852880069587,-23.36792646280713,-2.2456144800114384,-11.693308275759414,-6.456101467248848,33.12848237276644,39.443133442474874,2.2418246283510754,-25.787652643259463,-30.35445350968225,-19.237770025980545,-16.606172210370733,-37.75506210402666,-40.83163883976784,-35.55969542930202,-88.81589847060984,-191.43752387444533,-265.12928694826144,-83.22819464035186,481.5888887539333,795.8094374433233,233.7713175124268,-436.4792583565083,-298.3166500969386,55.004230917009764,-38.72355853060457,-135.11866261725075,-18.92513655579507,-25.725044339175,-84.36995032595335,-23.606213917430672,2.9074401945360613,-24.988332124850363,-4.336049758280952,17.658950831395916,12.394119144694026,6.985074027861788,-1.485946141794054,19.3001384638194,66.80264818423963,68.41295261153635,37.071375383466446,38.18498456286929,52.37796839429964,46.07962029428918,35.11440523174541,18.501962829271505,-10.445814288591713,-21.33922797891017,-7.96215376496019,-9.31505389514457,-28.206783446479385,-31.871407271098107,-30.742260285328648,-47.244757806416,-50.69803182237301,-23.7292812122458,-10.065692201404602,-25.124229667167985,-26.141302065008134,-1.5686910598438395,11.330815975941071,