ECG,-3.774758283725532e-15,-17.219166312150765,-32.50301767885166,-46.47182625542156,-55.43394506999226,-53.84681671831778,-45.54972971343469,-38.20544365959393,-32.55532840941979,-27.70304324272239,-22.354144004588107,-12.447352270293417,-3.3228267027348792,-4.734102855599801,-7.997176163539098,-0.8066192399921341,6.584345777093895,3.545022271207502,0.31408846142537783,2.80767139833147,0.9519673096334778,-5.8120792039076346,-6.077468190185615,-0.6312756499550112,0.7726268439783919,-1.4752976713243893,-2.000379149330465,-0.8611811893583479,-0.0905940558406293,-0.7559143366503207,-3.668105178582236,-11.395175082476431,-22.03994704132849,-21.46299177873918,-9.718482092952303,-9.671740367420941,-12.297410546117588,13.452042111180134,43.30829051088199,34.43161566688839,5.869404339616388,-4.831503588523439,-6.029871293782392,-24.095205815849067,-49.329858580916124,-56.49888238742008,-61.689562398884995,-76.1564648608719,-75.87118001398869,-89.4594432355417,-157.30312478925183,-240.25214788219242,-216.48896646493392,160.3168294796243,823.3508733717248,946.4476492224553,150.77046631602718,-491.34078466589665,-261.1173008936364,17.133317580851337,-142.56263249605658,-184.50939570915997,-35.9690971738605,-54.56864089273096,-97.51199751921598,-28.462422460393654,-18.096168659323517,-44.04802108207166,-14.83748096305068,-4.2596206042485445,-18.13930624701183,-6.98614706360711,2.753449176050024,8.051047172470701,29.23381734476885,48.362290983125604,59.315304995098586,68.28439275555999,67.91742385784474,61.70984966751756,55.88692029704986,46.39386882238962,31.792843982570172,9.561366398468902,-16.61901987286387,-30.962210530270585,-32.67533477981191,-35.3194801930737,-41.55103513092409,-47.29068160334896,-48.690659888859656,-43.7076892859566,-38.06892617632018,-33.01030657532388,-25.081935200593357,-21.678085513725645,-22.24692334045708,-12.59557652856337,1.9196364217301394,5.431359295578556,1.0719074947612235,-4.295891873319494,-9.03522142667903,-7.063935680905541,-1.2855831437961847,-2.403702210162013,-5.788394247234809,-2.4137239147292213,0.582140900531634,-5.138070989099759,-13.344551635635135,-13.96183420151846,-7.998813314840735,-4.894477355261483,-6.381101858480076,-9.174627537555896,-17.872364685597127,-25.735188462948237,-17.196947901709038,-11.2530983701009,-25.108690100646616,-18.585866659614275,22.852648155139292,37.369798733105085,2.2094912991836715,-23.927413022433743,-13.184665871386528,-9.579248963556015,-33.69615429207398,-45.391085728196614,-41.71963865132647,-56.690071414655876,-62.14194938185183,-56.50581981761954,-108.20793031654834,-198.1891210405704,-239.90848722765398,-59.12872116464334,527.5891092125894,1006.9710262518951,520.2785004277522,-413.60700943449933,-509.78913922102987,-41.510011409880015,-19.815613418043498,-198.26980229874817,-90.12095596868357,-17.006030593002762,-85.6757324131267,-47.597921207884475,2.575788912800167,-33.25285798415854,-28.23235439877287,-3.749449406558158,-28.80335983480408,-37.193624314780145,-10.500956608866298,8.546498965727608,22.623637630752494,38.04132592381841,50.4527113508273,66.93013115881934,81.33174330384952,78.93576308161218,61.71620705368404,43.14392136050489,31.316293121112807,21.100785032461683,6.656098395065792,-9.048062117834982,-28.986272424366938,-54.08351711762216,-64.26812830802946,-54.11829210269421,-51.23554218496302,-60.78961730438172,-57.591904304274806,-41.14646132474378,-28.236544688883086,-17.838450641231454,-8.146404810774783,-5.4839337839520965,-7.408531428694857,-8.603792337097389,-9.21779656439086,-6.232945897100429,4.634287441091315,15.276463274874715,10.799931290312493,-3.41525490073413,-5.520615568597858,2.779406794928864,1.0583619000247744,-7.732950813573099,-9.134899475082783,-8.611523079273383,-12.233556322404318,-13.463912345902507,-12.80622083674346,-13.547288171324919,-14.598613511846565,-22.624027795411084,-32.29328762889121,-20.094717204922276,7.009655702259577,18.46062037619811,11.240397509023069,-3.3025821842306833,-16.68698543283226,-22.44875554470355,-28.97543121501854,-34.4909799702783,-36.59308185380392,-55.53436822162863,-70.48347254755716,-69.33025630328288,-110.37475777591251,-184.7615355078794,-231.14153526791563,-114.58301972684411,427.7456000869594,1031.260940694609,684.8263615260689,-353.3194722942465,-605.3986607980623,-75.28209309272302,32.2390334252511,-190.66157154344094,-86.92832522536507,26.356261438568865,-82.61168081960068,-84.48038014353408,-13.96186792880583,-48.5877900234605,-54.0499826368397,-6.659257154014164,-16.269492268210612,-37.17141480500365,-18.356515376997383,4.084055098768967,18.66538654213837,34.52250492827602,55.243804235381106,80.19963605514998,96.93715144574392,102.51193305779802,99.06695276327852,79.49101714487317,50.30246865300491,25.042726563298267,2.254794190060647,-20.78902219508743,-43.48082685708474,-65.66710694652961,-77.1899790143473,-71.26729253612788,-58.97143933491314,-47.387492430746605,-35.82676974727604,-31.564207777846015,-31.561804221601555,-20.404938312919406,-5.2133999007119805,-1.27935524637007,1.1675912782387208,8.405000700894458,8.954959417062675,6.736489762936333,10.728010458700918,11.189686803548906,6.9931132219083345,8.826104213893412,8.860285847387185,0.4038153718613158,-1.6508420860363708,3.688253671649682,0.6541016940039608,-6.31875119784568,-9.887344781548062,-19.444347231041675,-26.451530812687892,-18.164029274343044,-16.929110324531514,-27.381638661417213,-12.030913797597268,24.90248500571657,33.829194010330525,11.164253785112905,-4.371947713896745,-7.3038251689004525,-21.011398271222188,-35.97000280648713,-34.041573041000575,-43.9779969613013,-66.74540842395848,-62.03144303959652,-72.15859982923516,-146.52880736099917,-233.77813305820135,-219.11039098628436,147.78525198642265,831.0082147909706,971.4179670303536,137.10804031561264,-538.249708984732,-276.72761262126147,26.298058455243957,-153.38499419237823,-199.76538846250787,-36.427599374344226,-58.1232329620323,-103.5361827043583,-27.07167006961273,-18.994599207002395,-46.13213312462771,-10.27754435578778,-0.9221843648016765,-17.088651951495937,-1.2671442583964878,6.924477315185538,6.289906917552324,28.00045020671466,48.341953110165804,60.35538483844167,77.8112123349025,86.42615979402964,81.14442467604961,72.13253622834418,56.99709992011448,35.819256748390245,13.404745710087592,-11.014524339576855,-31.389758926358372,-41.20301810925989,-48.595665944594955,-57.30391610939435,-55.52970552092737,-42.28627917076566,-33.57491291608818,-31.747721474781628,-23.900131108250118,-11.42075867976142,-4.469449831280983,-0.6487632295951951,3.137675040882736,4.655538755225239,7.939399525530338,13.00885187666308,11.857991770635298,6.319104617807491,3.6964777040844004,4.244880697332171,5.832495673998764,4.821043583636501,1.5287657351064865,3.4690574120913698,5.571475918616635,-2.396550050586285,-10.16828467338029,-12.223691560090302,-19.01022876959619,-22.43764147969197,-16.5048825317526,-18.150875219143515,-15.27434804955067,16.680929104277137,45.144732473005604,32.05652958104748,4.9520416639456455,0.8493990630878256,3.8062224016238275,-12.74149095679375,-31.051561512918376,-35.44396308700721,-50.688608274310766,-69.41620926451964,-73.01117179815078,-110.54788477110564,-195.04454926877267,-259.5106748373761,-173.23004784309597,283.03129201281433,894.4723744318187,814.2237567670795,-30.35592798138552,-480.83166375947684,-169.84259905520327,4.956034940934529,-166.57340549916034,-147.81202771719214,-25.34054852199222,-67.66400836256298,-81.13741066454077,-16.39869603572269,-23.727306517331968,-38.363775151995554,-8.118327120302126,-7.317651750963287,-17.843876931053583,-4.860670611051554,1.5939606738660377,8.445389022899583,30.294017947637027,46.20515659653321,58.12030935137432,76.3033268987725,82.06387256925834,69.1665319299226,57.90243321188464,52.05860978111972,35.94057560517263,9.061058343870872,-14.93472130971562,-31.530289682299966,-43.19258902295063,-50.155395261651876,-53.47792451426448,-53.54223357712701,-47.775291121699745,-37.42459867868265,-28.157767103521017,-20.97966624507711,-12.626872124866996,-5.800596043814316,-5.464161993468625,-6.287357469852974,-1.37052916016248,4.041227771959278,4.153665062876964,2.4985882064393277,1.5732851596487762,0.6882957371982261,3.4133736319979437,11.712212709538822,16.198336938047035,8.341432147537155,-0.49910451526463184,1.1598406801149856,-0.7353405036856948,-14.693229926413977,-26.369872366432936,-34.45408961280862,-41.12249711564906,-32.94957357340407,-19.609545691773338,-13.430634609605201,10.867312276291033,43.70078164824059,29.36508631813599,-17.17809513613669,-28.265195034102693,-13.212130857954875,-22.912524544123023,-40.912983389136535,-43.35585669801252,-60.408508742635384,-80.04409585385865,-69.66480563258185,-85.6186573039794,-163.34835289097714,-245.2338746812593,-189.32798426640227,259.50567301279705,904.7504454770567,832.0715572557527,-78.82994813933345,-565.254699236952,-188.1769869210558,42.07056936250549,-151.91278118182248,-153.35042008244113,-23.50834764681754,-70.20162167576001,-85.64473801424536,-11.69984948873852,-23.10472264495523,-46.768252223646584,-15.350681885682853,-14.641521692048531,-28.3743085175591,-11.260267147268102,1.764288760760754,7.38498472706972,29.126465803647818,56.11128481065782,74.75770467730358,88.46299257708912,98.50420705504673,93.11951101046628,68.2927903370769,44.24430224238199,32.034041489902684,15.330171279416495,-16.233575240680292,-47.71327638684615,-59.23343128780414,-54.8881329325215,-53.16199548462276,-54.39974056056801,-54.274933586839424,-54.86767411389022,-42.621170096813216,-20.743658190823098,-20.267583368468323,-28.628776983298515,-15.754469283606106,-7.442324335164294,-15.80651814744176,-8.76164011834432,2.46690660398135,-5.640361778848046,-5.453143126280818,9.113227863310751,8.54796573255009,-0.16169726237799864,1.5029906229922965,4.357774260392322,1.2509820996692511,-7.151043300318268,-18.48409736192763,-21.443850141742995,-13.483931497838732,-9.713746062507873,-23.942792086794135,-44.6820549076863,-36.19561889906175,2.0604448412812886,19.268291668666127,1.0041526682615363,-12.91011767913929,-11.532013399900904,-19.8859529657626,-35.60404035996686,-35.996338674016286,-39.684233364635915,-65.7800406131914,-69.89077290362847,-59.317111598058204,-109.57382824769587,-199.45484327438677,-263.43886007784454,-134.960940798419,462.49765671870654,1071.986816238664,656.1371812146979,-396.7477918941079,-591.5759043853137,-56.6281808584616,13.283662120892405,-206.1950193615189,-92.16368356033938,8.809676879973608,-91.80226454965205,-71.88088242244808,0.7552284855127489,-36.38614028402161,-42.51022831951374,-4.882439287974078,-15.299627472256557,-22.728973445320285,-7.8986418619125605,-5.717321388276187,11.549520276449538,49.60568807892285,75.07534243599358,89.5864959516567,102.61391030953604,107.14251162545762,99.83755748886671,79.93670013849466,51.07128967540255,20.357963078582344,-10.69068031555955,-36.92427764046319,-53.699438505483926,-66.5137627023804,-71.23227860160786,-62.370277174913554,-57.36361129208433,-60.438682094687245,-51.27734560151687,-37.52696599672853,-36.63433606244462,-29.47685211267389,-8.296920958847902,1.175440978938589,-1.680590514616295,3.111883134707865,12.575270331607097,19.31879417660609,24.91131361791546,23.538100785813775,14.70440074624807,7.706250914477897,-0.14948018742662583,-13.368932710978747,-19.478663269159057,-11.094121901614066,-2.5145314831914636,-4.844667959820185,-12.348050125846786,-21.19912023781857,-28.618349165753436,-25.73131725640662,-21.669079377096576,-27.976329467708858,-18.14718752162814,20.00677675389011,41.79497922985901,24.254889133385667,0.20499240706162247,-8.693663293836977,-14.819994638127245,-27.19437252429244,-33.66439327473253,-36.32266823987875,-55.67882487770032,-68.95851801002034,-62.43748764364889,-95.9424111728683,-185.3450202208025,-266.5525860060613,-163.3614092218102,381.6229590511382,1011.3761447529673,761.8288000416591,-209.17064976559666,-549.6956230475387,-122.20658415281284,11.674457054003792,-183.09864500027817,-120.86436391782742,-8.144983576286435,-75.60328884218039,-74.2774257395065,-12.908140439890072,-35.338354195319944,-40.28219847015126,-8.870131135071702,-17.959479120821154,-22.360800191222772,-3.942584872408185,-1.0100031956114455,7.501840900910846,32.783710109868665,53.250207043660836,71.29539105131865,86.3454035735626,89.47340301411076,85.80521795245438,75.82122493986571,57.23173484153998,35.53498947441021,11.694630276763576,-13.39201930153679,-34.45742642699473,-50.25447202905945,-58.47556708903519,-56.971810288829985,-51.64233019960088,-46.12457895694798,-36.420949422230095,-20.97482231742122,-7.917361761823052,-10.405837097827966,-23.634931546196533,-23.599663774245315,-9.25602958066047,-3.50520510785962,-6.574105800387898,-4.004656400637236,0.5807592392605763,1.201192963340553,0.9561618309067335,0.4979413287091532,0.9564323188833299,2.250797913292928,0.6166485723390629,-0.5718647798134544,0.6819238372041951,-3.1620505931082867,-12.415264301219732,-19.565991042560473,-20.905837695402308,-18.296768765924202,-20.685867796388887,-24.59576855325557,-7.316044272013627,24.542386474498286,31.599037897307795,8.936696898449433,-8.854196411653616,-9.809406970280207,-18.071643213708327,-37.63345825565544,-40.81761061185412,-39.99528916084181,-61.16133702202704,-68.37498278860342,-65.97250374451318,-119.86656012774905,-212.41578659512632,-252.89263580096713,-38.045656668814786,577.2003748486169,1007.2909001325894,482.89977547454237,-376.5196240200063,-423.4719678131113,-28.185840635094042,-53.622231937824665,-195.21417237100673,-79.31957666781543,-30.041554193816424,-92.26860369739022,-48.48189385099971,-9.95592827306628,-43.104969800698015,-31.243002715812082,-8.936637316811954,-26.021756689248832,-24.16660959745318,-7.938104983961508,-4.944428495661823,10.002673834996362,35.19095865093868,53.32418794991371,70.98664936028841,84.47361546007838,88.27817631185107,88.81319152791765,80.03242555935589,59.25463809163336,39.653061341483934,16.297669096010264,-22.678008853901805,-57.446579981332945,-67.66515839083382,-65.76538157798599,-63.51931399044899,-57.557744239297456,-51.36229937125259,-46.60285795814205,-35.51656400831377,-20.658730261977603,-11.400045481074514,-7.456518629472956,-3.613003261488114,2.934451749701905,8.055144297831557,3.940414220189872,-4.18279375809681,-5.991820111698416,-7.065939046501843,-12.071960915339385,-11.693923072067745,-5.373989680894471,-2.733856723752975,-4.318567252117356,-4.627522901023212,0.08718823269869169,8.321577061450268,10.78093894364807,4.375137900336229,-5.281691999847684,-18.066811935237126,-28.556163821248767,-27.485334886933764,-23.697992206859638,-16.32111115056544,12.986288100766512,41.74102953889252,31.52305298053571,4.44764771302297,-1.137145277626325,1.1080135223417313,-14.73435280287979,-34.566340758075015,-36.19059367613059,-39.90681428643367,-59.75770383984129,-65.57635253748495,-73.90038867553437,-131.86927371854478,-212.7447417819118,-222.9180652031198,54.78123292751485,681.2770221191983,981.6483471254608,353.74822398322624,-410.4257385122713,-351.6938047477671,-13.69217075742731,-94.08487451144082,-193.9459178396709,-67.11343858843199,-46.79843375175963,-100.20334883198649,-43.50938768105245,-14.291832043816576,-45.920455949362044,-28.333265919371396,-8.266400561367108,-20.58192125871394,-11.875592803228477,2.9763104878620874,2.675388576667876,15.51804983024362,40.8424146056516,63.40494529880823,82.91836507281467,85.26069856851443,65.94021132320434,52.09167266557976,53.12270473162601,44.17202383266542,17.19933327504956,-7.906859782261712,-24.35232998977418,-39.66145800160894,-50.7253937924865,-54.0230845357398,-53.450862713847144,-48.14379282388909,-40.331934132503214,-36.74705591192199,-30.239462312344433,-14.502677852843874,-3.121427995111077,-2.0742752604541614,1.14398643479797,7.123225485848337,5.981559911914406,1.3433544896864156,-0.23366559991744396,-2.182138944089843,-5.72667794535446,-6.540802616836391,-3.266218610001955,0.8944683403995235,1.0386165162287675,-2.731533479117843,-4.212936288802437,-2.1837387884418593,-0.9860390368556935,-1.3033798567398058,-2.799368634496716,-8.179126680807421,-19.976042400640484,-34.303091927217665,-37.94066077060177,-29.891733040688987,-28.72435569458735,-26.971020488745417,2.852686356674395,36.84901345153973,29.82394493388491,-0.1876444834562676,-10.720612033078936,-8.290846592658593,-18.901057233803886,-32.99746864206905,-35.699160807851754,-52.36970128855153,-80.56140188974176,-75.64294304965117,-77.57739566880132,-142.30551387446354,-214.69714839886865,-214.97283079893413,48.032172547583116,671.6987415960841,977.4220118736549,308.9452467358148,-485.2128934880592,-373.74359147959325,16.98191889610865,-73.73587454811535,-179.2882815178425,-35.84326885761483,-23.489153077367078,-99.02155656425565,-58.08838963573343,-42.120943431572016,-70.83311158941589,-38.75789439892506,-17.516286235718816,-34.148169587910324,-25.42336547775404,-16.663635605174584,-17.968319279642127,12.408438115522188,50.05071733967165,61.94465068657107,72.65429394819213,90.8698100878435,94.33795633808772,83.12228157355077,69.21943754233445,48.32870145764465,19.464966575253776,-7.717077753004862,-31.90395075530187,-51.932346958721865,-60.23532537295319,-60.125788734205486,-58.95252410182413,-56.1155716006063,-53.89959879345546,-52.97028206357281,-45.307629775597164,-29.309270686158605,-14.554970730938251,-9.828279956123765,-10.03067099678239,-1.947680417103701,6.449348926514606,-0.40981065132255523,-5.482628994985724,4.517293946153707,5.5148064776827255,-7.694086585737253,-9.99160132813952,-1.9184506058982542,-0.3877720300464702,-2.8786598797706873,-1.8697277581131715,-0.02405058995120868,-6.086744039277757,-20.831029646239692,-26.363525962925607,-17.608789567884454,-18.378426679752188,-33.17625778000214,-39.83614202138169,-32.16098942831128,-11.381634627560414,22.11034125864641,41.688598677751045,24.61184967558358,-3.5249487391629906,-11.044109198815796,-13.616420375759912,-32.979651805645474,-43.97638193356423,-38.92019081345744,-57.343788641527084,-78.68054469016374,-68.76433764196821,-91.82099121407421,-173.29434551179534,-252.63242855186945,-185.78914435121004,318.9118902690874,1011.1949217995443,843.3166619794355,-207.72268484477368,-657.8938710801406,-168.0494072942497,46.12294426318773,-190.16228972539062,-146.82470473829827,4.031924675563914,-78.43662347435061,-103.84040703669992,-22.452892398151814,-37.33303760252515,-57.535277309918534,-21.62450654176423,-17.87239168241177,-25.6252051246381,-19.18509590220731,-18.26717613457341,1.813238327610363,38.38909794788083,68.0475431157278,96.45406247338246,110.45463629820665,105.71096385719278,102.46135236178515,90.32048118564558,63.915729040975606,39.90915946167395,7.998964287554931,-33.15436199437439,-59.18950458738341,-72.74317158532585,-80.37711945168711,-71.71206554068402,-58.77210239449422,-55.867098265516596,-54.722852912083056,-50.639574623807654,-39.182133441942455,-19.9231102126548,-10.243315912067573,-8.261284109197376,1.2832674597865577,5.079795718393754,-2.187253784066833,-1.1790915327711442,5.68544703564808,7.483658987892088,8.92546968596728,8.312046774779242,5.34220556109527,5.547946180111616,2.010095162366296,-3.274733460665935,-0.48560685816815585,-3.3296752746123346,-19.67830975344332,-32.18811221477115,-33.395066527492624,-27.061008184252994,-20.987803285524432,-26.23968385791423,-23.850466807890236,8.369566430225918,38.05324277189057,31.229627517345044,6.775370459455706,-6.886838599278557,-11.255562337998734,-26.770216517920815,-43.81133478259896,-36.36710771590567,-41.3566942920029,-74.314038484203,-73.0195751301062,-71.21751785972229,-144.22650268366954,-233.96329855464697,-204.2172398667965,189.83957807963043,882.679786771627,957.675502618062,14.115010090845516,-661.0913091293367,-291.1135055402445,55.81421389939972,-148.9776908698409,-181.4634058877222,-0.92831258896463,-43.739277456682174,-95.46650084516702,-12.532314923308869,-17.573253960802013,-53.60429962123786,-12.448404788771018,-4.253786860237256,-29.500371038095174,-19.76482685173247,-8.63476252557767,-2.3054295484702685,24.387560128424973,55.067771947804715,79.58706222292207,98.49767608007907,105.34550295579737,104.36182672059863,99.96689375494154,86.8699919204716,58.48272901423369,16.873927935469737,-20.68874716100693,-43.81333614558658,-59.44192798733981,-67.01975112419194,-64.20249549033437,-61.56872286714621,-60.303352335735234,-52.49807949013159,-42.37179545206767,-33.93510535661078,-23.302796361482855,-13.033728694299977,-7.216239515501549,-2.5914644886204385,3.6590330885215483,9.871113199401327,12.057212949145654,8.62624887738911,4.964815957991956,5.151697063457115,6.258648802170882,6.87547160140796,6.355886760347477,1.2045365959781975,-5.152456544038884,-5.4851619978548225,-3.469059676670774,-7.984541720568483,-18.12048951512094,-21.948720762296915,-14.44802924925187,-13.73788126441794,-27.46879809076124,-22.533069788786122,13.391795278823206,35.86737506228829,21.844867446151156,0.786298969583056,-6.592676841109309,-10.955978773234106,-25.050057302667184,-38.35324862582596,-41.332860357643824,-53.94926054193371,-70.9185703008142,-75.53697633521102,-115.27130978645174,-205.84435674547444,-283.1174900138573,-214.67941316240166,254.52265922749166,947.488440045126,929.1057493645619,12.656687000911688,-535.9763511799923,-200.11611255239643,26.141084512327993,-173.36677278085273,-175.52909555609705,-29.81997165545357,-70.38972693807345,-93.02275919627468,-20.029598882932046,-26.793013706174236,-45.17558158079207,-11.03407158879236,-13.8304465260229,-27.086791919915385,-5.8213837505113215,2.8593737109817745,4.833081160406347,25.827040371019955,42.789559590626546,57.508686330330484,80.33909288511151,90.00555852682167,83.76039001785215,76.51541744509728,63.84288859483857,39.77276396922571,10.632475850306927,-15.69561583457647,-34.43117635532959,-48.55451551953523,-60.52566139038655,-62.696098659839954,-54.7159563408408,-46.40062152547902,-37.738006251654724,-26.75245344497504,-20.211985488875264,-17.169643810714923,-9.871588002620271,-0.8993383659557885,2.8225755137281574,2.207083425152506,2.1819322087400437,3.065807786019798,1.084639537001653,-2.3832326263607104,-2.2014061172962283,0.7356561915253881,2.703960323360068,1.438927702669588,-2.569640608418881,-2.4619017665539555,1.7596906604850453,2.355681128647187,5.473218346305706,9.606593250726897,-8.065199608489667,-37.82531027404318,-43.870531636280504,-31.882789111037233,-27.854951295917303,-30.09559903295615,-24.2128017267179,0.3683310846242023,33.67899840065459,40.905497381436206,14.300523720487739,-10.456889921326693,-14.64675176481052,-20.886764017041784,-39.56293518967637,-47.70702730212907,-50.6044493098972,-69.91687352006868,-78.6248997067154,-80.15192182959595,-126.88102615237585,-204.847177894916,-242.64123971557922,-35.48196732679716,588.4243639903336,1043.8250037479127,521.2344936281459,-366.0304288600963,-428.32583751298046,-31.475378820015194,-65.59859593829634,-212.3299648341809,-82.95815947718837,-28.10309340964045,-100.72132812224193,-59.10068611425616,-11.592409545793139,-40.11231045092235,-29.51641740145557,-6.704361739454448,-20.437836433487703,-17.901532953018076,-4.42284723081943,-2.074265229720414,13.393038250595174,35.337129663677516,48.99413560732223,65.13974436375871,80.23770734319595,86.56848080781337,86.49567491652061,76.28656013107175,58.17528770603607,37.301640272311104,6.75988340082948,-26.018147827040707,-41.18581892654419,-47.750227812930305,-62.362058659747845,-69.93479398076943,-58.499107474379784,-44.43122443159227,-35.77942309314154,-25.995757203495202,-18.06842011569205,-12.221389611337589,-1.0696714022153788,9.566500403220534,13.139473885211629,14.134761015967896,6.067433669002627,-14.847898163876788,-25.55766410403331,-15.972976285987087,-8.772424470565895,-12.0537154102669,-12.77689010067736,-11.724831557571477,-13.43812459450799,-10.968650120249126,-4.70793608160945,-2.253252653917457,-2.494105226729973,-1.3477484285462182,1.0388635475998313,2.9078675368751536,1.684706136968897,-3.7737640238005135,-12.382366412297095,-19.095754022255473,-16.546637645835034,-13.65423144248842,-23.662193628714142,-23.567618982123218,7.289670027138187,31.545765519492264,18.513003552311414,-3.569578649969909,-10.825103144468692,-15.472268224393872,-28.284891046726738,-39.37814653755924,-40.71104473978011,-51.01544476694285,-70.37445191085914,-70.94665675984882,-83.07488660027016,-142.80488930429323,-212.19988027665127,-200.26386662497504,121.790699019372,754.2746079257479,927.4913435254025,178.94268183548854,-492.04019481294677,-283.1012422721893,33.3570211974539,-107.6267161378048,-173.43946998415973,-35.38943012018494,-50.33292214190352,-96.71075383709002,-28.869122733863676,-21.193168046222603,-54.808054072439035,-24.83118349802414,-9.763163886225698,-22.941341060348286,-7.820975413113906,3.32910834719494,0.7516558267617306,16.113511675118286,36.49917076380031,52.26787548961026,70.07542179435059,76.9372603612475,72.60183993445857,70.2872308444214,64.48871105420345,48.342269000178426,25.794240156951382,1.916789072947048,-16.49400394093097,-29.186818808901226,-38.807855844862544,-39.06756167888996,-38.835555057678604,-55.30243835572224,-67.54828343255315,-51.937491789169236,-32.633632380556776,-27.322796455752155,-19.05611254888572,-8.955578237873986,-9.453253943428148,-9.328313504945932,-2.011825905781162,2.64314234243008,3.273423971080204,1.7440993372607885,-3.392721914742033,-6.737423433039167,-4.973357913260898,-3.4463003252091955,-5.038783716574711,-8.031445037314395,-9.847420893748524,-8.569743964291717,-5.926222454084012,-3.9098509575755713,-1.9281230617526326,-1.7157368858144082,-5.501323446039166,-8.63012205167884,-3.6616531600246223,5.581197898041578,4.275475642638513,-10.199407936004178,-20.8932657273399,-17.460580444187173,-11.189575969596191,-16.68968340162741,-26.09194850961838,-14.642835341276324,14.954997452222809,27.171307454437034,10.362894786165619,-11.118331579012477,-19.758282540564963,-21.588997753412322,-29.94796306329317,-40.05094271531191,-44.6565957441582,-59.83916723305954,-75.7765166647637,-72.7769672604309,-91.37746157375693,-150.4555517920185,-204.53509093209487,-127.31733712989163,313.48174201789095,893.3204973150596,751.2159077916535,-134.3598926335254,-544.8362625118352,-165.11323554425354,22.889324744672642,-165.07652368273858,-138.6098787432707,-5.5658198899409115,-57.412329932886244,-82.27730005455771,-20.13970428746157,-23.123283277101898,-29.77561915888174,2.9815104001029535,1.2666600009373417,-9.90931843847191,-0.5551109909623682,-2.993488450169112,2.798893983821138,37.663138850201975,60.61141435054538,55.30137621176901,54.282544221441555,66.04233699291922,63.12074929028161,41.83715439347036,28.543928693572663,24.405418392465883,8.379671174196623,-16.62290616653296,-32.93930282163732,-39.11564172136706,-46.07334934075045,-55.87285403425839,-54.26671451290112,-38.73911252607684,-32.246681663701,-38.66291051654583,-34.36022699071352,-20.35167176923912,-15.172280388497775,-12.765615293904215,-4.491391037303572,-0.22920142764984774,-0.5390375676154786,6.426605614814781,16.933129803611198,13.85319912607004,-3.241328478119943,-14.71309554961024,-12.691441154279842,-8.579119993050647,-8.467137348662394,-10.15864677306731,-11.371726951486313,-9.314237408616055,-7.707446125068621,-7.9061568605508,-1.7736989735828175,1.9685735346088897,-10.737083115002346,-24.717808259850422,-26.334543039398547,-23.41282255831308,-20.519496902149385,-26.324438133613107,-36.82193587106757,-15.952455669970062,27.64089170727992,32.59071495715369,-1.1032718473557708,-16.823605705886283,-5.5145169359556405,-7.8953965376358966,-34.06182402992614,-44.506705201585106,-41.728054284164834,-67.33098404180562,-81.94652295093286,-62.51070972221629,-90.94842710310472,-169.0830507822505,-213.60825140487492,-63.56974018981782,500.081613442436,1024.008418122294,568.4578086453795,-433.76749226873346,-570.1262796124988,-33.158129138850484,24.95014723484354,-194.97723244785055,-100.20788519686843,-14.960800487485884,-95.09924470763485,-60.79017004092777,-2.650169406723485,-45.2637399315598,-44.31339151236972,-9.619466741932696,-23.35294976628984,-25.313991116642903,-3.9755948555872838,1.1042473632454834,11.976053640802247,39.422797233150504,65.95732191207026,87.66435140996117,100.47449722951029,101.95148997749563,94.19100250185053,79.95062210382699,68.13321065155431,50.985840933775414,8.727650191154087,-42.26510019513652,-66.97922869813068,-67.29856411773767,-66.54764481575,-69.14134521978794,-66.67412473533707,-56.35148313464865,-43.35420416192607,-35.39068047469706,-31.29925090280525,-22.70567808111076,-12.19808424068647,-8.340515213240344,-5.7449458086848395,2.7515404187791326,9.219001951392169,7.770468070391088,5.323882634429024,6.261975639048559,8.159371772868901,9.950160459738939,11.080860153050644,9.096542506300075,3.8167783969728557,-0.8492348340643563,-3.476424161555272,-6.5209046855827175,-7.741810123956661,-5.4747895299570075,-6.8161590264274245,-14.002102655226599,-21.75968411602347,-27.315996578080636,-26.456018857269726,-23.356619993685364,-27.753575573569464,-21.423209858471942,11.6304630560259,37.20634471816828,26.074558910244374,3.527816735752298,-2.574871539637421,-6.467388448875013,-24.183911082474594,-31.524514174129774,-25.388354681954127,-48.446670111949075,-82.93300530790346,-89.77275381872825,-115.28753986961976,-180.79239479970227,-233.69984255225617,-118.29595219361127,404.20550976244704,979.8896799270381,688.6961125800188,-255.3297430033274,-529.221305471693,-87.30765846947054,12.06844639122205,-189.2910938187819,-109.847541473022,-0.9386367464457805,-76.8608796702961,-69.88425718567453,-9.21901717229115,-40.61105748822122,-43.36577683338106,-1.974154135561256,-10.376294346473566,-21.90700297067894,-5.110056685314163,1.8091417058135377,12.159604692571374,36.76340445160573,53.3402199777821,64.51422967342725,77.76520374932326,83.10073465272049,77.87484512029805,68.44394161391455,55.32198698926972,33.743374368404815,6.020526936446722,-17.854375997278055,-34.13622274789835,-45.26077919270778,-52.79224106222068,-58.181137598677054,-58.337767264292324,-49.71741543534982,-38.84072144224345,-30.973041754953293,-23.530660313025976,-17.761130296899474,-14.071224273975664,-7.116055626595914,1.2157361652041292,4.30290108657416,3.3814056972841193,2.7737117288788102,2.9620230132941163,3.6244258352006167,5.5086624430212225,6.707560894738531,3.408214047980099,-2.1709725605836994,-5.688375752402235,-8.643174828298548,-9.318672461632344,-5.278244552579823,-5.429646174120805,-14.153393001959529,-23.02730450937322,-25.920362451316194,-21.12416094524121,-16.383819534155275,-19.44481681924425,-8.500091042335418,28.41037108220877,50.849995828552295,35.0224682194419,10.869697491949914,-6.1803316127343955,-29.29565022965258,-49.41532371626483,-49.0157546303313,-50.14747073602781,-70.25952358010532,-76.64411931329164,-76.89004391756298,-121.98060798519964,-195.49775383878927,-248.9237049825244,-113.25197965909842,447.48776121841394,985.123789179537,610.6894481596653,-294.74266777928995,-470.80413123075994,-50.43618019977107,-9.873362882840993,-191.14220222225282,-99.20628250397269,-15.569815579099085,-86.21437573437292,-65.88966459840466,-10.258572299079379,-33.987079344161664,-31.619262832335775,-3.6102356442128807,-12.470651792122663,-14.027973957802738,-0.32481637618987147,1.6450537865511095,12.881671313688976,36.05300861784871,53.408625226744164,68.12595706965497,77.09674690854605,74.29240941634038,68.6776727957365,62.75735132894613,48.42811314699195,24.96205506314132,1.3332932362750984,-17.2141895001771,-34.73536492414201,-49.684573912235706,-53.80575163191345,-51.156262896906696,-50.08502696539635,-47.2639512541524,-41.01915569882944,-35.124761555296814,-27.09324150396474,-16.419431461032804,-9.981284125555526,-8.644964967347978,-5.916650436749016,-0.10176638327012455,3.7770901045931744,4.21133939748972,5.584962270791186,7.696212763536247,7.572370665572016,8.32324461160416,10.829035143929962,10.976145486537785,8.336675649041421,4.707812787154922,4.387234769812615,7.227018556754835,-1.5102967984629636,-23.946149968779757,-39.76972838302524,-44.44318170023514,-45.95226185697207,-42.75837093171243,-37.05281019390523,-21.936298444985823,14.372762559061005,40.44307476360373,22.610791749455004,-7.131978307661388,-12.92263835836156,-16.343123968080562,-33.28956159721349,-38.24766466924532,-35.27888403595236,-55.025544785691764,-71.02778808236401,-65.58177607476048,-93.84235927569955,-167.34127694770422,-236.5663069023619,-151.77852499568482,339.60545391569656,931.4722870105106,720.699945337966,-177.64806873143078,-506.4410747650925,-111.06773175070379,15.636619747117056,-175.31557742234736,-121.55822256750328,-9.844249358228893,-74.84861212962554,-76.06121219995725,-10.15340900980993,-30.978793254753278,-42.44085251370116,-6.900901952028765,-9.626987858044991,-20.316976679119822,-4.943173006945752,2.035004047631702,8.29996124235916,28.940305261418054,46.645477239852966,60.89852227390119,76.76673269293721,83.12858757820614,76.35186710728888,63.91241955459977,48.43234961814305,28.013546480066296,5.883389027012871,-13.229855623719203,-30.54386671913423,-43.37516716494314,-46.70224299034701,-47.800178186791904,-49.716708329898665,-42.977895448318165,-33.065160218075945,-31.648999059824355,-30.375616824716296,-21.280091787971823,-8.71662373565422,4.06195623969186,11.110511709460543,9.934348104065688,5.14308672834844,-8.96131298694094,-28.290389327791175,-29.002202625342594,-16.06984290069315,-13.114159635240693,-11.034687249037727,-1.4235187373867397,-1.3182971584779324,-6.006964975721516,1.506761753769979,7.830917245092287,0.4224930232738018,-8.738549884761994,-16.919756383682216,-28.04739252017443,-30.110595812547636,-24.067413049295762,-26.86839566732691,-24.12017990771689,6.44691268405367,37.64759271283882,32.403071020828904,2.7420663972873243,-17.09819883108264,-22.610685155817357,-31.966775899493488,-39.72362666121845,-38.11610367437868,-52.54693569348585,-71.39810377395966,-64.7774858830554,-82.5670294573544,-151.88981943531627,-222.21729345375846,-180.13134945532147,229.42523809656208,859.6463851270661,808.1223896581896,-91.6972395981959,-580.00522874708,-185.46900222401348,61.25009474367086,-140.90434162689536,-144.50396271783657,-1.8755556422930795,-53.81077619148922,-88.0496398142465,-14.945562853777195,-14.939153656558396,-35.93263581580918,-8.289579047533284,-8.978812600273123,-21.40926782363971,-2.650900065616347,9.346169652709229,7.082139934878932,13.914074480312639,32.424230811329174,60.58725378372891,83.14345681716122,84.76445256587911,78.32725028514966,74.17711339361563,61.890063245483546,36.772950908937396,6.576514331737487,-21.47601696163361,-43.38966179810162,-57.35533134693971,-64.47550828981167,-66.5052151646193,-63.09334162962077,-53.09647466317272,-39.114522591227825,-29.057092559885305,-26.724687564157733,-23.34508581328098,-12.291528137171326,-1.032672990789841,8.629721764780982,22.62133639912735,27.110355329629698,7.438180802341469,-14.626066950660585,-15.328372469777957,-8.056114405094043,-10.137975609665123,-15.993990829422078,-18.29057444929598,-18.182060490703584,-15.566761122084156,-8.292947967592475,0.02888051029286487,-1.2609003988149077,-14.699820735343284,-25.498184235374254,-22.438956927541053,-17.281829275074706,-24.04512762675973,-27.05735969622629,-1.9083584127061144,33.64660762184094,36.78746697857413,6.086136643872056,-16.59747560143053,-13.717016038057405,-17.600275031419276,-38.125707204620994,-40.580179259490315,-39.08399221684232,-61.68992229804407,-65.73057821811588,-63.093959742594095,-115.39328324259296,-190.21429365502652,-228.19399382490244,-26.646387026102474,606.5867998404188,1006.8196197389934,345.0790812415687,-553.5122660137991,-444.68625703262387,45.35522264916212,-40.12643165867761,-196.3325789176485,-32.70404950531371,3.1196537969379676,-88.5763901831742,-34.7269863913966,3.54974752969607,-43.58187753497165,-32.251569117154446,-10.598325297770922,-29.54647200149218,-21.51842162299937,-1.5299871912026457,-0.3499205418008646,12.825909621486574,37.491728000950594,59.069970859597916,81.46235978844726,92.90934520884231,88.84511998915686,84.55070322807175,78.85207638816202,60.438160914534755,32.677935854263495,5.132218108439506,-17.697848357465556,-34.51102635626485,-44.5760583190809,-50.370925416917835,-60.29014072099626,-75.59433953689647,-80.32560634093113,-65.12636646970063,-44.833463739450494,-32.97199830288123,-25.310242412255327,-17.986714469311273,-11.893998908109094,-2.7276123082525565,9.0362799682005,13.62793445268218,9.969751889410952,6.169965193489276,4.4193679910959,4.946894557057217,7.601825362053423,4.611279554288592,-3.442054725762958,-4.0798027166165,-0.9185180724307749,-6.18448093117477,-15.0869525647737,-20.923700060370333,-22.9197605814069,-19.949602349998326,-21.191933203698092,-23.115124085709642,1.2566038721605537,39.64523945353781,42.74214858702739,11.141073896840927,-10.191584221700678,-11.424139323714702,-19.236381968550585,-33.70295067694745,-35.52855296314506,-44.35566518144631,-66.16962598928006,-62.03898833429771,-61.48300538818953,-118.75896005131068,-206.70883297825156,-245.60201375779724,17.534449826314926,672.2159295252558,936.5098443884656,195.03716539439762,-546.6310892005515,-321.76755679267137,66.28838348598607,-81.25883670808592,-174.6759147788851,-13.476428134259514,-22.348713985682366,-92.93219748569351,-23.309009162394872,-3.5299432719738633,-43.373166239719154,-17.88852808652303,0.1604612082141097,-15.936914550719091,-4.939829662720737,7.964534844751214,6.10192367483781,19.096164548428554,42.809807180780766,65.32848122914594,85.81958341984634,97.30324333779687,93.47682964727004,70.46516356390356,40.01507400062228,21.331147967082643,5.297374948689717,-21.002689693406364,-43.56328404999488,-53.637008171454525,-58.44953198172608,-60.0065344256019,-57.944596374419476,-52.41365647810791,-43.31037627319296,-36.4163119557885,-32.35780579395899,-23.580734073723562,-12.374900737187613,-5.437918588959551,-0.05343464835672762,4.901778510954159,5.701441542944366,4.798741342996113,5.76776671571969,6.337935823725053,5.806029704712383,5.582567709521822,3.6101263003925963,0.6770720800690064,1.2955614878725772,1.9128380350643486,-4.619572404260456,-15.77124381370475,-23.187327557485442,-22.178579010130612,-19.47654326132025,-24.71855560166045,-21.52098417874413,10.552182492812635,41.21737247475651,29.57988683159717,-3.108088859712792,-14.648774387656616,-13.43147844086283,-26.29013384350578,-37.74806357244767,-32.78923350272294,-41.61273472743361,-59.87969002756654,-54.27779099338076,-67.40707799625753,-136.51597944221135,-226.30745000577897,-226.2336075691215,141.6995448493299,797.4207586029345,848.1564438213506,-2.3138931399829374,-554.9175874062132,-209.8260385655734,61.280085479290456,-130.90164149530267,-150.6212016374596,-0.5563567442642778,-41.919094579447346,-79.94041898374167,-7.765468590617271,-10.620357319597147,-35.21429580591542,-0.47193241034905675,6.756400981157386,-5.7280715981906445,0.4985060491817217,-10.511597163500713,-16.556441793163813,12.356820042017553,38.59352951584851,51.85758981616261,69.64850669982339,79.39821151779257,74.23774960781859,67.34120049968085,58.68188100786104,39.19806161138006,12.031676063029861,-11.834969358984047,-29.06571794010541,-42.88789713503425,-52.1966644465098,-55.14799931731074,-54.959149766904034,-53.43331676148283,-48.515067016786375,-38.950491759807925,-28.194373556340935,-22.397732654383233,-18.70030433287691,-8.468266707410482,2.9016463889269755,6.177576840654513,8.360665675326894,12.760073091056144,9.995335201022746,5.355942870730007,9.524252638673342,10.495677830470012,-0.42132439065192173,-8.334359689530226,-7.695771385701898,-9.476310079004664,-15.22603900440076,-19.964349931377857,-21.61793682945972,-20.6797157992533,-23.0524311751621,-20.658195265509505,7.772948163523802,44.09898614498415,41.21396637669494,5.1591035342566585,-14.091127314321916,-12.201862520271087,-21.643609599302746,-34.24832970270442,-36.05813108846927,-53.181398205295736,-70.62686955878043,-57.43115769264996,-66.38725488436138,-131.0056423385907,-216.8366771384167,-209.52092547261356,178.16651660883164,818.4487376060578,797.079241674179,-70.74977257905539,-547.8230920535743,-172.01201048383925,56.702155793060236,-138.47031171101074,-131.86691461936007,7.259570905053856,-46.60371321502507,-76.38402116346697,-5.37072994223171,-12.396122276051766,-31.811364390740557,4.6339352384608805,1.90721659634029,-29.159332862762007,-25.54632129909733,-9.953607072063384,1.5106151608080163,21.02184809003549,43.743494640346654,61.05764696337168,69.74670531095138,71.39498581971355,69.35760066775408,63.17555475422706,53.52425254806986,37.13670457246205,9.934797478742421,-16.79987340229058,-32.05321511003924,-41.30275905572678,-48.545802361320156,-50.41203294085858,-47.6463403716035,-44.0446094392017,-42.846241516799495,-43.729765534723384,-41.79189040555464,-35.72356377879912,-24.781667459503502,-6.808346206133013,5.593101403721985,0.9150126163674202,-3.778411297966322,3.331569974085113,6.708832002988512,3.96935916007104,6.281247851885979,6.858262686237165,0.9308432310951353,-1.6661447953072361,-0.31525297759028703,-4.499399864136066,-19.639516708978764,-35.319103675704746,-33.469504138081106,-25.089674351093855,-25.86032429866826,-6.671615263237969,40.28601399745458,55.85933671411107,16.776186118691736,-21.006773852358215,-23.459556243702565,-22.405980798420412,-35.234909089850106,-38.01750934092774,-41.6927952940312,-63.112396699629564,-62.644986765866285,-56.31278504914016,-106.73727899704839,-190.2682023408262,-240.43278722808776,-39.02437119354536,590.9869297977988,979.8147738836648,334.6621602279346,-523.7287203871963,-409.0451699926854,52.10474981964784,-41.71134893623106,-184.88580333720668,-24.906475198380114,-2.000938292123436,-93.05248475097113,-36.21745443556597,1.328702412132138,-37.74618460481298,-20.360298991880178,-10.823763433932218,-42.76621382736616,-33.62371423318852,-12.832276777610945,-15.984100015709803,1.6950159298847858,38.18868675715133,64.33436112048489,82.66115281006788,91.80776523123976,90.22358894553716,83.65143281226032,67.33871906822932,41.47973539694221,13.521050749328456,-16.38220538883524,-42.18919981647576,-53.85124543185265,-57.39301577404471,-61.97934599712692,-62.45494915357652,-53.85923605860411,-42.93983105139584,-35.296980843149015,-29.18204044232312,-26.797156505990664,-29.02956354637395,-21.872395250681627,-1.3564610731541933,7.9020561984882,-2.248196280419542,-3.8626563314149287,10.007674542440295,13.0438998953611,3.4540642798647028,1.3122227451323507,1.1517224579585594,-7.470237285037031,-12.779878047510127,-13.390078049698479,-18.988322415307053,-22.594170630310035,-22.47828616784177,-23.16914215531485,-6.6675721924291595,28.74401111805996,42.42503116361942,17.453998544926293,-9.493624397196811,-14.153524445065045,-19.221867629288315,-32.39000883966996,-33.22449421225756,-41.24452073191315,-62.9310059079085,-54.12999435731935,-53.190102837644716,-119.12925164823896,-207.977430053866,-250.18999131832052,0.19057036433366648,681.4862472826077,991.1292977141352,213.5982672204484,-600.0755011689776,-356.71267058306296,87.96518282787741,-61.264235368838875,-160.8489089881216,22.214325649439928,2.6753106531849795,-101.95115085845464,-37.55987635305452,-11.065315175404749,-55.74356977858004,-31.446572718388037,-11.081495867041152,-33.950685182646154,-30.574493313281437,-15.110487221431228,-6.930707818179696,15.550904924597331,41.61480179509101,63.293633769755814,88.2519827460911,103.94293149567014,101.76306605634494,91.31394616340218,77.47753769107698,56.15576928567806,24.49339324851316,-11.619092804180967,-40.998113978822445,-60.30898142632039,-72.47725113006844,-74.87798670686117,-65.75915361764253,-54.529095642993326,-49.166609834141056,-44.19111874312583,-32.65108116276434,-17.126731781257345,-4.2953454388397745,1.520359355747214,1.8215246927019546,2.5963706985790065,5.337981432534809,6.959699268830519,7.71749234126895,8.428842529437155,7.31351270296566,3.807759981913712,-1.8975720180373035,-7.409395205606359,-9.198178900024478,-10.923821813625256,-15.657912782695792,-19.26907356992632,-22.148908661000746,-18.589704312207928,7.484657281335922,41.06875677169985,41.12626702616478,9.515465295026729,-10.150557409014699,-9.45948958104552,-18.660201891644963,-32.88637767004231,-32.18706468576117,-43.463160734151636,-64.30287169760261,-53.954185323310135,-58.650631401426736,-133.64946178988927,-240.72845059216368,-263.53947184167794,78.28828147886043,762.0502399591159,920.686028977587,129.26835107600965,-497.75331686152197,-230.24457924472063,50.165462474418405,-134.4671294704017,-178.95082638490146,-25.490934033022462,-53.00633532784225,-98.65935157346509,-23.61023215111991,-12.138918868097335,-37.47448860493238,-7.682773038498148,-2.5795545911833964,-18.810096523120095,-1.9960764366098438,7.394275493273684,2.6921220073287575,18.567468720051615,39.59897681031708,51.363987781059684,63.60389071527156,73.04201614413796,75.45987203604795,70.33999999787672,52.11084655343573,25.98354543158886,3.1792745184599487,-16.142985988686505,-33.22486848887718,-45.64478725640228,-54.002112683511236,-56.998612090754634,-53.04781246028766,-46.198415692784415,-38.220676552780105,-29.62934716742,-24.137481880001687,-17.936722131409546,-6.140861626873054,3.4101022925545035,6.409773850665106,8.341122348310453,7.80075517061433,4.032005066642627,4.580410181480815,8.023572720209755,7.073420559706957,3.2315779577509627,-1.7213962793451998,-9.100807999477368,-17.092254393875447,-23.41687123498808,-24.430361924520316,-20.806739441818017,-20.868849951371082,-15.693188883027089,12.945860200510165,43.94735730415452,38.14744469318806,5.772292120548709,-12.527999495475157,-14.796911479751609,-22.055894479346136,-25.953134783362856,-26.529603444595494,-45.573889288687724,-56.91456669684731,-47.031289984309474,-78.88658884844219,-170.35689012470115,-268.78268944279523,-207.27760943771452,288.5603800968971,906.9263589497986,716.7543618540142,-168.34647494826297,-481.1040220313616,-86.12496407433292,18.351045020496432,-185.2277363411623,-126.68525964505655,-12.815798239951633,-79.63049380949886,-79.898137527703,-11.619453397083152,-27.80709635647088,-36.774868646740856,-4.447470601926807,-6.2729241352406095,-11.263714004451105,3.9618004591113447,7.885930071163847,14.082214086006696,33.49872575573246,49.06122829975875,61.51605141031894,71.0359504786378,70.76230963722638,66.59134449942306,60.78982119602608,46.12814198073801,22.521501499860328,-2.2666258363036764,-21.470710332217035,-34.7449165952071,-45.264610058873174,-51.44026303950571,-51.14806223946046,-48.70655207914395,-45.53112712681782,-37.4920606133247,-27.95518635635587,-23.59996868302726,-20.51950405551474,-12.831026540711889,-2.9249389407237416,4.917923456171364,7.523661503051306,4.420439811218412,1.6387233982713738,2.7150064194311625,2.4292137022617144,-1.56646263697254,-3.0578608563478653,0.43263576162087247,0.9295525527703887,-5.743247524008174,-13.043360244693353,-18.810011897147163,-23.28126564388915,-20.54343703922917,-15.49897609235905,-11.694022346838024,10.193858969253075,42.92254121774644,40.12071701801373,3.091866600728938,-16.0351486422343,-12.898579122946213,-22.46522275664903,-33.99149679698341,-26.66171375927381,-28.909822984292006,-46.04017086750174,-49.39407699770244,-65.0075335346915,-129.44496197557447,-231.38556674667115,-247.66460663616252,122.80530767641307,778.0882674804775,829.3081376815844,8.68863284727729,-527.6550063693517,-212.6159923061865,40.65295496766667,-135.81899603424023,-150.58219739356738,-4.783454516484682,-41.21073614911374,-81.17339830455116,-16.422532571970983,-19.77101528269627,-46.213029875963066,-13.932441244983913,-5.182308002722357,-18.718015991403803,-6.107569725731264,4.603930129083846,11.526050775683434,32.02265969260067,48.60103501179891,59.72770907291212,72.88165169826848,76.16997994108624,65.9581801374558,49.86949650779884,35.35807353976376,24.368778046163627,3.81165001162124,-26.061116336758722,-40.72450569158234,-42.46829253799625,-53.15433144045283,-61.48938045804316,-54.61155669458779,-46.78529791261427,-37.826631120713834,-23.315319106276423,-20.639239151647907,-26.783519669123294,-22.389976032295124,-14.423913228923947,-8.087220251990473,2.0703057730368286,2.857640132001098,-3.51731956283777,6.3085630576881915,19.920551002116433,13.003509598468598,-0.5799740503779738,-3.797729108525859,-3.543460597493244,-8.342173464989077,-17.38570554229851,-23.42591802399902,-23.759578723274583,-24.88850703763704,-27.798864910530327,-27.746477657124203,-20.138652355061808,2.122598788133347,31.405124991313606,39.77491289242801,17.140110562529667,-5.882365974383376,-5.744611879402541,-11.557837938914457,-41.74332077697275,-62.201728513623884,-65.32565900973299,-63.76665996683671,-53.18123333442964,-75.85232623748473,-151.92768894943893,-230.79800441356022,-223.58609734493695,137.7677270641532,819.304997771526,892.893218013522,-24.43941834361803,-638.6968805135391,-235.58112352553894,94.32896833296991,-124.56785058211241,-155.45504322110088,14.010114694703148,-41.12289857476008,-87.27047327403007,-2.6489509365612705,-22.676644114495268,-64.98806992369508,-14.160434087045969,-1.2081446869752313,-23.280164410331185,-4.175156899155957,2.1963918284870405,-7.268648105499224,19.969357307994265,58.28971787449679,77.64337580148813,85.85860851206415,83.1924488643163,78.69644058338446,79.18280175660809,62.877971639852014,29.12444358721151,6.927010548967177,-8.701459416074455,-40.568535944655245,-68.1299685916223,-65.00218932547986,-52.49839758807673,-54.43771958236498,-56.088548992122135,-45.72288974252458,-38.40813178178059,-38.83999610737803,-33.586566591759805,-22.079257926868262,-9.922415383306326,5.2610122324046635,11.363788368855127,-3.1360380499899954,-13.002947516489726,-0.02000292516180835,9.935329869063116,2.880620437638477,-1.6531512474737013,2.285263990842143,4.3247134338666875,1.5404951578977624,-7.87581272584557,-22.684058575530756,-28.300801954309065,-16.011051952374444,-5.895548175450269,-18.165126795597878,-26.372956865626193,1.4789274251971936,32.69758902076387,27.09323208974367,12.683062648268287,14.192187839842934,-7.282839561878333,-58.25989724915323,-69.32185354879977,-38.2471853034206,-48.240917090618865,-75.97935223862353,-56.291927618525136,-68.9131251283067,-153.42570887435625,-225.90972347665536,-185.72053771603743,216.88940412359565,873.9288495574237,832.9621769304345,-126.79193316043141,-640.1595217878967,-186.29651932637353,85.0117212887697,-143.02759841008452,-138.75656988268403,15.565806951443733,-53.1011132716188,-88.80333227397917,-17.534258808421853,-36.91646115903915,-47.84650113650601,5.663381948350368,3.825295342279863,-12.277655207776483,5.797022432259909,0.39472298208347123,-4.571165918246317,23.13815288576045,48.06240310727566,71.87010979281014,98.1108499357209,102.47868177297826,97.77819661615472,87.99407844617735,55.31548759725895,25.88308014387613,9.051146640615208,-30.763373952633106,-72.88745672699389,-72.43333807256795,-56.60931853673408,-59.421367657320566,-63.70932926308825,-58.22201443525673,-51.08330141228493,-40.112040621327196,-26.113616374677793,-20.530523530133244,-22.21055857954999,-16.814660810068606,-3.32699440430628,6.062979752090621,10.944531732941355,15.276093347855705,10.703758583086188,-2.2202732483317575,-5.722701999711786,5.881408101746839,13.941561959948524,1.6468167482878897,-15.790926522495386,-14.705499216979529,-9.461228030548803,-17.678513840488392,-18.23952083127255,-5.553324412919125,-4.68411881765088,-6.138599521959044,18.046225430253184,42.59604529867279,20.14332329738011,-24.94884366236944,-33.05131683298985,-28.64830418737135,-50.374053387914905,-54.3952267630526,-46.179444516163805,-69.93440418612718,-72.27215402555308,-60.00279260833713,-125.63413782740875,-233.43645129231587,-241.00718902507666,99.76381792280222,785.5678121199396,954.3330262278198,84.088604051584,-634.5509735255891,-297.57490663055046,89.0343016216812,-111.53865353383718,-171.21675804709048,19.116898008856552,-24.898581311803298,-101.70468898483166,-12.888071101838612,-4.924160621475281,-46.79577917520318,-4.641370120201932,-1.241686308812783,-38.48219344108153,-18.374857719815594,-3.2722906471980604,-14.71469032379348,16.30856229674078,56.54480548364279,60.04249721206975,72.95688476286942,103.39139186782396,102.07505705272101,79.36763384972805,70.24634402504178,51.99426451743607,9.599519570650997,-22.922310650455945,-38.24382952305196,-58.7861553667283,-74.44259069302711,-70.7422081006735,-63.21115699466837,-56.28760563432989,-41.957094896290485,-32.887386860138086,-34.152773205381884,-27.788844297267033,-14.035215033108548,-7.061012632106465,-0.4322801740109714,11.728714346823942,16.41157471529889,11.79789518293251,11.766617465529352,15.475309610612156,10.270012313247491,0.7633407007734778,2.4371275286621312,9.832456294944782,6.01450579528154,-3.942394316485432,-6.27707115974985,-3.717966479768654,-4.468300907661707,-16.8663440789019,-40.972798047115845,-47.427203227932296,-15.200285949188814,21.594281943731264,21.343765098175155,-2.9552007267619373,-13.824637744762313,-15.765605949527922,-30.931049467372752,-35.980463326654586,-29.0103047443324,-55.92300528359167,-80.15738526633055,-59.8768489040542,-83.32093011188957,-182.95865232311385,-269.4041852060162,-171.91236810573335,363.3166433993077,1004.565090975881,766.8965676059357,-215.238630422173,-550.9580673947313,-101.6159747651995,24.504412578980208,-187.60745567348278,-115.83197715091033,1.9544631177860197,-81.35622450620887,-83.44180320444801,-9.356855296510162,-25.5798869424968,-29.061831383918026,4.052543362663566,-10.17865794403782,-20.308595918436318,0.8676561919455508,5.620711492411489,8.734799611270748,29.110529592710577,47.18513804557934,63.85719073622778,81.92581229522254,88.94950127339217,83.81824512839103,70.28946879529731,49.18343394261018,24.352961971637853,-2.3667559384170866,-27.473400548163212,-43.400716084293705,-51.3853487853695,-57.21789333799445,-58.17836362563682,-52.82428788213713,-46.77629033772722,-39.94874276831384,-28.950741427371923,-17.81958417369871,-9.922707730310439,-2.7177705280728546,3.2589707939060997,5.630310705628235,7.176430741044431,10.464158808393972,13.047672097697715,14.471629256053783,17.95559773749396,17.920084907684604,3.3229379525572202,-15.967362709646435,-18.194423525674342,-10.473876497346033,-13.105101358115437,-19.14085766091531,-19.832877993096986,-24.24208314034504,-25.496376349557448,-15.120801156319473,-13.814544219631955,-22.382730244996797,-6.679187784761609,27.380731301667815,33.910714611235576,12.925865552750587,2.8510985312444106,-2.77083323613134,-30.109882162671944,-49.13615548409892,-42.48441388112275,-54.846257841702595,-75.51081355604268,-67.84640687162418,-92.72436049221423,-184.68830892760124,-275.40019747116514,-204.3950135736431,288.00171324515225,958.2043620977652,862.8879146895431,-59.50773939112187,-523.7217178912726,-157.86287082947746,26.885202780515762,-177.58234777234196,-157.2941242467732,-17.173872239867706,-65.29111151225683,-82.1459886750543,-8.298288981378045,-17.041705420966657,-39.40663821311982,-8.871406794703894,-5.376837038679604,-15.605440510962215,-2.171815443445598,2.7648475817414715,5.378840507862057,26.047859696837552,44.24143355114302,54.43014473571053,67.50058754103438,73.9360945311809,65.83550483078878,53.680882665996855,43.4517252306013,27.781621647778337,4.1159174838664345,-19.033094163245423,-35.78028519428094,-46.04964088195982,-48.6214700541089,-45.52813248906631,-43.701276283205786,-42.82318245972113,-36.59867089235806,-26.859426790684942,-17.973555397670374,-7.6039051506056925,2.530864029960787,6.914231383719119,8.237243076064912,9.880302909978866,11.599525363716994,14.669325672962445,11.043963034586099,-7.866714664061799,-24.256972766963386,-18.222809265787355,-3.349513777001608,-0.17653494868763886,-6.81837819776592,-13.849574428998285,-16.53222025729972,-14.477597110194885,-15.60141050649958,-24.211260023617008,-27.500540050946174,-20.48988852353688,-21.56918521621556,-29.278613024774792,-12.664575027205501,23.179857997748506,33.334051458391315,11.479015757018708,-4.802934219926204,-6.28961027765062,-15.516820203154833,-28.582498736650145,-33.486509938056756,-48.62744402578733,-66.26832907920564,-64.56401988377266,-85.61512931157566,-156.56157526145995,-239.64464498269618,-215.262074186441,187.1330954780946,846.8153733934334,877.6362051466513,31.228294703401858,-518.6134345600107,-210.6586202201642,33.98813813697225,-145.30161040341514,-157.8488394262249,-12.35331546252712,-49.55092433571976,-88.75301727750463,-19.54440713562858,-13.291807949675295,-37.73292158787838,-15.678920683360055,-11.252938464193026,-18.989533031462248,-5.306565464976309,1.2051951581392775,5.419100931499113,21.855018215144046,35.09232361061339,49.483770627683796,66.30966687121972,68.76252762114498,63.15177732872371,59.29059153022414,47.679155244657366,28.454608834992314,11.179423659577852,-4.720704681259985,-20.196178094482427,-30.215025119053717,-33.46701022879131,-33.72931250402611,-32.55629762699087,-26.62498977850738,-19.300182602408128,-25.374559992028928,-43.79650691044686,-48.81094179936021,-32.77713281464675,-18.06342418875019,-13.6551313075501,-9.469154185983957,-6.034033258572801,-6.364761725793265,-3.8435838852921798,0.031554887011978394,-1.878324214159072,-5.982916775537426,-7.552136833733774,-6.710951716321276,-2.224364811582319,1.8115809389879693,0.09731707666597345,-1.7361033262185064,-1.302996715156251,-5.65766378192388,-12.977567192902598,-16.461627779369906,-19.266593482663048,-25.14944918907614,-27.45884654395612,-15.077343246215296,12.220510561443968,33.04598324013582,25.65721424618488,2.835211587918865,-10.330341423162686,-22.05641113489106,-39.6383991109862,-44.05622456111307,-48.8981253525001,-68.77907232833601,-68.74538143856901,-69.50432142032378,-125.71963993500553,-205.25526127103436,-229.8884290925793,7.769858402961972,622.0039271367722,954.9061950232835,331.01844305288853,-456.1044828616365,-366.1760200212122,24.925350714701054,-59.9948766068647,-182.89427321723988,-50.12533016923688,-30.586656871480926,-100.94404386090825,-45.504640012527155,-5.210982834976818,-33.628752381298376,-21.629138352411374,-6.418583316752041,-15.341216056196885,-2.288534787138647,10.974262535241621,14.391056951018552,30.60002770837644,38.010453438857624,39.37736366896367,61.14669965339327,73.1403675542262,60.130968207581105,57.63281074699808,54.224369391355715,18.527503062329934,-17.25375106591591,-26.951784099442165,-34.193181037240656,-43.55640049048169,-46.64990893252475,-54.45574533068137,-58.5013141659469,-46.79760662073372,-40.47243907464592,-43.13668409874545,-32.12471638152409,-15.109606471380324,-10.478357267312568,-8.501977746147158,-0.6710418539929464,4.312266564458735,1.9880062873918902,-2.4397272070406757,-2.954843965259,0.17631054690532721,2.636119613678577,3.3993180440387434,1.9768158267094744,-1.5503047721493672,-5.088485486593438,-10.63314399633278,-14.803182468738868,-8.799100860865295,-2.9061112956957587,-10.820731182280063,-19.809226413596605,-18.494766332171814,-18.883284199465983,-28.358717188726107,-33.67558851405466,-17.5229083478607,18.06064058792964,43.33245020968634,28.93581685909595,-9.594817164803139,-27.41033357001108,-24.700031195378152,-32.109764813874015,-37.17323030285898,-36.73266830149719,-56.894826479313906,-67.69502350986663,-61.24235019312878,-96.48520682276131,-171.41498514574536,-220.02849483343851,-27.306074847117486,584.4568496329786,981.2436786069845,359.0145713574859,-520.8385958276067,-441.4488233501963,35.42021362410949,-33.514480681358826,-187.6379571995713,-34.438291333826996,-4.088146027356274,-105.22899488840645,-60.05808724757976,-15.039756417457845,-45.61144255330481,-20.645040942635664,3.890180369155221,-23.43331429553818,-21.37406417848449,4.641471842355629,13.781059120790651,31.7790311936592,62.50881497972922,76.24396826541825,65.77848198366326,51.506864938409265,56.33424967758563,70.06151415143954,63.05435819476432,35.74365599860825,9.715403190088699,-8.865207481106484,-26.27491496554255,-42.993173918330086,-52.68308445777607,-55.04830224137818,-57.52740276381186,-59.24520783379312,-53.118211149511126,-42.66539090341219,-34.12432507258541,-26.17979544855295,-18.77330818794812,-10.829142590188361,0.5342476214469265,6.141464620377029,-0.23284571844533986,-3.5078936061074018,3.2105241183301647,6.3794004232679855,5.224412904918181,8.560976657797921,8.70018414632839,0.7740002980113321,-2.6234979847163586,1.2891236079329573,0.7030691017811801,-6.230606229055615,-13.416401177786994,-19.525215620094315,-19.754339619691024,-12.402506606022897,-13.703719391178055,-27.216260139866595,-23.648850027529598,8.078523209744176,32.800651156377214,22.757167440109775,-0.6987699034318418,-8.955146057128939,-17.200985329386594,-36.60312665506761,-39.35218689336484,-37.610469526938545,-56.659764358787854,-59.11218362780221,-62.68717626011893,-126.58609139789482,-206.49781136480635,-222.0559973803194,21.34118423622138,644.9007346542764,964.4156514191964,273.731665459215,-545.6370556784028,-391.3560556961028,46.73668551617334,-64.12623154948778,-190.16354633466477,-29.820994192807504,-14.758162761339491,-92.61077960496667,-25.971849035462096,6.466056729278378,-35.60044189722181,-12.496349540132064,11.384608389656947,-8.147479138133065,3.6455306680677375,25.301491961689976,9.892003081306079,-6.508112304913826,6.623392565475363,34.47629825370711,55.924812298089584,64.54544482772617,64.63497870478042,58.0504071474449,45.49825754845314,30.426203626044135,14.347651225042096,-3.209327810579735,-22.48827855119157,-38.537301348950834,-44.43963083955609,-44.259429844059014,-44.569798617187075,-43.35447755299971,-41.052143275218846,-38.71731864439987,-31.086898781472648,-19.499051463035663,-10.428112191166774,-3.1472339923417234,3.330260384995281,7.222944374702914,9.299115097876069,9.261112655193411,7.188023694932522,5.738225496420284,4.802275127191372,4.065277988995037,3.7082590946365404,1.3552056549797058,-1.3069476915164664,-2.7984926371641343,-7.464131012216143,-12.201139069492791,-12.24915942065238,-12.614336745980674,-12.429436296958755,-12.502328672364072,-24.109690194168937,-31.957166002730762,-8.112114386645704,23.504139348738526,19.757684273860843,-3.361368622831044,-9.911595763846929,-16.249676261488606,-35.90586179263489,-36.87931148654113,-31.015775966515132,-53.39636379353271,-64.11070031280548,-58.2630271381524,-101.99007161983683,-185.6870241298561,-233.27014040675056,-40.21493710165382,558.5465909206806,969.342332562019,414.07940702486906,-437.48331312549345,-420.69127820125635,14.107005549107683,-30.016950437548758,-183.43465435945453,-49.72235297140875,3.4068861263855297,-79.89114132635763,-55.79439524653214,-21.115702913558973,-49.26396861344192,-36.15123026327985,-13.828236996847046,-24.622647010295786,-17.81582596119052,-2.936506863361066,-1.614577904826469,11.435968944711838,32.756869210492525,47.25909183790242,61.98408551622421,73.32923941844342,72.6844944432747,64.63415871349285,52.88638242641703,38.000284242025394,23.276509104680336,7.274193474214574,-13.860182316947204,-33.036128945361135,-41.19591676171509,-43.96021407892601,-47.218608401534,-45.002390459040846,-38.55148752801894,-37.115434474573604,-36.15639583956823,-25.35607520443721,-9.121021582558914,1.013596216768729,2.7456056027290643,3.29813614639707,6.620777610093465,6.100130657342291,-1.473389757890013,-6.059990849365823,-2.1298377270701376,1.1234044860608705,-1.9183230043043444,-3.3822469258332664,1.3515829304900606,3.3187526613538587,-3.219109617311947,-10.713689058068635,-14.605313795539034,-17.722153151198334,-20.111224282688944,-23.22836548886972,-24.32951155629783,-8.493491257374341,20.8871246403133,31.665819779795342,13.827191489171433,-4.365404653100523,-11.044678740664713,-22.682931782289263,-35.68195345177844,-41.13913134555348,-54.431429024925876,-64.30838068255213,-57.30787505141828,-79.4373405578207,-151.33680291782642,-233.87973532663972,-189.5211787801645,250.30569095960007,878.4712252650731,797.0740634930205,-77.87612754422099,-531.2245658894319,-179.47165828948863,21.789682925216457,-157.7826980956647,-142.68990288053476,-15.730830638656187,-65.50531159032123,-83.35207893620347,-11.146274874745984,-18.083570816872133,-40.99123782174529,-14.720985463878499,-10.912920317060665,-13.850544850573344,4.833439487655356,9.0810039722225,9.601995145783409,27.30585295404996,43.85041987444229,56.1124346082926,66.75654574896035,66.93831484617675,60.59092944151027,51.92041930396657,38.352681033964984,25.190802483979354,12.905151266196217,-5.1351704654313215,-24.00389372166898,-37.48221323120351,-50.77068808917043,-61.826767439424685,-60.28712070902631,-52.17399481555624,-49.75074283591258,-46.33488945012305,-33.38863329799017,-17.917569381104563,-7.010389771491525,-1.6803750464230376,-0.23481098630875508,2.087431815789259,3.350362769696286,0.017599469861789174,0.07067576024462241,4.08967248055815,-0.1583535660354478,-8.990011675013683,-8.34464621706112,-1.5015838133918216,1.4865273024940642,0.6368294221029736,-6.104956208405255,-23.100076538260918,-35.8943729775878,-28.62198672735892,-19.873770320276186,-25.718767430234216,-15.971274455347503,23.171985434501607,43.42635589805099,18.253205486553853,-11.462255073827176,-21.805343174124822,-31.29810040040606,-34.72145813963664,-31.203380289989276,-50.041212060037154,-66.04493382733976,-55.28002499709685,-81.34558728478544,-160.90486881524362,-237.47453282073752,-169.45705917599219,316.31543245588966,948.7123299556306,753.3582983441286,-221.40782483417306,-599.7239500073119,-140.28409548198724,41.27603244822353,-169.02718257679234,-121.2735594074171,4.64396908570464,-78.71985149807595,-94.92988313616985,-10.681466437321443,-20.474028291524498,-43.46687282653768,-15.91886970303446,-13.222740370474344,-16.335541031647704,0.23656207369884896,5.605398822970603,12.174002258513134,33.581053673739504,53.25952332081046,68.79265536669709,77.70325952026926,72.38676007129811,59.79154170454636,49.428865655825476,42.86301643094426,31.980589969685283,7.7498001340523945,-19.22113875652571,-34.491663595624416,-43.71529468368908,-52.018415004096354,-54.716953548292466,-54.74080726307025,-53.65197786728549,-45.906500664098544,-35.28433361250586,-26.05425141312159,-14.316451835318531,-5.548660910280276,-6.390795328319584,-6.823565656222534,0.6245338023811495,8.838595141010003,11.570051881364005,9.4347314499086,7.3054855318500795,9.013125338451909,10.072336131744759,6.6920061160530695,2.1158833074983576,-5.743866165008765,-19.710259255535142,-28.31834081830172,-23.639196799316007,-20.78818529523184,-30.083188587105344,-28.9694026849649,3.1823055800243765,38.451603871212214,34.33252941787292,5.80443289989401,-2.899627871574637,-2.2678319400764675,-16.833958792274174,-24.069402922031557,-25.93506786539726,-43.518432005235354,-50.92155494411337,-65.72799313219167,-134.26963422929683,-226.08642431394006,-278.68955377822965,-62.760352728202946,595.906679274055,1001.2766288354896,361.5969384244839,-496.5514303007623,-402.6604885867151,38.971670509678226,-42.92720326532848,-177.26496053320963,-32.59747915144021,-12.261401605077538,-89.55551435130884,-32.792984062565424,-5.75337994754647,-51.59506838876336,-34.44310728029019,-12.888909884390506,-29.97088280827152,-18.798437903748038,1.2284380530691763,2.957614013641341,17.671359882554867,40.91606545112903,56.84189394128073,72.68737214369065,82.13753333027225,78.1941392341916,68.94501154347151,58.33181409657175,44.10755886628958,24.50959948776946,0.4839818846459336,-22.853766797346104,-40.524783208205584,-50.59988187242755,-55.26069803040259,-58.138772428257056,-57.23507723964122,-51.03993565815276,-44.402595942467755,-36.53244886741254,-22.931048331565588,-9.908124257632835,-4.473134649015844,-2.249026137315191,1.252770736756048,4.1846051649050455,4.599234034924535,4.047245436316539,6.682788060405553,11.184826859911972,10.160633124130364,5.592106563373991,4.496908450353127,0.895104830302877,-10.819038563670562,-21.883543307533934,-25.640341396766978,-25.11552802138081,-26.157895283079107,-29.04123253424746,-16.83005840455018,19.094669976269337,43.66240532895219,26.681744279195687,-0.7561079437507878,-5.994497013838103,-10.207485593816868,-24.07936480743374,-26.34700860052711,-31.297972394639572,-53.32051980220125,-66.21886447557773,-86.79098238734157,-148.36356732895575,-236.01500368211975,-281.9942967345691,-16.46748302664568,667.5558026709676,996.6813325405709,311.6933339083953,-468.5610004605578,-339.9880914879704,26.2864529555288,-85.68092686125217,-183.79665518910156,-37.35939763673785,-27.651584572080793,-90.0873953776034,-29.820923837033284,-6.7039778999056665,-43.02341664312901,-22.490651008377053,-3.7100669211590995,-19.936617199955407,-17.703734649859886,-8.106813319206413,-0.799807774030372,18.86934351613261,35.66005177604771,48.97395393698926,65.14695781837422,67.65167074121652,60.643854719077865,58.68623471190339,51.09337702120483,32.659578274969036,14.500932709447646,-1.8619033444595887,-19.78307648361413,-35.69253513267292,-46.20658422500351,-51.24802845079635,-51.07922112975867,-47.023901307163925,-42.43067874071332,-38.45871198827723,-31.65900958147077,-21.725991683163784,-13.252161767266026,-5.790483499670238,2.438075521102366,5.958675093886246,4.096004371740339,5.450735010199217,9.911770361566983,8.343142077411926,0.7351335676818529,-4.331612563397247,-3.3974240610570625,-1.9437149961067455,-6.159619007100574,-13.458282315100218,-18.319275898986447,-21.567913370634944,-23.15980936408632,-21.597311039382376,-19.556581003658287,-8.386254968872121,26.060450579431517,60.443696283255605,50.941040018888,8.625373068938924,-19.72672558554426,-35.39726107773113,-53.96872457321457,-56.78562366079299,-56.46295178396544,-73.85162700484709,-76.0522133874122,-75.43534757026106,-125.99627660045297,-216.5295074152063,-260.2807214468474,4.999800730436391,670.6894888085374,983.179993149475,304.8096715728751,-462.8130674098823,-339.00137241768414,17.088150978092497,-91.1286787442341,-182.9257773644955,-40.221558140575226,-33.02999837589802,-93.06798884412837,-34.70841980684348,-12.560195529554775,-41.003916200904776,-14.089828803792125,0.5372962473350027,-19.57118185104553,-12.020200564273065,-0.2001913080883886,-0.6707474152465904,16.427985168987,39.17142670955644,51.955673136024856,63.84317728096675,70.55101547316626,68.46589352994835,62.71160485480156,50.94250853028348,34.61655331801289,17.580647403902265,-2.988770399571761,-21.741484105546363,-30.860616105474755,-37.43561117469448,-46.86369608626211,-52.39661184530755,-51.990031891052475,-48.61970658394925,-41.135936406574686,-31.228921838683405,-23.55268324677708,-16.894860964434063,-8.705506224405836,-0.8001887170847475,4.553515242132065,5.816208596257436,3.0430275146321026,1.0232723006808584,4.495548452562183,11.244203365384124,13.492167591072388,6.82694293193403,-1.6950205607380155,-4.319062753066371,-7.220124331889561,-15.505832854486844,-22.34064371193607,-26.697691195144834,-31.626162876705052,-31.74057943869169,-22.757898659197984,1.619207603209217,41.30098396834858,54.70643516695908,10.30733415382062,-35.03786159841533,-30.72620208688197,-26.35572382566743,-47.86931813882943,-52.43811502110047,-55.266057571488886,-75.81483907592072,-70.62874710689768,-70.46249489781009,-135.04553193007496,-226.8387899691689,-231.06070771529826,114.99838299335102,790.0578220134977,935.5159357673037,107.46453507165874,-562.935599480379,-285.4642086757117,44.858295242988866,-119.53844216154235,-173.21365527545026,-19.409938464306236,-42.233432887571794,-92.07858393425983,-22.016397657974636,-14.336606332981603,-45.42748390128938,-18.7381138311672,-9.438006134492866,-19.87256997075452,-5.4835985686029876,0.9039475846596652,7.030128026711871,34.48058435707332,48.46103133521039,46.87894515342968,57.64907380375293,70.93364453499535,71.07649392900788,60.50883946144058,41.97256918083385,23.9212299462858,15.289376955240694,6.324336294642075,-17.158433485086984,-44.21329944235951,-52.26227058991603,-50.45626046371283,-62.076094639741775,-71.20570020914404,-55.94605573719748,-35.432483914111614,-22.971193657800978,-9.458976458706545,-3.650514243351239,-6.746492974056579,-2.52771905719813,-2.822762254775732,-13.197957514382901,-6.9718792655021,6.97823196124466,1.578891385721521,-1.505696836436453,14.338058589297743,23.44539581125192,15.801147287548439,5.338913539301686,-0.39472765033854884,-5.47430168544156,-24.96528445424225,-53.50675753142649,-58.66090867480973,-41.25100941329808,-26.637298730466863,-5.918184526178038,23.662263386891155,23.94171265146514,-7.612462636570278,-20.91562627181095,-13.15570918061906,-24.344421519953297,-38.512379576241806,-38.84508990443248,-58.38074330830462,-71.79709737911408,-58.8225527713185,-97.24661388252494,-194.2536599393209,-263.3464136241293,-124.31882959161194,465.2642893028369,1052.962854957244,638.2624291570255,-400.6048853410505,-591.1468508066432,-54.88763970834733,16.454570951068717,-203.36129327612733,-84.91142712814076,21.369183028249935,-82.66369165550407,-71.75914036073479,-5.123125129246279,-42.12174213394764,-46.846458688371506,-12.443565337419383,-22.947411580180592,-15.744100564657685,14.517971013118819,7.134300072147012,0.3352160686259076,32.437862222009834,66.41798218552005,81.63755536568246,91.58651695985054,95.21472833653212,88.93102399312073,83.39206255358073,70.94364344456211,35.78997274299665,-2.0815736466479358,-25.033698516548768,-49.63697450779678,-74.05716118190101,-80.68218040554903,-76.99716106264873,-68.10958047353327,-54.30143216283433,-49.64892869716216,-44.94905365380656,-26.453892974132575,-19.439612152006667,-27.281384642970934,-16.302833749751674,7.215125299823129,16.515343825434776,18.707467223099396,22.723059167375386,22.59652696322103,12.593194641707761,-9.059205293274822,-22.352508934943156,-12.787727995430258,-8.58291858922209,-17.965465650539276,-14.132968930603319,-14.833792393759662,-38.61453001898361,-42.34335320535354,-20.371669358072637,-17.6493291159138,-16.2403602118913,14.35548174198324,29.008863771460497,3.2955599266435627,-16.141236669423712,-15.868725728297814,-24.95435801489893,-31.76099816294842,-31.6284730045112,-61.22099156086941,-79.72904412419295,-44.03056224524003,-64.08874359768069,-176.8535321929652,-259.8259091136591,-216.08339008752588,189.58071453066012,920.429000987836,990.6178453855737,-25.568448638058285,-714.2323008383265,-272.11645794590515,97.87276246633432,-150.09126127220472,-188.89558046986315,16.19979646748653,-33.90747698593361,-99.09693212097002,-6.621801816251457,-9.512951213329643,-55.91860800733344,-12.756054222364908,5.704756014949998,-15.699413828532572,-8.448930551817401,-2.2387991663846196,0.6691308589757465,23.97590202137495,50.836969895284284,78.35185406197967,99.30442109026988,99.45763162662496,98.75388461867207,94.81317642009479,63.10193630396401,28.007993469835846,11.161271568114492,-13.015784534156827,-47.57993671457349,-66.063562574394,-68.63305111848658,-73.78498665302513,-81.71027148907672,-71.4442452258473,-39.10726098092431,-18.960041501142264,-22.224242223528535,-16.213328062507593,-2.825933133017468,-9.50256092979653,-18.59587376970903,-11.762488785779233,-6.798379825480488,-5.579495000551152,0.9330015878375626,3.9768805583699702,3.471116357380115,5.801348766733453,6.241050761583367,3.265274117726314,-3.496485539225908,-13.292715717501524,-16.640395741492412,-15.547035747695862,-17.762129623300027,-18.488212584819436,-21.431864582843946,-25.993389043769078,-7.222470217946995,27.448986282829047,30.944299364864225,4.601188958892184,-8.255375547334687,-14.04109178054761,-36.130152945088085,-46.027130913363386,-41.85959257524303,-60.04509657255852,-71.9854595896673,-69.58330286365454,-118.66485533043553,-211.88909922032917,-283.7557479105097,-136.82271399345257,503.21072473247045,1127.629690892145,699.5063014229627,-346.90419305820546,-541.6678851450085,-47.36769469768389,-5.3743085861921,-213.1660210068564,-95.93642270495252,-2.6536504163847354,-93.1549784693027,-67.56987167776023,-4.650637790366048,-39.24048000245099,-36.88671223060922,-6.240584259620907,-22.75998230537963,-23.833501193487884,-6.519947316609911,-9.106962569014657,4.129103585326227,36.43137055893534,57.05389342626859,73.71600144674018,88.23772691737491,91.23296746997433,90.77633371938069,83.70829506416707,60.791066651047934,31.7890203852412,2.4435962325204836,-29.227890636220085,-52.58509094940398,-62.10850871005691,-67.85985057433494,-70.91472948420275,-65.0587254517304,-55.01220663564186,-44.756047523484824,-30.461257903536644,-15.800989874397864,-9.01947039083284,-7.824245139613055,-4.82330990742987,1.5217470889422504,8.613537802061057,12.698814067241265,11.544803768118722,9.074782599779839,10.320754105729057,14.539690941398428,17.89972871498524,13.087483079941206,-4.402408474940277,-20.600043691708187,-20.648751083918604,-16.589250228974812,-22.99573976657969,-29.638413467346716,-26.149691607628924,-22.846109804576027,-29.54990801993943,-31.705752748859958,-7.086442695245555,29.309374159399162,33.48435815746585,6.025679249102378,-7.135660815285824,-6.082398113978066,-24.445023270023956,-41.386748922146765,-40.771132903430654,-58.251146902231646,-75.90523379102886,-69.39899367259025,-102.5808507639997,-193.6839345893208,-279.42189892476983,-191.02609906906673,352.998901058254,1035.2560162506143,856.431020572709,-112.96635373920321,-518.972122238247,-136.3837209643212,-4.5281461943759425,-203.7110175768949,-148.61128281566573,-26.444705481787395,-86.60099056589371,-85.36162159420913,-15.187510529184891,-29.350374045058075,-36.44777165746793,-6.876934131575481,-17.074290350823436,-25.169015801046605,-6.215858264115329,-2.74396144304052,-0.9975419790402897,18.670890530827734,38.629608022362596,55.42708022032589,71.74132826845197,80.53536565277787,79.48633228482689,71.03198514171662,58.252155063531326,40.87596260708766,17.801202058678633,-7.113629963221571,-30.725004210288564,-47.165022943026585,-50.380201922874065,-48.8054143132886,-46.1358690815687,-34.95300200907511,-29.88220801216952,-42.96909175799674,-47.515406909445694,-31.42873884741869,-20.07984876591316,-18.995874679628102,-14.256981450848897,-9.067748121382152,-6.378557357938341,-1.3819261777334866,0.3015474711102719,-4.179822587655178,-6.147243212741849,-3.4583818801211663,-1.5195716653406013,-1.5306279145947048,-0.6121802119027677,2.1240057656498283,3.049623412886689,1.6854274555641737,3.5683567197780146,7.093219929346482,5.368087212554196,-0.5394977255770925,-9.303712991883675,-20.22351950405184,-25.013329059529433,-26.369177900778823,-34.6494204912954,-33.70217832685009,-5.532446567553503,24.78035992104894,24.26519404790777,3.967510457317612,-6.737525934672123,-12.242679916294822,-27.528601408400196,-37.48307099469787,-44.66855177471463,-68.61288962585296,-79.14828326466396,-76.39479222175723,-117.7302111966304,-192.84385018147498,-249.37913720798687,-108.36374380741385,486.6973800465387,1071.8252277892288,693.6035385170659,-273.2724776179173,-494.8337253083084,-73.7122338218661,-24.24892309725385,-207.62602130529712,-115.75909587981529,-25.696117223997717,-89.95814940403116,-68.65594323965799,-17.77497253902586,-45.59835715827154,-41.528476839635275,-9.68775555312424,-16.951062192649836,-17.189579110027616,-2.085516211153295,-1.1752837009228054,8.989040283372226,32.83116520308878,51.62766536450607,72.27115774356534,87.03342798190215,76.92871574889205,59.86025700945453,57.69450261298858,55.76802562341622,36.792804223437045,8.531845583090455,-17.27810132905597,-37.1953913164565,-49.24183592255042,-55.54231569354393,-60.33739515001744,-60.50542003697631,-52.989469516145874,-42.72368341708406,-31.773617393851243,-17.80704749104831,-5.5607280167554975,-0.7007431270922169,-1.0762499668524868,-5.0169585595633635,-10.028681391861255,-8.54479588151272,-3.430749376415392,-5.8375824957090074,-11.883451064121319,-10.615673307634573,-4.6926383099839555,-1.6662984589664056,-2.5916707406239734,-5.0124653340584295,-5.100991122302812,-2.07763821510898,0.008915236765080436,0.5386437863452045,1.8808385415923219,1.438129029875988,-2.8583120372981874,-7.380170783353229,-11.384363017716788,-16.087093594404678,-18.16275152118486,-19.901668891835108,-25.607706647370115,-20.76006197429905,7.379518919650731,33.7720394037966,26.44068830213898,0.6249430478279834,-9.605515442027123,-13.706253422261602,-29.68739572360436,-38.86071848224448,-47.39846961448326,-73.96808360374055,-80.01705624384492,-70.80621751597417,-110.5545223878407,-185.53953265982182,-234.30023042939166,-65.71719990434508,534.2554156423877,1033.2152811571973,563.6504279282439,-352.32318012085045,-470.083614717546,-55.49838335208778,-46.45448583821568,-199.7892936566816,-84.51757660735365,-18.601456675229727,-90.53749568128048,-55.703032263815984,-1.897751754753724,-28.603370640768446,-19.161543784607595,10.989154242659986,-11.399520885479355,-32.82874955616313,-22.20588798042364,-6.971475804540213,10.011189861263706,28.566551200485875,43.59585751770521,61.24925160994037,75.89848081238563,74.18870933114218,62.25999414074731,53.41752578051911,43.63980385537896,25.08230219830392,3.932967031156594,-14.21174014331574,-31.419575477990293,-45.19801697568451,-52.961649347151806,-57.59484523209881,-57.3454712892258,-48.375318379466705,-36.65520562017143,-31.746996678518027,-32.190136836170325,-28.105798527214567,-16.745332108087503,-5.209875452721853,0.8696503817839201,1.9143421895614878,0.509437588011405,-1.7606940298618667,-4.055326857906058,-3.3090748189385426,2.0591054527965333,5.191497064168134,-0.3767834147026292,-8.600535891507445,-10.076787203532046,-5.695875376850992,-1.8225451100620536,-0.7553083355643118,-2.9298675241667205,-7.968712775424967,-8.741182892302986,-1.3080168069735603,1.9087212213781513,-7.316236454766631,-17.89466965092548,-23.68748115278521,-27.395831272550808,-24.902591861500873,-21.287488504815045,-25.433740820230085,-18.994565352184992,10.523300028343181,30.666176705726045,16.888105313269758,-2.734204257828287,-6.722270051817516,-18.96058110911496,-40.608424931606805,-44.16926491653555,-48.57084157292363,-65.28010220029866,-64.03938990691,-76.78584591549787,-136.401654752622,-194.87168419898768,-158.95019664172685,200.53736029467717,833.1399668668678,896.5065436743248,25.61840734541876,-608.461998458806,-288.1529335461332,31.24689445461314,-149.5816586733319,-187.43356218688638,-23.633939426445153,-52.93709760776443,-96.15207460727157,-16.795045695879793,-18.748156376983566,-56.78854240275763,-18.815847858128862,-4.861919748170795,-26.79598498419535,-12.702905135494554,8.19464937346887,12.319990044834809,22.47258057227063,38.86375184039174,58.782220807709564,78.96617870127399,86.44867264099709,83.05420205276044,73.01919156847376,55.7436160316616,41.663119875260776,29.680595212097074,3.566027649944575,-28.221039706354517,-44.95267703374825,-52.74827159311491,-62.95360571265867,-67.58971692604598,-62.35023287064682,-54.97926596792283,-47.86867646621005,-39.02718939097229,-30.158229352176754,-21.864009550160084,-11.316316833997089,1.0959440429613565,8.99702345944036,9.377335611858195,8.397796855026693,8.832309016122153,5.979522765434978,2.8862645321901113,5.069885868889317,4.890534186146709,-2.0528033406094455,-6.435704848105248,-5.987304239884796,-6.377186795453664,-6.850133236066913,-6.145956127708313,-4.749454864933433,-2.4366894676586863,-4.205379606535253,-11.444508827975433,-16.009934253636676,-15.07188840920219,-13.644919215953017,-17.409550050388756,-25.65740156327736,-19.53085915194144,12.590565051890955,36.86594965570965,20.371102103749394,-6.960978054596872,-12.754335305585743,-20.050810750899565,-32.30164748074148,-30.60821950975399,-52.87989895367165,-95.98423840658214,-90.4624674902919,-84.8174420074027,-152.12102691860878,-229.3357254071126,-213.066802096423,124.45240947630992,804.4083809177162,988.7532529466986,145.22709853893255,-595.6658663138987,-326.7341647856615,46.98522400990675,-115.15259145817211,-181.68552844825723,-13.35947249966003,-33.85559118660014,-97.24688820549217,-22.885437776475893,-6.935019626207648,-41.88650801725446,-18.341913624192735,-12.138559710462271,-29.02406602147879,-12.994192460113343,0.28323353126409856,4.029226336895008,25.29374071375272,45.641608723195276,60.46734730843054,80.9520145397673,91.62952061731366,86.13710276485894,75.81568619426828,62.38294381175557,44.49867749852723,23.28980403440986,-1.124207617589645,-24.230589922816666,-42.37084542571333,-56.12835301620544,-61.45788699663258,-56.89472629598356,-51.795532673698126,-50.02559777951703,-45.046976352818675,-35.71676100069891,-24.83304056569256,-12.03970691642726,-0.7780584378392881,4.998476533925306,8.020362646338967,9.33300318392309,7.0833524435972155,4.0862470704260305,3.456463138118563,4.384227798394843,4.02867209525526,-1.3160813228227184,-8.330769655108764,-7.383569918774949,-1.1981250569183661,-1.996581812348758,-6.336541578626699,-1.8596053266873849,6.332857826486075,8.161479922955056,8.471497544442496,4.242263217280769,-17.036084625182678,-39.533491983683895,-42.175430608686945,-40.668021238934514,-41.16389991193662,-18.79595505241065,14.674637073140154,17.52253374356372,-1.747662942821254,-7.247026406887784,-10.250011970234915,-29.208878739369204,-39.08909831785378,-40.66206885762002,-59.96307021535725,-68.2974770930391,-65.53419380616833,-109.56968398264834,-184.93929156173377,-228.14124489579845,-68.95534102834048,497.9067291279389,988.182568668065,546.3636527651453,-360.71640766973144,-484.01513476049973,-47.66707831933287,-20.9274698346721,-187.56264400095597,-82.91597870706205,-15.764236914813395,-89.71072714554008,-55.44972245611863,-0.7415025622928475,-30.625653159668648,-28.323800382244805,-5.2199501689869665,-16.02584848540988,-10.624466341392225,4.144559821403345,2.009735963429889,13.774645586068187,36.38415386320169,51.79708631645657,69.52272547709782,80.43346054146562,76.19009878437666,69.9969841169258,59.65947136884192,41.84480125452734,27.432287110670487,11.78521830466892,-11.717216181829977,-29.632669413027028,-38.6800417750302,-50.82365895489754,-61.05409678229734,-57.21645112400722,-47.74106697775655,-43.79977417283547,-37.83314064478337,-24.429644409701627,-13.83223361523303,-10.08692300559743,-5.770606635828763,-0.6401725283705328,0.4787083318346532,-0.017820956709439173,2.1014755854368197,5.514907567289319,6.154908657470629,3.580796360460324,1.9627753300795465,3.7140377358824166,9.868958828020187,18.494009153829985,14.700884166283316,-6.79414495324426,-19.255818992331875,-11.576124893255207,-11.0189526220733,-22.76429535551637,-27.74533136548971,-31.59709080817392,-37.252247560629414,-31.908472068351042,-28.606783856119858,-32.30098765227499,-12.281930054647747,22.98352948359017,25.427491219125187,2.5930023253351724,-3.815393324133872,-6.783358546543674,-27.97279927092841,-38.52772488230241,-39.05052262306287,-59.89211705046428,-69.20881562488314,-61.529929012213465,-99.73687085516414,-176.13301064083043,-225.4040971070263,-74.8139456837446,478.99937686964165,963.1849112794339,535.8754881525381,-353.6580736405965,-476.6943095387503,-42.64535124258577,-10.806404475079123,-178.74486399664343,-78.33302837367752,-8.462154334485206,-83.99578722530843,-57.00138875428739,-2.2961262479906708,-27.958419476766643,-23.920137252821895,-0.12331115621155675,-13.536723391383275,-11.79381421550085,2.218610128267974,-4.358192328275785,2.2860530444040092,28.851862940782844,46.7828462670426,59.246356369149815,71.21088672302253,72.2717110433859,63.9225894746109,53.71675642030856,42.779174991902785,28.857493330344198,9.286741237256056,-12.517638688181489,-28.733005002558052,-39.517526469350535,-48.5254901901627,-51.83483563467931,-47.079630065506066,-38.444792752465894,-28.065997857971517,-19.258100791876306,-13.556232398179162,-3.390984529971817,4.628692802892992,-8.005209623458466,-26.105818709749418,-21.895994309450302,-9.43099673122433,-9.023799870344202,-9.168006567729753,-4.885838425743643,-5.702824835632722,-7.637644175704949,-5.949149527889897,-4.530298779987303,-2.5822685915772503,0.07833883160957811,1.452184625081344,3.319744048121011,2.7131266981739213,-4.9077886792833,-15.46579897794635,-22.85578980482357,-25.422752513518176,-28.34314002821788,-35.18120891278835,-29.891096625543867,0.7105175116138902,29.09044832467104,22.31319915377361,-0.17500066566517347,-5.459785263492197,-10.854687188862101,-31.281207496084658,-38.920346596150196,-42.92638239281187,-65.72103423351331,-68.98025501465887,-63.425707711629485,-111.25107306572787,-191.4137410576382,-219.60062567439482,18.78756104774746,626.992389755342,935.3388054505816,288.56129293269345,-489.3575193031154,-374.03217723880016,22.510896623085223,-67.24539809625534,-181.64068223720676,-38.13862909625747,-16.146676645410054,-85.61650271294228,-33.4916689105883,-1.1758693985223942,-31.475459217893437,-15.656467396814392,-0.35643913110115677,-15.522868340501311,-9.694024031913525,0.8289616223291663,1.152841672595569,14.978513652826631,36.00186080118053,54.57037869122513,70.01029702378504,71.29198139751074,63.93394773684443,61.55770376032565,57.97206953950933,46.424389757564285,30.47843336567066,10.068946411084603,-18.170186950923277,-49.56834482283649,-67.47351463989801,-63.440592088922564,-56.14542166995744,-60.860143916200094,-62.31852529204601,-48.92002580800428,-32.340573079942644,-18.41507142360235,-5.5350086720049205,-1.4831574460762162,-5.5654588391077695,-3.4973360332345287,3.729566946250607,2.8251999674051973,-2.49041848437939,-1.1336220759637783,1.024862899522578,-3.181038195095514,-5.125039353078588,-0.7173677487183596,0.5265685893797745,-3.509753543554705,-5.804546248566838,-5.705243181204274,-6.684611577134689,-10.748236905876894,-17.11344296418304,-19.116505064944675,-17.67258122680061,-23.849223308819337,-30.062409679227816,-17.10152258413054,9.923772663160216,28.75245564781664,21.171494262402206,-10.5572218857736,-34.39875557000603,-33.586695892180686,-30.984088329972916,-44.90900508707408,-67.60159953075575,-69.75593959994475,-51.24646948020346,-74.39368016588834,-145.2920195569805,-205.03166208010367,-166.16826132840922,218.72341863526432,847.7378036973206,815.444909877589,-110.04561340320427,-634.3370092923867,-207.7079980767233,78.76968330738588,-136.70532598581963,-146.9055643131481,6.572384855833334,-55.75689538095474,-89.01094806300243,1.0933981851169179,-8.368494518778363,-39.948014591692214,-1.7964071011091338,-5.231797895912397,-28.12177938421509,-5.073684479477462,12.810596816002702,22.313853546221708,44.206019751255795,45.06103691669293,39.58744001759229,62.49837368617733,80.79869219447899,70.6938012142453,58.75243044277375,51.51313147258611,32.27569481252089,6.5679830874608145,-12.310396823151828,-28.192218702860533,-45.36361944974056,-57.946110348137715,-62.54338874331241,-60.05108177615572,-52.36996724590482,-46.35546178420574,-44.46226984545806,-38.35803386827497,-26.808029282633072,-16.887419081162932,-6.811029276786261,3.143406869043755,4.0425089521691895,1.9556263179254962,9.4526057812538,17.2616751669002,15.463911889447948,13.86678035715649,14.325761324496026,7.545687357860294,-0.3984441091522726,-2.3956546614307292,-7.596648465863032,-18.079670216558085,-25.484224339698805,-29.282926351683802,-29.714263726932735,-27.262116760195347,-28.73154455733387,-25.430615400172652,0.030294317264498716,28.868743060448946,25.53663833723104,4.234887445457847,0.9718157363883595,-2.2207066305256333,-24.29005720754257,-31.285843251370586,-32.37057289093059,-60.08819511027917,-68.3186429349466,-61.0469450363002,-111.50476847400208,-191.99336013696663,-229.61756628585283,-41.44459963026247,552.1098142014913,956.9770094029349,370.30635787815027,-492.5468198004246,-429.2169632251834,36.61880632360302,-25.569720058456085,-183.8513841021243,-42.68529777384158,-4.6233761469819825,-87.17032379572458,-34.479525019523564,7.207319745781721,-33.84333267400994,-19.94714954939802,6.695951290472046,-8.41440431006247,-0.38740840566457346,19.83588308034981,12.608514488627954,7.361014631839755,24.201875993081785,50.31024789397246,70.37895777090664,73.90361968294214,65.28525008840876,54.292165685854314,43.92675685451036,33.45176347144832,17.24306171656639,-4.980324121849672,-23.822823868176872,-38.56135727156244,-52.51266952398463,-57.44071950400355,-51.257372592331954,-46.579907736791405,-46.06644178809451,-39.90460389670723,-27.5864655013552,-16.65480099643013,-10.154807905645399,-7.311996383299363,-5.046827674867611,-0.7882205399693838,2.8530938463380604,4.2525826002914595,5.683251701934974,6.668717003170951,5.771649257201467,3.8481437090300012,2.247111986429239,3.3138914730116484,5.3449671941563315,2.357761177334808,-5.300038138362456,-15.163384758128737,-26.221648384416188,-30.766137009586902,-28.792350423083843,-29.436460676512482,-19.134472397658385,14.968144189813295,37.4681023520541,18.265500161036954,-7.0919245555977835,-9.352354189187507,-17.081491023607754,-34.002773012958286,-33.13870099925468,-37.30510530893661,-55.456235774891326,-53.29440181502686,-66.62841913374885,-139.19016111058534,-230.3819050255774,-226.76516886985635,125.86475475898234,765.8305530812038,853.4512330582979,47.08705430092488,-531.9453962303896,-225.67565798343628,62.841546080614314,-113.84267888957407,-151.31199406716388,-4.61325675501179,-39.33817245990115,-84.95948623569637,-12.37181692132464,-6.442462152696308,-34.319532985137215,-4.752529097517544,3.8266577733766103,-6.507517056194793,4.3451746867160805,-3.7825546559347734,-14.020662466925314,10.811205027110455,35.46760270350373,45.98034461996282,60.729500931797006,67.46459529810576,59.12729302180297,49.54492590802661,41.08233034934461,30.019891245393513,13.007348642848497,-11.583476513567089,-32.1384525529344,-40.86373539111473,-46.18028426106396,-50.45166995160311,-49.17018677502546,-45.866715324226966,-41.681512594333746,-32.360164587311374,-21.386829571868205,-13.815541427328082,-7.096722067174717,-1.0569674461329583,-0.0367040339672986,-0.6446175292472063,3.0689224422595593,5.706473026495862,2.730280226727624,1.246395850542875,2.7551719437332753,2.020885121957047,1.0878548395498768,-0.7694906263601435,-7.100134673375239,-12.108380720846956,-15.791420791490443,-21.893704564820908,-21.736500521290406,-19.03311294210336,-23.007214662461024,-8.470918311170779,33.334728463609295,48.93754801660955,15.15886334777388,-13.812986365401056,-13.811896575439818,-20.714970444873288,-33.84422219725418,-33.19828649639818,-42.57051638986954,-56.89137107079594,-50.0748821641566,-65.77043444496248,-136.94048781128603,-230.25137734467376,-204.42486306872576,217.75674750398716,833.7125372607012,746.1319146626856,-113.45876873072555,-523.8933124579277,-140.8241935594414,54.35435760753266,-135.61510640342624,-115.12558022711279,13.524443976014872,-38.91482477146489,-59.7841116650049,-8.15220312605569,-39.08472373971111,-56.19927814035876,-13.02139339350785,-14.201794597743321,-28.391248800083403,-7.057874881686504,1.7447845829947628,2.6035190147779312,24.253269770306222,44.47984194215418,56.865013547015366,71.54864615353708,76.18707936906353,66.167178368781,54.3547949187042,45.032290873517965,31.247084433888656,8.090345605124867,-18.03954621862912,-35.477422255130655,-43.38366363783725,-49.02517663120159,-52.887612518868906,-51.36956202815597,-46.17819258381832,-40.160154172665116,-32.848358346623336,-24.607521003745113,-16.37200360232802,-7.295985495424176,0.8732704806507208,5.37578602107968,8.619656768941843,11.105228738832437,8.196646648661911,2.928582977267647,3.009846170755255,6.189306555051903,7.667044209491268,7.278995804926508,1.2064340966382776,-11.172450241561034,-19.56044036484679,-19.042946592675847,-18.012212804366456,-23.90404660227893,-30.13876205162466,-17.155705982057725,21.124203451862513,50.37019504455844,33.12701650988563,-5.958486582748769,-18.20056748828877,-18.27718730573056,-32.96122696620445,-35.1986122272393,-32.277625013771654,-57.53798347618212,-69.0874130952251,-59.92743029409429,-101.64414747247999,-193.4184091118979,-249.84952771132646,-48.18390312510172,550.9872945247095,921.5765065754281,345.80259226130784,-447.2329672662232,-374.8607120259436,40.33958520710382,-24.010433248037074,-156.7218387161096,-26.515606977022415,1.1288363958137495,-74.10232511088729,-37.817546284643676,-23.534396031684444,-65.82482129166902,-43.15516468461216,-19.119153009433322,-36.92177830831348,-27.447711750254072,-8.36620447695439,-5.893812618703929,16.851660380074442,49.99631278251233,63.44595332449764,69.86312506225394,74.86551368103036,68.21725202181638,58.47704436335332,51.09126834942372,32.4968975562705,5.875498629886811,-9.281684820055268,-19.84843165387665,-40.38057453609858,-53.29810181001953,-47.50596412970094,-45.66921705122968,-54.64374322579246,-53.69151643496074,-39.10877253246388,-26.453312181529707,-20.9809626592214,-15.104188664927804,-5.387917257247192,0.05842893310092734,-1.303308985691931,2.9934650275804255,13.556004833538914,14.966595099442438,8.980814546275006,6.36903198086225,-0.45026658933091923,-13.606168356022375,-14.931194643410503,-4.808767263030568,-9.765919720452196,-30.100194623749914,-33.233382176395324,-20.12137886695594,-24.558948891027917,-31.48114841159781,0.3665418912202103,41.826992779547794,37.90159507027759,8.693468747397507,-3.9742572666176272,-16.950189341563032,-38.04566425140946,-35.03915795969887,-32.01939152749629,-58.471219602184945,-57.46926639167734,-40.67434814380261,-91.3276026431434,-174.68966210044294,-227.89730365914295,-89.56692040414,482.9763498374839,969.1169999050179,449.2195300072815,-488.3619718170538,-500.8720737686813,17.224668003284506,5.523518562419859,-177.4988181461668,-39.34402155011119,21.878389796132595,-68.4296183482631,-30.606981825116055,1.2069439001537745,-59.96105292391465,-55.25879774655595,-21.85695957696136,-34.64835792539001,-29.484909832836426,-9.016274993834804,-2.11374183643988,17.442560978733844,40.88772731151448,58.01730014378448,85.13721629194512,101.37353877040555,87.37650390962155,67.66475132593024,58.485252749390895,48.326630380670004,25.486770150207686,-7.260601326459058,-34.71463754068437,-47.74802450471223,-51.91695759912289,-54.246886037972295,-57.16612196021529,-58.568519091780445,-54.877702499715696,-49.49016051720121,-43.80104492157362,-31.28006930823358,-16.732035602658435,-10.814224281004094,-5.69188015556421,6.051172088253285,11.198352810690785,6.017518339435879,7.391086874520836,15.039769162950055,11.164122005569492,1.7483798624170372,3.9385617952900347,8.07477953245171,1.2858232632012925,-9.445769202222198,-19.513067292029568,-26.69555898332183,-27.627858501113703,-29.70669727713324,-24.575093196356054,7.969009018879053,41.63840739030272,34.666586633798744,6.677589958030422,-5.453677328934376,-16.532521962499196,-37.809261157642695,-38.64960545113085,-30.166799354638542,-49.32699839064543,-58.87658526813719,-48.46410779503066,-89.72097798699528,-182.50628765883093,-258.46301505436634,-128.6670195699989,448.7759056176445,990.4726745150643,560.282224348741,-394.1164916014384,-518.7952628369646,-26.900628035379768,6.490911275897174,-190.3562970150595,-75.4628289597639,7.429838120672343,-82.0995328815436,-55.66469411191623,2.4684835694466436,-33.49577846106013,-29.374565954413654,3.139330850510399,-13.219791042115302,-16.348646930217598,4.420161437155789,9.333731783614594,20.02811191745954,43.04031016569122,59.47592533950982,71.78696303905886,80.0343275629825,81.55512264530614,76.46629354340358,59.50401755409919,37.858423447400156,19.372941024832404,-5.609011845047748,-33.62893294176398,-47.70823046726162,-51.851263671196904,-57.378786935015,-59.928525703370205,-55.95745506298347,-50.01449355305874,-42.40443332815276,-32.006569016538755,-22.50432173390067,-14.709168695962227,-5.077045954070799,4.387271820420834,9.184223342774136,11.352475932725627,11.742752447426778,8.912882663506803,8.86036779033297,12.382792105742565,10.509111200385723,6.6920860023031565,8.042461197891521,4.854504318370971,-9.074578461264794,-24.115955302864823,-30.602207847612426,-27.52011093405731,-25.47579550123323,-27.558110527064706,-10.47150211836471,28.81000117965184,44.3608720037857,16.640446908739627,-8.952645748330681,-7.774157585531535,-11.121463428650292,-23.539929909621527,-23.509383625309617,-33.62563497635205,-61.828615587305315,-76.79545985577131,-100.6013355425697,-168.26108171877573,-260.9754466652024,-246.04618516379946,172.509201706086,850.9728529847303,865.9370716979997,3.7408184174065013,-517.4950541971443,-181.11341656693787,50.3095711431221,-143.35502191385055,-150.89894883194881,-8.920105413622927,-51.89152769946293,-84.2965868143426,-15.350229065448742,-17.81120756974355,-39.95708905760799,-11.452876734959466,-9.195171730870948,-20.483158726964746,-6.105765816641305,2.7426240215266304,12.104974269653049,35.54328404684091,49.73304246161191,58.768340404418126,73.08776998437057,74.14748073284463,61.36567674495486,54.03313786595931,47.79191498620606,26.820353405269078,-1.85849513953505,-20.50774885987839,-28.623845566050363,-36.775970079580446,-47.09117744012336,-53.6431041323775,-52.71885531271864,-46.575274793816185,-37.96854958315307,-26.30270056380015,-15.522455254595577,-11.6000102582098,-7.658703555023603,3.4598907996255335,10.630560585810166,6.03758159237343,0.4123293028277839,-0.5639535499853885,-2.3661997095648886,-4.1669134842847555,-2.048358190703725,1.7723868280888713,2.98200827618121,-1.0751352806524181,-7.761458098345329,-12.670149867501832,-17.9153481432282,-22.277510766425923,-20.94340794422784,-21.603545032117815,-22.73546024818541,-0.7409187428628048,36.3882768876739,42.15229338473955,12.309060902246358,-8.1201737265662,-11.180137203979497,-23.281697537263526,-34.5600750122082,-35.93627006335427,-50.42585673894209,-60.42575672295951,-51.87818541750885,-80.06085168195018,-159.31453059551168,-236.18152457879336,-155.51135477042135,327.1421350576927,903.7583662031285,694.7779565636583,-178.88284447402472,-495.51936222515695,-113.8537627042895,5.154831221931538,-176.15287881570367,-117.715260179336,-10.633398105020746,-76.73570655673902,-76.94363264988058,-13.276447691084414,-34.341641449575405,-42.748129517507735,-7.494823999877566,-12.622270568374029,-21.508447880743326,-3.682577790844535,2.3143959342958245,10.47672914089536,36.94328223551047,55.501649748773495,64.16401091615873,73.85746622332371,74.82692156728392,62.53847749561289,47.473898673050954,37.01646612184148,24.570438056786358,1.1110668977443923,-22.21113429044643,-31.352394693484168,-39.41581418300856,-56.102464981437166,-62.89123653281596,-55.84184433055245,-54.236072846053446,-54.859775423786886,-42.87243402390814,-27.56823206595707,-18.664963606360445,-10.355532440153738,-3.39784360405152,1.5826050538569483,10.811094335950077,14.666546603813423,3.131413400455461,-5.829608816624411,1.720082215048139,9.419242649587188,3.6924930484836604,-5.587877237101491,-7.366792357481197,-5.567358438443099,-7.402641303982,-10.798737729060123,-12.953309528083226,-15.736275578962434,-18.63446050007706,-23.659730527905353,-29.75390375022993,-19.564061853773865,13.264369911122277,42.43376738755156,39.58369546555605,10.427969353140828,-8.639056628996276,-7.175767265138541,-17.607870008491687,-44.90375698363356,-69.15856237282975,-85.92049589597217,-78.6357915422,-70.15238571482942,-120.90611038570094,-210.1131733971904,-257.69297411776927,-49.75565799053828,591.5220543286423,1031.7963459068098,424.89369210327607,-501.22104144928585,-468.2585395811428,17.270083509550343,-37.63856275450203,-202.89107111229276,-43.61645204547869,9.456287108310022,-87.09509093009913,-48.861407175137074,-12.487161431856329,-56.789995250672064,-36.99167919607686,-3.119114277353739,-18.687642440282588,-9.380587710615345,16.447452854285274,18.116562782705255,22.946520201256337,38.50701164841277,55.63131118103409,72.7596184706286,74.7740604423304,67.53800761191692,66.65356141082293,60.8384134261132,46.23725293055444,25.31233565521103,-9.570306029931997,-39.777221611396065,-48.073708348544145,-55.78869037201547,-65.065543415113,-60.60233063690113,-59.27665420566302,-62.77858174455103,-51.15526039585007,-39.710586533277805,-34.32283207708485,-14.122967091159971,-0.05273344617942399,-9.377986480064983,-5.773421372223687,12.489977036783753,9.127932045180335,-2.3031851048327674,4.519042703071094,13.856473212723214,12.992158596959946,7.287944840432488,-1.6817179690122543,-6.0167174311593605,-2.585458717485219,-5.220196429440895,-11.515129691150237,-8.57987234925804,-7.7635943759140105,-13.594246229990034,-12.239030457300263,-19.09787050426693,-43.58184816564501,-39.803646799993956,5.559357519064086,28.445468484144122,3.5131751122093213,-17.144970888694132,-15.405259674115634,-25.534420133851864,-39.10053989628571,-35.061898046844405,-47.959692542469504,-71.61060505864799,-64.30108647104902,-78.64350403573165,-152.9532591381705,-232.57173645105553,-199.78353773586832,219.98636566553247,907.7819611725592,901.6031805839215,-49.5497592644484,-612.7878984052853,-210.81571754146682,64.7781695529803,-150.90693002779722,-158.3724624830934,-2.8671829434286167,-61.55252277585461,-97.02419912644528,-12.687013129542756,-18.263162446140498,-45.36539644255881,-11.08594883685464,-12.619775116883277,-26.91547275635437,-2.4281333729253505,8.687980172330866,8.185479202268464,29.05287084552291,49.462606138496,61.95367581578063,78.10206689503444,87.94834012356947,86.15465419521763,77.6107590884027,61.889753649660975,39.260903197670864,10.484754082461047,-19.816277960913183,-39.612582249790485,-48.64874241133219,-57.30145174813199,-62.83246710027797,-60.615380432313,-58.2579185892662,-54.48277746637276,-42.18752688790827,-30.570083510374086,-25.03492844318423,-14.797304491662723,-0.9189917957660612,6.313976131126351,9.339749941227216,10.001662938886884,6.314445888539693,7.27111165723397,15.583089494507181,19.957378062018,19.28499338199822,15.474054724466853,0.3706320087576245,-18.474702209379473,-21.645576186181973,-13.883223408769894,-13.026834631250363,-21.230702263080698,-28.98810329936756,-27.865270574853728,-22.41670576039646,-23.52799349601844,-19.66074344519834,5.681760264752922,30.834016603080492,26.5162598815111,7.826754801778929,-0.7479309803812004,-12.424604514526305,-32.66767090694552,-38.346520081198854,-42.53343018639626,-61.9113607454878,-65.4925203046553,-73.20265664711657,-133.66274573707665,-217.0135937195955,-249.43133624459193,-6.710148702612884,643.3973488003418,1015.3207864438575,385.9789103192715,-442.47439278617054,-378.28624927216356,13.641191742989477,-70.67962159381531,-196.01892276692308,-57.287152772208756,-29.979551165040064,-96.73635931262902,-39.364116546610724,-1.570857016688187,-34.81283590186107,-21.495294113221938,-2.3733577272194055,-13.555364514779251,-5.878847303266161,4.5623510291892195,5.351595666544285,20.775227281560326,35.60363029326375,44.28572262301051,64.72892542034052,79.79664717776178,73.30962304442052,60.96413345905346,49.66092897001916,34.644749734466785,18.272819088180167,-0.070015278314145,-21.1178615066068,-37.07720376504133,-45.09473741469134,-49.57903763186508,-50.40796092307182,-46.55976739262166,-40.750813535268385,-34.096583597755874,-26.63047348862079,-18.041398071496893,-7.215083707227857,1.3315691203993296,3.7005703132391794,7.226480841336041,14.209839646988815,16.491793857282715,18.07976416654789,21.73401505181964,8.820993600853757,-17.68537066155594,-22.504958043331502,-6.765998378808135,-5.465389072850034,-13.804529321790346,-8.424873862718023,-3.897553306142548,-11.564466052710273,-13.02914744977037,-10.301180996691421,-18.343561120460162,-24.78008366034244,-23.323371261981737,-24.062130811198198,-11.375282586016539,22.41386053203852,37.11658289511845,15.234805230998077,-4.726956483046147,-10.160173164417724,-25.714215810129488,-41.32245915286792,-42.88648034472245,-54.80428901758337,-70.52732566507565,-71.2180946174744,-94.86271626313388,-159.3698240074276,-224.10326987134692,-141.18173354315496,328.6247319614338,908.0448503078744,739.8602625774147,-127.6667424147916,-509.3188482729704,-158.05852416083974,2.782346254689756,-164.1244511504491,-129.91607449437706,-18.915934215549214,-74.50160914712461,-85.7839977385555,-19.984409167811677,-28.603165376963283,-43.56851601767519,-20.566271062287036,-29.75476052414887,-39.10349875866833,-13.282789888556618,4.041877177918245,9.871666674211095,25.466079148781738,41.84664709297828,57.596857598766455,75.2872323580189,83.94514404999815,78.76421166306511,63.52120134686825,44.94015185036975,28.75321626509802,12.22365109113802,-5.21078716935415,-22.40862067820082,-44.46421483633267,-57.43775878501731,-43.748168374462416,-31.432688874794025,-41.056247051002764,-39.11931216461373,-25.59901536064526,-38.643890875959364,-52.26054948432677,-30.17844668554682,-9.511703791397444,-10.295928794162045,-5.084198652667425,-4.691089859101709,-21.522604505480963,-19.123429683056997,2.719434853039509,1.7568465924434946,-10.126865625814798,-0.10771681455161541,7.669094249145282,-5.56623736618204,-8.88690065898443,-0.5116507348458192,-11.352538766498817,-24.637411482271766,-15.321917346613347,-11.809224466990191,-22.893523404496555,-19.18457829068751,-16.403576893838782,-33.17722488158244,-22.93386888497285,25.347367759355137,40.78067591626612,3.899206418555071,-19.913322755833214,-14.217046470221677,-24.109653878496555,-39.235716462990894,-35.72278558991352,-53.12603210996103,-78.77542521503622,-67.5698869604186,-83.26915015339885,-159.30476522593122,-229.4110398989603,-173.38726305243418,276.2372677963185,942.6027828749529,839.622417992399,-153.5002256984027,-635.9188445402631,-181.84726807624813,56.565049417768584,-162.17278902924642,-137.48400794679551,3.6006261103128026,-71.82921739510098,-92.36647257343562,-8.843689423560711,-26.842351379692097,-54.09084371580892,-18.493189063648494,-12.266123731978874,-20.490965795064287,-11.936971676100374,-7.812342619250247,11.474656833345314,39.23334307569688,46.754726257620995,57.43191152675277,82.85459951893193,100.6474604563177,102.14303272543441,85.37085539605671,59.70400634832755,42.873469302651344,24.02292256461937,-7.837046584622625,-32.03424340827145,-42.282161737685705,-59.276768518389034,-84.96358910771569,-97.67972017674822,-86.38292713289454,-65.4312132255145,-52.564217980610124,-43.27520861766729,-29.02992723235294,-17.850079044600967,-10.434023015351205,2.014956686431333,10.724479088134476,7.512553636524368,4.748746243092047,7.080350221209802,6.818051662960919,7.2766884764373625,10.467250646655105,7.242230741504145,-0.19467981943052948,-1.4250587074428118,-0.13062512903186985,-3.5366082176176157,-7.854626220152394,-11.387607355255389,-18.873754635727796,-25.39181501492727,-21.46483800246718,-15.614899456965565,-19.445835776090924,-17.55502523565282,5.209986665416071,25.90794792852587,19.945254825396184,3.1512691700276267,-9.14506497492992,-30.79910580654212,-49.22856717884427,-39.80444722959293,-39.76729530325293,-64.0214006692446,-62.54347358452104,-66.85058998886385,-130.69992348776685,-207.73391992761248,-222.66888430280866,57.48974161906085,730.7864116441683,1010.8317677751315,244.45618868127895,-549.5891755701324,-344.13109249820275,55.82032547373737,-93.5608706861099,-197.01082166811318,-30.462608344416424,-29.631375175034123,-95.56788673460595,-23.372341338191724,-6.277507736344361,-48.01850880902134,-19.478387410834525,-5.535649600387405,-27.35967643961073,-11.156210930205958,3.039605794530413,-3.8208674440831256,17.102910892593414,50.834534147220765,68.51984004260079,81.6235577634468,88.83821251792914,84.98188422967915,78.1601476859758,67.9119851212825,53.822666999759804,32.99680183046463,-6.345544171292852,-47.86931644774056,-62.22458702277906,-62.807070905103,-69.66650279140049,-68.21229355164314,-55.59668389231297,-47.546025601241354,-39.81489175517795,-27.611778246419348,-18.726615588706096,-10.138529284478402,0.435790199527478,6.4396894406812635,10.732304244013275,14.202203980654627,9.804321601288143,3.9484204183482614,4.706278787883422,4.242179726517696,0.6023572196817675,1.7343973197425528,4.083107837030699,2.2987477792529756,1.362213202400346,0.5271833766239524,-3.769470377629913,-6.896012257535862,-11.206318927231514,-19.35249355708987,-20.124081376648583,-16.53046863684096,-18.44421960667924,-4.812724958005405,29.146080393537943,38.22381535053772,11.69370745958618,-5.367339614477644,-6.897265136735545,-20.264242691094164,-31.68782617048141,-34.833837182848804,-53.931198617084426,-61.714198023724066,-44.55066010578708,-70.00785311329844,-150.38855982691243,-230.52146179591864,-172.2227884691997,288.400868331561,895.2966775791449,731.2874310248714,-170.05485918493702,-538.3650716991989,-133.19174000615243,31.860836840041806,-160.09546716413914,-120.93320961518886,-2.4751214360047413,-62.7823285428336,-66.42630953459081,3.800912781078287,-16.609046242544572,-37.477189696601755,-8.410472104639748,-7.8913013636724845,-13.205896252297224,-0.14795993795946805,4.531020944785361,17.35503993216258,37.588545028585656,44.86154096260779,60.70068943081332,84.71197736836476,90.56038433890411,89.55821582542455,84.20865556519881,52.67906611322394,15.818518882127876,2.089716798701251,-9.516643819195739,-32.54737820242081,-50.29942203833772,-62.063496033085286,-67.57862494158437,-56.73473159207262,-46.144369072673506,-48.592329458735215,-44.827956988885234,-33.42560543287451,-26.279828923495987,-12.717694694549419,3.276224962500631,2.61975971722142,-4.080144283072304,-4.092813813723481,-2.484030127360956,4.5274408695408646,11.036111788686515,2.0860832549920545,-6.477019713570506,-1.2494575576216285,-1.500381547867395,-10.64252802518645,-12.349755307660626,-11.35213187191625,-20.26627704661953,-32.86752481954001,-32.37489458432786,-18.735831851563965,-14.170044836543504,-17.226092266152936,3.1788771364941084,37.734727155084784,40.29915516275931,8.812871957575815,-15.180444675165088,-16.87762985388443,-20.947431759356846,-40.346822226469186,-63.57716265014939,-78.57819034774607,-70.59230317702338,-57.44002053443612,-91.05531728203356,-168.47458825681,-256.44133701491387,-213.31025180481794,274.31861349899816,948.044382451461,802.2738932450359,-155.93718748511017,-562.525741855893,-138.53153771194866,34.989170293622664,-173.0196437050469,-131.07033785111878,-0.9672510085637072,-62.45890321975183,-64.05345866103858,8.167661136351526,-27.25374054717318,-61.549280316693725,-28.187247667252986,-25.31991009377689,-38.48175772537752,-25.840561381644648,-13.65392814253872,5.526441012587844,39.19588319410053,60.17481009532056,68.60833549636592,80.65248365628452,94.02707361995336,96.72270719380379,78.2032173117347,51.452699534448016,37.57439399995689,17.47702670517125,-25.357480171013734,-53.64011007389094,-52.43659111547967,-61.08351349758046,-82.2809768975526,-81.91340286179641,-65.60039435749248,-53.87971961110941,-42.28496914307365,-31.002162723121895,-24.33023045116058,-12.44654889363251,3.7977557610725903,10.471674530171043,7.186527464084076,2.1301123413611265,1.5192545234491348,8.95544952773015,14.077334098771104,7.606739818975836,3.1941193823151774,5.084449235634935,-4.189626783463677,-20.44847920790618,-26.24044351157746,-27.691123011946246,-31.272441632768718,-29.368286307222057,-20.771406737686647,-3.559426909992405,23.358873236688147,36.609933220290884,15.615845824580454,-14.206343670480237,-21.423124306349322,-21.064239931690132,-25.820982913216298,-24.956005361871473,-39.33288817426745,-64.5375290778173,-56.47913401269444,-64.98604076534679,-150.99235708496977,-259.13406462057253,-259.74494124087795,120.685564910842,836.7118678301276,956.6167934858681,51.94819793028029,-613.624544859586,-252.29666767014197,92.1409816244702,-125.22609029030824,-187.2937214585394,-16.20351928930107,-48.5661875537584,-103.68111728492715,-27.651632298083946,-25.83166079640216,-58.556742980138964,-21.386881854011506,-8.793033154594632,-24.08075438381835,-11.731965044120543,-3.9504796045564943,2.634375198080704,29.81007579868944,52.94443928619418,74.66367608630352,105.30385093957024,118.23586441258128,108.01175333774572,96.79893653341723,85.38677058135082,58.942269827844235,16.52327715806397,-23.847365732262396,-46.90578879512201,-60.02611100823434,-72.36097714292626,-76.35481499168,-70.37746756635096,-64.1675527167746,-58.476726555958706,-48.21576559787972,-31.555418701006914,-10.431421489674698,2.9664455114900257,-0.6848652085995681,-7.295211615004737,-0.9076869270835495,8.98316794361727,7.709013947866183,1.8852194046947535,3.141573268334744,6.190709436546108,4.707581617908774,4.025241975290507,2.5207476205578647,-6.203697534534145,-15.59165686001257,-20.21255159488166,-22.177322874469724,-20.00689949771417,-18.790777258446276,-19.514003516780964,-1.3516770331264123,33.14670879122802,41.49895779053507,14.529413801124429,-7.565691847832031,-13.40512640640398,-26.41796901682051,-37.97567288111783,-37.91211368052449,-55.05396825966092,-74.98216113493778,-67.10382092645531,-89.8402712193814,-174.44672588563702,-257.0707148031048,-207.58035133245107,223.00935053180163,878.5434855608194,863.5941671707913,-8.962986037116565,-516.7730596202608,-166.7116341944324,55.57122275140853,-157.68446080565045,-171.64752429967368,-23.633829305170806,-59.86035022212525,-89.05720271018328,-20.16006972109957,-24.1622395377739,-48.18813383237623,-21.623932924079398,-18.917909591840456,-26.99372697862869,-11.867698971907984,-8.608822727730443,-6.493507049470738,17.936472798234153,41.487266963400344,56.04676076671497,71.55416429371635,82.15744955851495,81.23956704913991,72.79620108270673,63.58959209148518,52.113940143033076,29.983941437950982,-1.2935662750270263,-31.814504667163753,-54.52230443248803,-64.02839472962529,-62.46727034963784,-59.505901855983545,-56.23602940355134,-47.9139694210138,-35.70261829550257,-22.451607892472055,-10.818709215371257,-2.7332675970587097,3.700108518335796,6.37139194969712,1.8689519603874025,-1.3506950459726443,3.2913472490002196,5.57216322617856,-1.4319039350132137,-8.10044369003488,-7.9663483228967955,-8.600261139110717,-16.297954893179323,-25.805755086501094,-27.894624778616823,-21.733107001272646,-17.848264595075236,-18.632799460528926,-5.814154567855278,25.514412990797428,43.4379532125667,24.948077649313028,-3.6574690041324516,-11.102978014093217,-16.470538822200513,-38.85615207393859,-45.35216044964955,-35.515443790648675,-51.05506821327076,-64.32411028723388,-58.01134968215808,-101.17328384843125,-201.0556167714662,-270.4585573641058,-105.50463796365693,479.884228116931,975.894021401195,548.5536199239606,-324.9740250935986,-433.1644781006577,-14.995628036888698,-10.954846540442727,-192.88180132489907,-98.7862333614747,-28.375907783930984,-93.51413507271096,-62.54942138786869,-14.475794458393029,-42.83960715402784,-35.06089235916093,-8.103392783636068,-23.874218781206498,-28.128494675592357,-11.906088905609709,-7.264496650776086,5.927174926930279,33.180392590925905,50.882355789753746,58.54690335020984,66.2174340560586,75.00989728625507,80.8152278591424,75.1585186306685,55.8403398125805,31.312776881283277,4.980283299154716,-24.620704617472974,-47.39104127322927,-54.923454314588184,-61.63065473217948,-76.73959142810563,-78.51380825825186,-56.0340884767869,-35.91232550449935,-31.924306368537515,-25.29515616256312,-13.506326889540517,-10.114700806585674,-6.359234907653818,4.002449796856951,5.638854679345158,1.0967184988670802,4.131143370472088,5.799088403460303,2.8494577587901055,5.14879096343601,-0.16612325450432408,-20.30246906597476,-29.881327497495953,-24.14910642251539,-25.752069946023024,-31.822886299975302,-27.508165576411514,-15.860624365655136,4.389742177497851,34.72176593681161,48.765591303924296,22.98435125043065,-12.606357086648497,-15.660396389301862,-11.757353955134306,-34.03351738810946,-46.389445371420614,-42.97874445199913,-54.39457739850773,-48.37071283949592,-44.26827903053033,-118.66583072531557,-232.5919270712984,-282.5059647196228,-40.028844160759945,639.6129572807661,1027.043076918546,325.4314493326657,-559.7090632459176,-414.65302633337456,57.89423506492947,-60.54461229103357,-210.27889741377942,-37.78695123370201,-6.10534563598452,-86.59697475600625,-26.26523128130755,-3.298513156381148,-56.70669624665129,-38.05874077754595,-15.51687338746888,-33.551290236550614,-18.053425147301063,4.117451881790964,-0.6256731592221452,10.336106042467998,42.56305627812897,68.90955363181772,84.17113202737225,92.01587063774355,93.54034267913447,86.52734241782044,73.75704306255457,59.115611191144524,