ECG,282.52847114641827,307.21851821472677,327.63031787613005,323.0609609254668,290.90884697396166,277.05273545154796,303.14642335739813,309.7303833343218,268.92620461823157,244.9325900012385,255.1750333497373,250.26071252180975,246.59826221363244,271.915081382765,284.01387537453195,286.5637227890978,308.25449897604824,281.06237331895386,192.38761087981572,166.65459737093977,220.14911253002992,225.59145678070632,156.50065090611315,105.7968953197169,116.40227888377422,135.17682269262002,76.31965891370879,-83.5837871035468,-136.0030983858153,347.8438973412369,1290.9360641713656,1602.6039842651762,629.802986195381,-430.3614678094706,-358.0060358781998,127.80242722010621,89.16189083341965,-33.27816611855326,130.43590806862363,180.37796414450463,77.54181410782411,109.46764772358853,194.52508627854877,193.87872101621338,166.5506105977684,143.34872691397152,139.06704730333706,170.6691683714671,183.82452290824818,159.6364991007768,140.72641267052876,138.47576664797845,150.29207327454822,163.3296406671913,148.3807571363456,136.17397076893405,173.5528513027453,219.86103404753624,231.87295313522685,236.02876031724668,246.86505440579788,257.2372333521252,261.9871010224087,222.75533166612456,141.47204903347523,95.73017463460076,87.55324284751438,54.699491284121564,24.67672243273168,35.15611636047717,42.83326865891513,37.99407175640616,57.516200697956435,91.59137514655066,109.36684692459627,105.2838790867321,94.4468428888685,100.4070168868949,122.13169625547792,141.27037739182825,148.83232204805438,125.29147446158512,77.976069303824,70.53092639223709,109.97167466989896,119.93906900884542,85.09566522159909,67.40544231955218,83.2337016838188,94.82891858471217,89.09057354827547,80.99682482696821,74.45789183841276,70.90354145308882,75.84007620889219,72.90674075442112,54.4662225805377,54.66858695321133,77.95878827586205,81.10833016131346,69.822155413352,83.20252241400766,99.94777344015571,85.96153933673253,67.8624987021978,74.42865398586818,82.74351477100974,67.1281381199746,44.27748790383322,40.34146279579433,48.80599803598167,53.06288700369629,58.0225402647057,68.25344616587337,75.35779966951067,77.41566727256657,74.81657553514808,71.75138807524328,83.0360972448694,92.64304358811805,64.87193060885713,23.527703887531985,12.213256912180768,7.425863441236629,-23.286993069674878,-54.17578757093611,-56.81249845705037,-56.404741839654235,-92.556990173826,-174.51191542504404,-284.9952533398214,-208.19167210759647,456.2391546935727,1379.2468829550708,1300.623120670078,58.7656343714728,-705.3935804298985,-298.7809394357308,60.8358766388737,-141.10189267024242,-180.1793497898909,-4.022902958280245,-28.77924028306152,-75.72356378417484,4.841141879717412,20.152399683007463,-1.9086956969609759,35.97698362133053,48.22935835105837,34.95448558992374,52.8903394684134,51.4454566972603,21.80435018816283,21.11867853765169,38.520915550561796,39.33239360538704,34.82999359406111,37.9009827947138,43.137726399769434,48.48386651211405,57.245441272195905,74.47311245091112,101.71813256399422,128.2438641034816,139.36000796731506,129.40025822163392,98.23471209694345,50.33236452554996,2.0298855805441747,-28.705653170023464,-40.459019031244054,-43.710350805598345,-46.232500275165236,-49.33746411104973,-47.062468914123116,-34.93586616937867,-24.18762496578708,-23.519881725917685,-18.271734221403513,-1.1480029953595867,10.460790448828625,12.318525899790753,18.097112780967365,27.327779539347638,34.52790276486818,41.49144316753349,39.798415875304116,23.56462954847856,10.361666697783765,14.085139301553191,22.737048460430664,19.56353642763089,5.189699389342135,-2.83957830703649,7.213274102425821,18.21491332723097,8.939291018770799,-5.629957408728309,-0.18506307468877736,14.378204436104788,14.291352737026202,3.5237463101643414,-2.5628420606412234,-0.06282795516153428,10.307272812690204,18.259459705277884,6.462602571317779,-12.564404793670267,-7.068432088411441,13.185551075767336,14.979088018176327,4.307454591981022,3.0143644215453875,9.74377745169198,18.77967188587005,23.00057263477277,15.386570796408641,10.367653042017647,14.691921535249243,12.65319159214743,10.797794372450547,24.006767748660874,41.17520524275646,52.03255803686859,47.39586073704709,19.738372396755363,-7.016430366838775,-22.986803663216868,-50.29492370815937,-80.33223292732308,-99.65647159897219,-114.47693569597733,-114.44641672054203,-122.10651826887445,-185.54118403568384,-296.31752246380904,-318.2746304531661,118.4106903133922,1066.0542312553298,1483.0552186166499,540.677574337471,-595.2292292097675,-551.0794933525659,-47.154502775251515,-102.53248059200399,-242.2640814591394,-79.63162323719308,-37.45199574624182,-121.55871223721934,-60.59352078056537,0.8355852118560385,-28.496176244556224,-20.7695316838251,-1.1922267108628315,-15.862248272101862,-7.977693274394731,9.431925731372193,0.5547693885887246,-5.525719102138726,3.3930106008836205,9.426163418094951,9.80793501571847,9.676034306950712,12.39381016481332,24.869120141234152,53.02913780796305,83.51207282158677,93.33283517115808,93.45703951891775,106.06893496004159,105.29605331209052,64.35359289472132,13.65143152388319,-20.437032392900846,-49.79147264939975,-70.35298822788573,-67.87697712805908,-56.523028526040655,-51.363256746753194,-50.95460758768291,-51.28601196613626,-41.22414242572614,-20.05386734086728,-8.871479021086994,-11.672342553676032,-15.511707942319433,-18.48501794507211,-12.86344480656231,2.7022833584574677,3.3929806535738507,-8.151093267506807,-2.029462736848215,9.19121371917645,0.051251535591806174,-11.853192991472906,-7.613676624139147,3.626901577517513,6.4761631607448535,-8.268798758788087,-24.438520427675847,-16.126996300022057,-0.973646884695496,-7.841375979017858,-18.54268811053501,-14.788951143222913,-11.09423601364046,-8.345330756078173,-0.6888068145433639,-3.3130940434963687,-11.889514448961094,-4.721982527349883,4.13872985620549,-3.3551057500939727,-7.920915566687238,-1.0519598717914995,-0.3186590924316608,-8.278612810184004,-18.706155686938015,-26.849588562988725,-20.593915396811035,-8.187176377864102,-9.87597369465142,-10.884415718382442,4.671003828509033,15.989218324770334,12.952783259630369,9.59358800585721,8.308352587796389,3.8155145408767153,-4.1821258517095075,-8.75626937220018,0.9178728544059078,13.911445841203431,14.603044732730316,14.886908813733644,10.70063562601414,-17.842720837313806,-47.0880034688022,-52.79031053063282,-52.58810929742639,-60.22180085919902,-76.56547359956673,-87.15095804068741,-80.79114010229969,-108.71203059298008,-210.33828200126692,-332.1256603610066,-276.70222069948204,310.1293540788117,1235.8698544702697,1330.8135473012185,190.92891666528567,-703.7454740378877,-424.9507318970791,-26.219816187911622,-173.09221670520088,-229.25124297450816,-64.82303331354342,-79.61248751229711,-124.46115097045377,-39.063515732617645,-19.665865878765338,-47.72992969087256,-4.782059281600455,22.721253128783303,6.158862940588872,13.085014694853175,23.268896889622997,3.476817662109835,-19.871111479364068,-17.88733522381431,5.756562221481271,18.98899735975343,8.890109074780977,0.09430618509771005,7.483667705171133,29.47890073342392,62.03331313426792,86.04315631490829,91.82728430606107,93.53547337455181,86.79291291859528,55.10822813612272,12.926995855409002,-21.95360720993277,-56.422255770920174,-86.8313378221807,-96.91669229171808,-88.07758599823457,-68.54773530854766,-49.85935334138407,-49.88610831908035,-55.29445598488168,-36.08654447815783,-8.934647598313902,-5.1028652662002045,-10.967346713845245,-6.9220576655195245,-3.408667483626921,-8.154945904266686,-10.993802611245307,-6.168134650685769,-2.380411946221731,-5.748234594619948,-6.454967984546418,1.0403872861052736,5.6922879935331565,4.005244492745298,3.05883123140117,1.7977875240935948,-1.0385181203117568,-3.1064556846581866,-8.679848332507348,-16.608115629678856,-18.36097884193538,-16.920274843148,-18.879650774709248,-22.32734399745312,-25.773344070096663,-24.97252431287149,-15.41384874656357,-8.305751806687308,-10.274594982729434,-6.355854162678105,5.970739025728341,10.154093794937136,5.4620383987922985,1.1310195993077112,-3.1018229812929796,-3.5936834527828623,2.1060513631175475,0.4905690658148494,-11.516803823634433,-14.11564621023697,-1.303492467314662,7.198345700451089,-0.5144528036133842,-12.343897392329604,-11.4146158829481,1.4009586637464295,8.938641744024856,5.3709797384726095,7.701113855183166,20.673981079325152,15.374071960244336,-21.706663085089563,-55.93142708446021,-65.75294827327193,-71.60884530610858,-77.41255025651229,-78.86845881826055,-93.5655353418117,-108.00085617025907,-108.3099120354029,-148.50454113886298,-272.9619178154047,-381.86882541918965,-110.21553075060405,781.3632655637592,1496.1729716746427,888.7662256730216,-407.927988933508,-710.3283092842557,-153.85961724468632,-28.59519907802479,-248.72539430016138,-160.37023252439792,-33.257669264435876,-96.43904988988339,-83.79179857765354,-24.600043886922514,-49.33732567097685,-36.22007007116883,10.136861114248745,-4.409094733786677,-19.34513304057382,-7.757825170359084,-11.596060698659006,-11.204710884576349,-4.058600724532612,-14.391723027876708,-17.550624469801683,0.33541707757611317,17.43482387715588,30.560972690320632,45.773782892449546,61.692542958880125,79.59521296115828,95.32494351627672,102.05425369255998,95.91800873972306,72.44013613414947,38.447149817980794,1.3825634887248803,-46.14181016809516,-90.3634801833342,-99.47101679201481,-86.51425376153198,-87.46789001666203,-92.14750812635756,-76.12360497657158,-54.041476361792384,-44.831836574331476,-37.82737987928627,-21.621993479714547,-3.2893458621670355,8.21838049239015,10.53108281656289,5.996362677379462,3.4046591223963336,8.60387369772672,14.46038334292469,11.008425748129346,-1.230772889670007,-9.092491740678266,-3.23718398514222,-0.9257011145108613,-15.503989220110974,-18.335135237059994,-0.2483787040629153,-5.875728301237938,-35.80912823707217,-36.22487768224618,-11.479371774101113,-3.1777740729878055,-4.481056501669183,-2.5411906499636103,-5.646208942610377,-1.1384362161150676,12.713399478101087,5.198403016031133,-18.738721916168267,-20.428672533770495,-5.226860561790602,-9.204119393588819,-28.293532985997608,-31.796619814763204,-19.613448168696554,-10.081486936753057,-3.3504086407885545,2.293902331234584,0.5328062096359076,-2.860598280052683,-3.3853897721392414,-8.179827125573379,-10.80489915522934,-2.5709166724456622,2.4571004534019103,-6.628075012320288,-19.133991324850882,-18.904505635314152,2.114751614483815,26.597773805453436,24.98264775745138,7.614458403630799,6.417532615304072,6.866379169104675,-24.052674339556894,-66.53098008249435,-77.71251160288607,-69.91637220197259,-87.06980501846544,-114.27803616327687,-113.830155647124,-121.28533135601371,-193.34853316576908,-324.16446644939424,-319.24452596930576,246.1646614477533,1241.2599284927528,1447.1058517672273,311.37482688892055,-708.0290166689922,-492.24835581119066,-29.08898795833358,-154.62780038493074,-264.94482934459717,-97.00084041605166,-71.03627044765733,-126.50986064050846,-62.217444637439854,-33.75140316535945,-50.61281440905037,-5.695093697287437,13.807365002271737,-15.165179917017017,-2.687854436926399,27.83293323928131,30.66231393266336,24.808848794244174,4.164719698394832,-30.70135205235509,-37.89171520942892,-17.527342098179886,-6.2781718669551525,1.9179913840540246,27.599332107454572,49.8925781850675,54.33984602116044,67.6808382735256,96.78973024434559,108.37486692543902,83.07752469724689,31.023412139074118,-24.55119450469601,-59.79470327200947,-77.27550319732727,-92.763544059624,-94.34613479361497,-76.69004948980339,-70.66357115471891,-79.09932344181925,-66.68381147145828,-37.78227645074325,-24.388340926129395,-17.88636528763674,-0.6510383407346829,11.170964325411227,8.99259567368669,4.911760680938404,-0.8605950714950943,-5.395276664375338,3.2139481474169003,9.504999943645387,-5.36776254491021,-18.148557310083707,-7.95624794853974,2.1708712375328254,-6.458630352647582,-16.80300074770761,-13.479139944575046,-5.354617086300504,-5.22359861742477,-11.637109645878962,-14.563866685345225,-11.988899232812024,-12.127485616752299,-17.428995360028164,-19.19489247092613,-11.445956022296288,0.4476577497894425,5.86806997285691,0.7780525860981982,-6.091052058782205,-5.206502901191982,-0.9664617825129991,-1.8932897368534505,-6.509695020523214,-9.952867186762559,-10.540156016318711,-9.843791964512997,-15.655099777698178,-29.00382988658248,-31.84840400568354,-14.462813525242012,4.120970836339568,7.233816849969867,2.7051751968431876,3.3126826242080654,11.13745060813535,19.395706116171446,22.48035783062147,26.06102016391508,30.676989122995394,21.174147200830447,1.233640280391585,-11.956982847125474,-38.15120252845449,-83.80615075187433,-93.49457632916858,-70.62738300141046,-89.18086901815933,-121.67763304073618,-110.81995340202097,-130.4497509488091,-243.65997351859187,-353.382041923182,-150.86200609686207,641.1068171229182,1420.1428924627319,1014.2943895100232,-253.24226832571426,-727.9995868780783,-239.80465618591634,-27.631233097159495,-213.03842607032055,-162.44651222918236,-48.352019478482774,-110.7487807109433,-94.48508386244947,-8.372336604420909,-21.452469629569784,-27.782926888702576,18.9108981029235,26.027867416651006,4.815143956299632,-10.558942147115026,-21.99440522896417,-17.56551082988444,-13.574030441080223,-22.83553508076405,-22.305175690762205,-10.970299016442667,3.18375398195061,24.43758544137114,40.2922709808261,46.77700069034435,62.45207980504759,90.06255217465475,113.27848623617965,110.95851727722058,73.54590099574747,26.344946446169402,-5.128742405945486,-32.984027965642554,-62.58594794327431,-71.72589933867373,-63.20349398278842,-66.65525541661113,-79.99208745748487,-71.8857258529666,-43.798973500946445,-31.44716032782179,-39.48668523115454,-36.184035253786256,-15.111799934351964,-1.1625603603459957,-5.2757735699525945,-14.62967848543446,-11.084911703995804,7.354950058065146,19.86660676234382,15.989507526588211,10.960161860882364,12.874489333450297,13.969546776846983,5.63940388804674,-15.69568582851982,-34.36317277669491,-34.142043983218706,-32.2462211119653,-39.41819652735238,-35.07487712619428,-20.991409187174575,-16.656083177009002,-14.042337507621081,-6.2969134659192605,-4.82406824938694,-9.277801253965428,-15.330303902650833,-22.64770899358446,-20.839856583075914,-9.168358476220796,-3.8855162206280127,-6.109334443284988,-1.1804694190773812,12.800453445059969,21.489948507504216,16.004977697023875,4.942964690119563,-3.2068135406678753,-8.643312141783808,-6.865895736983887,-3.2889463957160316,-14.248678127496696,-25.480325456094516,-17.743192439074903,-14.019469454032787,-20.245021414478273,-3.7874812195858993,24.5741767975156,25.643737093071366,7.431554930394915,-5.281931353061664,-12.94853532708236,-23.606755152727764,-40.895638777361036,-63.66851436897282,-90.79460157103746,-111.20901815107288,-109.21931585201389,-118.44183771501375,-186.58985475852438,-306.58296725609176,-367.34538965364396,-0.004721585522474925,954.5474633140008,1527.353318283952,697.1027687552269,-553.7758059050543,-648.8736375085796,-95.71096505659955,-78.3462036042333,-257.03372902343693,-112.21745145972442,-28.769334556973035,-112.27977360102072,-78.17215234082775,-19.4430876284966,-45.1044638840838,-31.582220739103896,2.698384698735886,-3.9064399927308244,5.581974765964411,22.4168138155087,4.030366757695925,-14.64724007262858,-16.87142901300311,-25.467938296915502,-37.20094982133263,-36.52558436139104,-20.34167632430008,0.1158084286235912,11.47586196928925,25.800681802410082,57.798981839430255,90.71169736667434,109.2698454666104,112.07659803661622,83.98266203240664,29.51395432503106,-9.8479076961239,-28.537104860539348,-61.02384262129039,-95.39721749428298,-90.88159879341254,-66.82837005196284,-69.13782649669714,-82.53486448880784,-68.75099249150654,-44.014316698495364,-37.94493228872781,-33.98598778417584,-12.204810242640313,11.362574087349643,18.566882052254016,11.390503347422783,1.3055645686787756,0.08928529991900547,6.1780981669393675,4.7672964224036605,-7.443526968157425,-16.03960973176725,-13.552976391220326,-13.440386671294654,-25.573336780340956,-33.2353513040501,-23.583985953863955,-14.422881653690169,-16.466525182371917,-13.352600216240234,0.4540047365035136,10.34367490100282,6.993325182030393,-5.561368878635372,-11.586887107731307,-1.5157535666224948,9.05457450764357,7.263376158635957,2.3186036980237326,-2.7694546104569575,-11.534490746570874,-17.196087467134767,-18.966462037992848,-19.247634716735035,-11.667161530463904,-4.116957633369946,-10.525406444072182,-19.859932567404766,-21.462106474493286,-21.6129957472576,-14.12830207937733,2.918869775689469,3.875162170081202,-9.517517055696185,2.267414251284256,30.139760074732823,27.844496424163722,14.368608326019018,28.24397721299575,31.636197064296905,-5.000129550638704,-35.591146505112455,-41.23947898540105,-59.58435634156227,-99.61724650801628,-129.6419382254188,-130.2033024664547,-130.11684030589794,-173.5919786060909,-272.3190842678202,-363.2349299558765,-126.05580607295855,731.6436295460476,1491.5694270239107,963.9500222160757,-331.7409787294779,-702.7664980684945,-176.7082751232839,-31.798484491263796,-248.00244905599166,-170.2630368103612,-44.563463159967824,-118.20897824650656,-112.01705551550286,-27.37688855690663,-33.85462857240131,-40.82860740109832,-7.073034437480185,-0.3699596004446768,3.2990338283910123,14.965311450997632,10.375156315176614,7.50560592064757,2.2076982407559633,-14.307999765471335,-11.04789736693133,5.269376838493213,3.4223845514092455,3.44943162977326,25.55006939303329,48.588494961162866,62.81529519181359,78.43879033783702,93.6259909369178,98.42520612349225,81.54806817506797,36.47859113163311,-18.942066097939808,-55.406216397086595,-68.23568976097158,-78.0622370176622,-95.38677391113364,-100.35587031016252,-79.61232476729575,-58.08773251675859,-49.19684786068219,-30.67767537129557,-7.776977140450363,-5.770163232692745,-6.55577373045827,5.451919097569153,4.951377310816355,-4.130673231214704,4.874478577115449,11.894259855398507,-2.070882555038864,-8.47806894261187,2.3636189485150716,3.2212040181067003,-10.394100455337224,-19.467625366610527,-21.632652465604046,-23.27658480348438,-15.111530705169212,3.49520643210227,6.601320671534339,-5.750445957478764,-1.230681404005331,9.497426630319325,-2.5038915865632134,-11.657774989472077,2.3861062426226134,12.392138455301609,7.8250375390820395,-2.138865469688966,-17.480770419090852,-30.11496749857796,-35.99910296551136,-38.354736600093645,-28.398988079675647,-13.746694235600465,-11.588799637297932,-9.563010644786502,-0.05069262375946337,4.907940578641405,6.77922133354706,3.230920389976081,-10.422603606871963,-10.88601575794505,10.691120361603012,22.350539321947295,10.211544783714631,2.000837533058421,14.555164265705022,21.583258538630012,-1.702431350052251,-34.58916395282246,-49.23712093536962,-56.27256404229059,-82.3008685129468,-118.82964342667489,-124.66250401194071,-111.1674257760543,-145.81761911909018,-247.21295827021368,-334.16879877019807,-109.43178399306822,696.2493879953437,1415.7022571699745,899.5360115436597,-369.76041862043564,-725.1509636695881,-180.0721425679966,-19.577173877616197,-233.97846964183267,-151.09697847655718,-10.664893191860727,-78.8196256814645,-86.93518894070654,-22.528140984833108,-33.89493870813719,-31.93466361700524,-1.3628957573775171,-18.934723721412904,-33.93670562049023,-17.37030670890856,-15.296194339984943,-22.371420835540178,-13.617512114593836,3.4562133350725155,12.328684909899295,9.54870065863573,13.789087370647291,32.711714025886245,53.1315888623225,76.83129498172549,99.50617382387269,104.71423465450324,107.03117727822931,108.10553341792689,68.02107534104358,-5.737435598743115,-58.96481040992575,-83.73639470838947,-99.00894639552098,-102.33110807796807,-96.05803021802095,-86.63626151736527,-71.63961077587874,-60.493767607601185,-56.951414852724156,-43.448587740134,-21.111341838684574,-11.022587595553581,-14.872184685895334,-18.010986756115972,-9.326798324026583,5.813209095706103,4.438916648487044,-11.574186440112221,-10.390636204237833,1.5435203374674273,-7.724137013186148,-21.672421822652744,-13.551889364220763,-0.059743744718669944,5.8752278313415225,7.822638909563263,-3.9499198190012734,-20.990032602575887,-16.002131351437242,0.5633204155204723,-1.7856309898972995,-18.437323849011538,-23.791342772770026,-13.581982245963417,-10.424596823892376,-24.860348681993532,-30.523401815546382,-14.324090649716315,-5.811491627181642,-14.698856398548076,-13.914888077038928,0.6239084375048876,10.008361657322059,8.852027508929588,-0.8604465514435873,-9.39776225812195,-0.9919220834063882,10.736768742822154,-1.8230364950394922,-24.034716177288452,-22.69192173027345,-6.844377309514144,-6.877280081083178,-18.002523834175662,-11.00368726931508,12.81548453629921,21.680996603259022,13.430436479161353,17.993201387115562,30.550311598558913,16.182898260530834,-23.99160328694677,-55.80148061162055,-58.749896026415044,-51.48548053231613,-72.48380378658794,-109.70498998052773,-123.39424650606323,-146.8821743591364,-241.0208123501477,-382.2214213837784,-329.53164284675444,323.16432873968404,1302.072349604246,1348.1493496622636,145.75931648600596,-717.6521704067148,-379.0394341820525,11.120928661014837,-180.80500020943944,-244.8929430077007,-52.577463939352015,-51.92161103871945,-110.25997590730233,-40.3074236132484,-20.85437038036539,-51.97918994396381,-30.174971267182165,-21.658487127832846,-33.927778755044045,-15.644340979804497,-6.854148455569629,-23.453266660679276,-25.67538804878258,-10.255044474241123,3.5692699711088114,4.645199956995632,-0.6646265760134007,11.016701680234895,38.1953560874627,59.97233134556923,76.48915859943766,89.92154702320062,95.62743807297751,99.82640262456778,91.95867215832048,48.51552726162488,-11.816743145646463,-51.744972542410125,-73.85213001089926,-90.65360592222149,-90.2656148529155,-71.29465149507054,-54.172379899522795,-47.644780251870955,-45.392268518815946,-43.80486824498472,-39.0148009271413,-27.29501155421881,-16.70249145912907,-13.83989725850742,-9.657258114436473,-4.3706945698167345,-11.757834789875151,-21.310522368896574,-12.73829703480434,-1.2360336632870883,-6.123903216073231,-10.552490613510532,0.8443766195468108,12.041990488269377,6.110101859082569,-7.873612777096106,-10.751335062694752,-5.39453245719028,-7.964519077100505,-12.407839694214026,-6.6538100993564555,-2.0371708890177267,-8.355677241017194,-18.34473764769075,-21.59420548109634,-8.387472614774001,7.9496744233954,-5.279673870148038,-34.0451017840648,-30.935904326514077,-4.531777215409887,3.4554556061873463,-4.853318741845133,-8.712854351102614,-7.812349740161181,-2.596401580884761,4.131408772889394,-1.7240856435292322,-14.751663526866981,-12.556072492250506,-2.1137566078297425,-6.904957244078098,-15.65556160989755,-6.857347724987131,2.7550074423377886,-3.850626282536684,-7.447767649057823,-1.023486866009243,-1.4159938059185748,-0.8111419673422269,9.819889072520738,6.12516052944515,-18.25780304869076,-36.927745509448854,-42.32606651864427,-53.0844379398689,-82.6990139047804,-111.17924698319337,-111.39986258695036,-116.54872513837822,-186.76916349652873,-319.5771539752336,-320.5863029075379,220.97646484690165,1188.2053394930113,1408.453101123633,314.71399590881754,-694.5850970911747,-490.737004664749,-20.022327399690433,-137.17805225414227,-258.76752494228674,-93.49993438036302,-51.10975927221813,-95.69606044116182,-34.98662361316342,-19.25244659970567,-56.61990091865645,-26.432223976219902,0.6963534150675201,-13.226170704303378,-11.525636011653472,-17.056139224201367,-36.484546648228786,-26.97966632688323,-9.733312364745267,-8.472543432820396,5.023767296373742,30.351650642351785,40.50194434782527,40.97074368031306,52.600035329241614,78.62768349205709,103.75133692079675,111.71948328876141,105.74430116083973,89.5292594006516,49.293766287903665,-8.820957472190146,-55.21890721518237,-83.91008373195216,-102.0503740076166,-103.09472318923196,-91.40981443022852,-80.17587443564702,-65.4879616038223,-45.432220991163646,-31.481116019477625,-25.430951907461544,-19.696489810015393,-12.459847603339007,-6.239705139377282,-5.582060573139792,-12.201187866105528,-14.126190258013843,-0.9527341021466356,9.18639932059082,-4.2200654956467645,-21.19784461224043,-16.23944000971936,-5.071242100965009,-4.999012742521817,-3.7812914599665888,2.317927818871354,4.380894469337514,7.218586046976267,9.441373597878933,-2.522525069765557,-18.904095471803267,-17.395800635467438,-5.994140949310488,-8.70376899298276,-21.652674592530502,-21.680984899768383,-8.506038080722934,-2.7945875858907137,-10.063361461842103,-18.367536708062637,-18.41597575346908,-9.196328611018139,-2.186594367625812,-10.216474338631627,-22.235980320453066,-20.967525797244235,-12.795884913165889,-8.244714646956783,-5.02329521113152,-1.4665271245371247,1.2848148559286585,-0.5277395229282114,-10.812550450006595,-16.90283221555002,-4.163403135793249,14.58319419250545,18.182815815046165,7.604163823240398,1.1274622933824077,9.827762630181075,18.468897615636646,7.975135595796528,-15.029538520087506,-39.26752056776182,-58.680488884209524,-69.21147300823078,-86.34477232733917,-105.89850512846401,-106.11341709693623,-131.3967351731608,-227.61696022150616,-348.3400216813926,-304.0922063055786,268.2323601423931,1216.8549239685292,1358.451345576595,202.47375147017397,-749.6788095888966,-452.0945315444937,5.709579662488878,-154.78262511587494,-242.68863416387424,-51.92627794206996,-50.02408698950225,-123.18524865876725,-50.94766714787167,-21.35841042278387,-51.03305333451026,-18.64750884985787,3.236998492977321,-11.939372598768895,-2.475499386444657,1.150956164446498,-19.32384431193692,-21.63530940718535,-8.861509673936297,-6.695438343152528,-12.188432311063977,-11.901660150243153,4.749289423802766,29.92344781415721,45.832108119689934,61.15578712213133,87.17508824876613,104.25139656982898,102.35449590974554,94.04227659367103,71.84850952376448,26.21914219104546,-22.824060247662036,-61.940097171896326,-92.590573360412,-102.94901614488876,-93.38043536534975,-86.5514281997563,-82.05151588606446,-64.12582065816191,-46.29735567426244,-47.59202850385956,-51.12170162119492,-34.68016081518733,-12.941327872338839,-6.568864396498469,-2.661534933416121,11.612081079511817,20.11744827024381,13.283881648855463,0.2997773027021964,-13.266999482377997,-17.54633845988195,-6.401772643729007,-2.3127998686052678,-16.527947820379943,-22.01940400707897,-12.561492691366475,-16.096066599387747,-31.67040215391875,-32.1003560376553,-18.9849969493876,-13.57334264256167,-17.07333846603123,-17.421397306374633,-10.560747613980542,1.7194919522284273,11.629261317840129,5.955673766406335,-9.683322052072295,-11.248924393960571,4.46011771819447,20.045536553605693,24.437484291533774,6.8176547339289755,-28.561067780414028,-42.79095923059303,-22.11208288649795,-6.897419947975784,-14.002801668874323,-17.086914255635516,-11.633850072275738,-12.578194062565238,-15.506739385666041,-13.411520955147626,-11.56018396703109,-14.149336083648226,-20.43356301883726,-20.801980362874968,-5.6389146162487656,10.791681393378818,12.554964618955687,11.68979217566827,11.796349783453259,-6.944564626345489,-37.35084728886986,-47.13543156610141,-43.9271369369797,-70.06901493448756,-113.64696014876091,-118.00564299414667,-108.5184197550809,-165.2143724763627,-295.09845488794855,-389.73150496185553,-97.09399720710786,826.6630517061678,1551.2888005969664,909.535262294721,-402.00651849136386,-682.2270155228956,-140.64607811145714,-61.19515540599642,-283.64287595226745,-171.38822735144902,-47.789234542328046,-123.93799780874443,-101.45973803506615,-15.52911001072723,-22.140546300833194,-19.81058840956765,6.0092321974669005,-5.820615362179371,-9.621772651840125,-4.68961648603414,-21.92454460130682,-27.10962008310405,-13.193783849801894,-7.039852226361514,-11.269542150573567,-20.846500384946197,-18.971914200817665,5.512308053091937,30.506891758136472,47.86867260822795,68.54940275032702,85.13911226047705,97.03150382702954,105.67114607577282,84.7168627912168,31.08811091922083,-18.229903480111066,-48.080887760148194,-66.04105395839764,-71.49278209003614,-67.47512175083493,-59.976921165495284,-51.015320524959506,-44.71385357647283,-37.825599854334016,-29.736186439703815,-31.89937965805119,-34.832614090809955,-22.70691146750014,-15.846175920444065,-24.16562944900729,-19.200594043655943,-1.8282370935713885,-4.568694089168879,-22.516308422544974,-25.45374680622521,-11.098429995860588,1.7331221216962511,2.750040901089875,-3.462281672624716,-6.27309620610686,-2.6150190569325744,-2.117568798635638,-12.038654807564342,-19.071407113821394,-7.749562519359003,4.893705506220993,-4.238949671053032,-18.572929332308107,-17.6103813317512,-14.903479021706165,-17.861298925619362,-15.472998411662665,-10.111481314294966,-4.797373698135267,1.9711619023554725,-3.215506981552487,-18.56534789311545,-21.027572543266675,-14.25787963099856,-10.476225536532752,-0.18521935059262873,8.38332654160154,0.8973197618922057,-2.9202114615055965,1.299229090330586,-7.04312529844211,-10.405379181037208,6.940215029520761,10.375908055271108,-6.991455674581372,-12.996170640739916,-17.206803788574017,-35.09221987609713,-35.83189332448889,-9.952065665085975,15.849856609750885,31.950109272947607,27.443790966423737,-1.1368700262099125,-12.92296104187897,-4.097278882873631,-26.294794886416355,-65.41295443595762,-78.78224095451127,-88.09199203107889,-93.69470924795017,-82.30541395662198,-117.62967229184295,-245.40663603955977,-362.07231000267444,-120.20914748901058,729.4380707872909,1445.264074578623,885.9948731947209,-383.0170971656719,-707.8642014470063,-181.38835942308623,-59.422260413661945,-266.43290441964933,-166.49387054880262,-34.779052596953676,-98.63627498575525,-81.52670536062914,-6.042722286131301,-19.02880185791838,-14.061347549739391,17.227509461091323,-5.381154190549449,-21.548246398058094,0.7044063283149633,9.954823597895473,-2.3014910307998218,-21.210795311273877,-29.74594849708835,-13.52349741059187,0.9624720477421311,-2.5686321892243353,3.8672752504170678,29.12870310035076,54.7471873489669,72.57607505902334,84.58173004079887,97.90621445412452,105.07770357905187,78.2279602971669,24.96548455150709,-13.112983705240808,-32.05244236779694,-52.47673025290874,-72.81947343486948,-86.98637101647073,-88.10903357928895,-67.6647691682374,-44.959708462850244,-42.181743708333016,-47.35266319074893,-43.862193599263236,-30.42466155239901,-14.365926476904406,-8.578569289636391,-8.092285681603997,2.1813290826273537,10.94468315929258,7.167793570586671,3.1470374933745973,-0.8954190065157377,-9.689980553654433,-9.108834834740723,-1.5703342750920264,-11.12816065679684,-32.90846472963886,-36.58288344087983,-20.828807222628207,-12.675290536780786,-15.769724184085149,-11.57115364039512,-2.2144121951710183,1.8211503479782465,4.855696637579804,2.829801998738649,-8.04782827297749,-9.846657726599098,0.8701719042322829,6.542908576236595,3.5798823033012326,-8.794284715995925,-27.072982343671896,-27.30894470707683,-15.67633731217687,-24.617335626616487,-32.782414518165346,-13.834498553708357,-10.669643673680504,-34.35567310518742,-25.52026093767095,8.465840158247794,2.318066707995122,-24.914188712053633,-17.901222429527802,2.8714058345114637,7.236296061767437,9.341682244390542,9.619737357348054,4.3702781452945345,8.156086656505025,4.938441194914439,-23.656320305059076,-51.33486206260023,-63.48597406189639,-72.25522239535974,-85.02490051416868,-108.83157941058161,-126.11029099977479,-123.29823954748063,-157.04363628469417,-280.497702076791,-381.5296453156475,-69.34127272922746,867.6294383957577,1562.3048759018861,887.2132999674635,-417.3550904470322,-671.7235373820552,-128.8315780686832,-69.19993398896148,-296.8605099542986,-172.11779934767418,-41.37265969344037,-120.66163557221148,-108.64940614826823,-39.61516990813074,-58.304070855424314,-55.54408547860618,-20.66374870333534,-19.324221291803973,-10.946909220577048,5.418218836709364,3.2411513759053836,3.5520066928763434,-2.893298058342033,-21.03073687002091,-15.630790251931746,4.818258219666534,8.169277165079539,7.3636692038288825,23.47212053943955,51.41477058443836,78.7387816486339,95.77177890615269,100.63372767332459,97.09390696887397,78.57297911599036,37.84571057233465,-9.92971810178399,-43.769958530389104,-64.90862868154814,-85.84178920450046,-106.37483638107636,-114.19973613228868,-101.8728464708964,-74.87311803818685,-44.167981134688844,-22.869802180724854,-20.0851918614388,-22.158092539048567,-10.888342688049754,0.7108838413436942,-1.4648187354356565,-3.209507547536546,-1.2601159893163647,-8.339507675100968,-15.535445420281324,-9.407498212927962,0.044402226312520554,-2.6072485275923256,-17.020949020515758,-26.279559593023464,-19.578546488812282,-9.94562722900724,-8.449026574876097,-9.642722229524008,-10.644512129580384,-8.086843295083423,-0.6154548482605158,-2.60223150485006,-12.12697622109106,-6.422291178338437,3.592113705888231,-7.198477871134198,-17.596245903719907,-4.1149970568943495,5.191495595115615,-12.511796895447457,-29.69851116682291,-22.475712828779226,-10.243507794904247,-13.059019587417787,-16.527559050900273,-6.195899039421153,3.9144690318191735,2.1790674155657754,-5.65555845629628,-17.595832150730676,-21.967044414472927,1.0887749685980381,27.520050471410286,20.120912351975107,4.155349503260204,10.208788530038563,9.485452499608172,-18.22748253888718,-51.53323200482753,-72.68138939075901,-78.96390980447869,-84.46353192006865,-100.30658546701876,-111.83173269872158,-125.91969859251344,-173.1291006587437,-271.615652117579,-328.4282467326886,52.96507997846692,1013.6874922847934,1524.7894564776484,628.7461149825443,-581.8798557265886,-603.2734695573519,-65.18032605886012,-102.98352536455528,-298.0782304926154,-152.99876201704083,-66.99811466928747,-131.31632361871493,-79.99774924637393,-16.643116099531156,-34.25684508649054,-12.448663172638334,12.49709523947819,-18.081610711665682,-18.166403315184265,18.200055805779144,14.52651623693014,-19.39931705229817,-32.03019601023534,-20.565147358808154,-8.960533489196264,-4.536930058259095,2.1895924574327514,16.283342877855965,34.78845453950502,53.39561410555879,73.68624373233499,103.78292211242037,129.2934865047683,112.5645457898198,54.453613951260444,1.877369728947234,-23.853892507454468,-44.67537553725264,-75.19643642585245,-100.9174289682116,-102.36692714646401,-84.33881552423563,-71.04324173869189,-67.6787209228944,-57.60305878370269,-41.497073864620845,-32.209943423149454,-23.004666681185423,-7.052010568631523,3.4046377459830275,4.686027370394328,6.279223630803489,6.270616637872632,2.0580907332098413,6.705058661455654,20.658779785841602,17.07041968976167,-10.970615259936217,-26.31689589869024,-9.677917456339049,3.947054782358336,-8.403336431957172,-19.19540692985535,-11.27202614694469,-5.066052598075565,-10.195274157847418,-15.34925936972716,-18.557435092521228,-21.44752199113902,-18.663002484829594,-13.241504635039671,-10.29548010444368,-0.39570993191433246,17.121150885041242,17.013661705659036,-8.559327076469522,-22.329945939336483,-0.2901037280445786,25.375527281063697,22.941239694884747,4.449699386857436,-10.717286454216266,-17.727840377160557,-18.25225748885436,-21.75823674064337,-28.916770277649473,-26.260133352207912,-12.624976568488863,3.025334964467625,12.640587247753558,9.089108649912552,5.083091011907989,12.35644915236883,7.4241287292419305,-22.791800106960142,-53.37300473698451,-64.1777263333714,-61.95294886988961,-70.31594079900078,-90.7584370406174,-99.06464611409137,-111.02126246497915,-166.36178041991656,-268.78473295116146,-272.25755028076367,209.5343684646044,1110.2056213586582,1311.0678461207906,246.31712327991983,-714.4934709779191,-483.2484657451316,-15.604910313172795,-127.5999982218691,-229.84812442924297,-66.74451734251357,-44.002514793708315,-98.25872704434855,-35.54600717308976,-12.720087744352739,-47.34765479783567,-24.035269101660518,-0.21333515812151482,-14.543805453889519,-20.270420007435096,-21.964412461427905,-19.03553455203945,3.5910853715853968,11.504147707098324,-11.631514420154712,-25.234777582300925,-3.753965376678324,27.797888034279076,40.66313161179271,52.259239443778704,88.39763125565153,125.9153460237662,140.62278660165023,140.80397361323165,111.57383506901009,42.58533434602049,-20.56086053898543,-60.24744187457367,-105.65979198989189,-135.17075055037373,-118.16626932760546,-93.49649553639642,-88.11481480106454,-75.14747499522579,-45.460448210151256,-17.03595833814869,-1.3770490293498625,-1.0398977144749466,-8.161179477617473,-11.22435219501623,-3.394019473002654,13.954599880545125,17.281554723046458,-8.215825154660706,-28.45210603280129,-18.678650175451903,-9.773293766433596,-18.06805124188348,-17.06170761001085,-5.383763424509063,-7.066341016485495,-14.229297939423056,-11.12455730735617,-9.918499532675984,-10.58779993284482,-2.0039002855608743,-5.300354188269907,-24.579994104471954,-19.411531962157124,2.6874737746086623,-6.090565777421556,-23.03944763261991,-7.941608179124682,-0.05558914186228492,-23.937884546732846,-27.93371237824475,-1.2994817349035515,4.260172748074854,-12.842604552452553,-16.765935273408733,-16.340729254464733,-25.921338385721093,-23.65761732488756,-6.574787385729806,-1.0911658301297003,-5.797497420678335,2.541359035120035,16.850954445738925,13.050941451636387,0.7668734470718164,7.7709900621726735,26.226675381450452,25.367620075010144,4.511844760221214,-15.150585547256213,-33.18038347117357,-54.126480811243574,-64.41771117044398,-72.25307838614411,-96.24978796325023,-111.64726899314242,-118.43383909417601,-173.66449010852082,-290.55097830599976,-378.3675243571911,-126.8000855794815,724.0463986547081,1467.889169226958,945.1351148050987,-329.318579530901,-685.833170142934,-162.52585824567387,-27.33979961422375,-240.90687829222495,-152.84694596780824,-31.733514554876407,-117.07046032167472,-105.79557860308869,-9.939359567482427,-21.202987004030902,-41.42607817513651,-9.672569550916386,8.298578610495646,14.43957347373297,4.113858072980168,-18.631551351763264,-8.971828405552824,-1.636702571982397,-33.72393889510326,-48.98680329490583,-27.921715683827724,-6.059653942356984,19.62680685578542,46.81048767598995,49.88587852265144,51.52465741636045,86.83004715592028,125.29257661543801,117.4984678721423,71.3389810283224,23.76594257433316,-13.482902296543244,-40.904362130799704,-60.25127011060603,-83.81720258064162,-102.60747778559758,-92.1325017084205,-69.47301844917095,-58.93720736575613,-41.72398114645854,-14.336154882342605,-5.4223177329306225,-13.366848420676579,-16.872165603327108,-12.306196269204783,-1.3780936195238453,7.863864323369118,5.1633293981588615,-0.0006557739943922059,0.752333892867437,0.4816512622145339,-2.1128507065818845,-10.049612649383448,-26.46305968614959,-31.130369875019802,-15.649496399247703,-10.419506095495308,-26.1085094387114,-32.45524558920161,-19.307189797573905,-9.428783393954419,-9.03459980871574,-2.0292813651065273,12.14923492474924,16.33094530874877,6.028282389029851,-8.402385021135316,-19.727239060589714,-21.933895324947922,-11.942734625087095,-3.2775574170603754,-7.615799714747428,-11.58700503003504,-4.074646958576903,1.5515751790310368,-2.796491723858349,-6.96254951232768,-6.988817415235083,-3.784118506230623,5.684041180702408,6.831328689654782,-16.366822959954344,-32.90694374962439,-9.848191992870454,14.147125790288545,0.35595485896752166,-11.02466876312646,7.863201863313989,13.345147967462578,-16.866757963842268,-49.11538823933381,-55.44287628588363,-48.514331915905245,-69.49325650222306,-115.25437786505643,-130.65551468606034,-129.6338820711765,-185.3139545217975,-306.63174219454277,-328.83228858578514,142.10555452652716,1087.4039912300254,1419.0198020020953,430.60797825414704,-634.4655185209454,-533.5363695007956,-59.74335739367592,-133.17126210991125,-252.350638862653,-86.68077572310673,-36.53354058377306,-91.86273725692104,-32.32665614813733,0.29558455253202,-37.782740742702074,-17.387793999014665,14.601216506701995,-5.28891581201124,-26.29044488964724,-25.748991196236346,-10.68323385730892,8.270636116187156,6.106095089476777,-8.06106225418613,-9.979607640833589,-4.451331180525572,1.766033299168233,8.937578808607157,19.110415961995436,40.034733145131824,63.18924477100836,76.58811707490463,91.23637334295111,101.15364648544913,78.98215794596283,34.77297503703681,-3.3287133769617494,-37.071800847563814,-63.78081947223394,-64.5331241640696,-50.93668639415934,-51.26322685660908,-62.10817459485956,-60.58871028935817,-40.17807468289722,-18.555981918373014,-17.798629992098434,-31.255258420622656,-30.52455688296824,-15.553080308509468,-11.725745275438442,-15.803706410892389,-6.510553855606052,6.642519083325986,4.693399902573002,-7.005246950006839,-17.924039268680204,-17.26476554916318,0.8329475830772779,7.424751919273536,-16.49187315481744,-32.328570286239156,-22.647746262435327,-20.369348793762878,-22.179523197486905,-7.478383737111706,-2.072092724346568,-13.52337354708768,-7.300890851628743,13.291795915189402,15.058524775727012,-1.0620419510459769,-12.653977889172026,-12.27084407732097,-10.750994610077353,-16.56546735901692,-18.026536186384888,-8.978811220900287,-7.170381325257157,-16.723594087725314,-19.76859537239851,-13.981621299603583,-11.192342476250062,-14.131789422061512,-19.001504975403734,-19.82887651786178,-9.046747739554498,11.489557324960836,26.034408207915895,25.841838589278247,25.01732406325887,28.314674095372812,13.410325559989722,-20.257352164500684,-43.681926610972724,-49.699933346053854,-53.51599375905363,-68.10016660043864,-93.94880264970813,-113.82380823568005,-125.59015755195088,-163.03351016210922,-270.70446738729663,-346.2361762601038,33.26647963235854,968.1177677740008,1409.533963259109,503.60434130179385,-609.5339021759858,-557.9708083559615,-40.389731285892125,-82.52888780522434,-230.76201073761737,-82.07740491334283,-34.19245625114662,-105.37114506802963,-50.43497963882484,-9.596292856464473,-43.77214773431617,-18.475719050542203,9.9059008281073,-20.08367954174775,-27.05318336605759,-5.160071960517147,-1.4851428424496085,-4.052230317355297,-2.6348376186180222,0.5372395264375114,15.034316189512822,28.735020647803008,22.33414856293868,12.941952961149898,26.801535902494006,52.62142262562877,63.95833637870684,66.15020826594306,81.48650798143306,97.33213210940714,70.94221663086716,5.340740092588829,-37.53831483213141,-43.97871790241827,-64.90974093056022,-94.23640965410898,-86.06164691134802,-63.98178228996974,-60.52060948521685,-52.940513582183804,-37.00209327292396,-29.821242012500242,-23.03580397260427,-18.318132973150156,-24.726537710453194,-22.922709561394754,-4.918789408370394,5.912363331860302,-4.494539871521031,-22.049001021331478,-20.645697947687523,-2.398429721934775,0.627357449819737,-10.714016228980629,-8.901518559227961,0.1915474147305929,3.5185671180906795,6.984503031749902,5.131340285189413,-3.223445265887534,-5.755564597620076,-8.409177173314479,-14.306058414373762,-11.296160417032066,-8.567882802861359,-17.044879644061965,-22.113989136148124,-18.12891319284313,-12.234062756684217,-1.1250818492023686,10.213142792172848,3.7422171403036426,-17.346254764854397,-24.847645098748863,-8.386562224156735,3.1763140659836804,-9.431137021635763,-16.496377389617088,3.821510302567839,19.670207174236452,7.76143889787675,-7.532368125701431,-9.645997797887247,-7.021979645710974,2.585922182656649,14.394658344264903,8.977140849450716,2.2182987727769117,16.43845228268328,19.938642680293302,-7.387207146065961,-30.839311184961957,-35.90680971432155,-41.39827925151114,-59.81653491792478,-92.85088401334568,-117.28187375063038,-123.2220147108897,-159.8050916737679,-271.3271120863722,-375.4174010518492,-120.40654603261962,740.9005633905815,1445.7541865174207,879.4484663977212,-364.6364053510015,-670.0607581351273,-144.24664842748234,-18.060079454585185,-236.52794465102096,-169.45802500001508,-45.56392481775572,-102.78746501480629,-101.80462295277478,-34.366633415424175,-32.75935258503692,-25.90793590936748,5.369411957665309,7.004073022694254,9.932018861657825,20.30654439971406,4.123320772465446,-19.246399262080203,-17.979030187573358,1.193183667386896,5.354520909703458,-15.611565467050152,-22.41264647284147,1.6683176654435243,27.295510857366974,49.4138044997437,69.60705406161264,72.7705533225293,79.83660393244337,100.04462755819031,86.27600241893015,39.62930394435439,11.322552879990926,-10.091515003541241,-53.77299808944573,-85.05589658236907,-71.63999081648956,-43.67813935958759,-49.38803581160821,-81.0315250990395,-78.1601367304701,-34.335099590304395,-10.88633467453824,-15.021095459586768,-9.09274034476212,-4.919846152963366,-13.175420540533054,-9.165245335382714,-5.218584054107261,-21.881671073966498,-26.67795357624479,-3.6036667734918666,8.855809028582213,-5.353823449972534,-14.131811433881065,1.2963408883323488,15.36690069944915,2.3174191191356126,-15.266542277102179,-4.375029149933091,12.155695656685749,1.7509279846966201,-8.11247026201953,0.2975172523581513,-16.15448679779987,-53.593821821265706,-40.594409387122,16.403052241808894,31.833681497884502,-5.509391035543004,-30.22876951143467,-18.957209246779932,-0.06899839175268063,7.856428121024256,4.107311434901904,-8.004586454473797,-16.996755484698927,-13.799183037955647,-8.91236951901197,-13.716013082950155,-16.988724903975797,-6.520123282847619,7.4538447668685075,16.77376154760961,31.221406493017547,42.80050704664379,21.73442213218063,-25.383186714173597,-51.55853283056259,-42.75144269372234,-44.08369091499165,-86.73738454359189,-125.57504784215023,-119.75076834817955,-119.43801344381883,-179.77904032242145,-289.6346614303803,-281.21388421807774,233.51125355977445,1133.4839071713868,1272.8139830122368,176.66456750347697,-728.4284173482285,-448.3788221943854,0.4974347917542836,-129.57729296539617,-216.2798694042835,-45.840392661531155,-31.287518611611276,-91.91394821989962,-35.205768283406194,-10.25004490630851,-30.91594621943802,-7.993006922544296,-6.69779269979308,-30.86247920042376,-18.811377512042434,-9.2161642597082,-20.885304147145952,-11.789323571418315,6.007675035490589,7.2761701672047785,8.0389602954189,16.684332522450916,32.87538003144932,54.749520689300674,61.32239552205917,54.95796360846195,61.422403344962355,72.66437547772699,82.75408835173545,100.76686012643606,86.06593184483955,12.81356422932402,-57.07057852201619,-73.90455072888548,-58.759558967452676,-49.862617490661634,-66.04342455370083,-84.32984782045541,-78.15022245117083,-65.9208502493629,-49.66079319482067,-18.143462661811995,-11.733555579819381,-31.794873541149443,-18.54820553142935,8.605779655644891,-1.4738036798362302,-14.624415257092153,-6.466750070470152,-6.613069284988246,-6.194147425922466,11.967335497237208,13.920720773511803,-11.880772149027955,-21.683067393165977,-4.588801062088542,-6.392297077216078,-30.895807947052184,-26.52703963308494,-5.125839879670814,-22.684717134355644,-46.71048573983535,-28.893444241896475,-18.14396668219902,-38.125560677040795,-28.27211752248345,17.873085575571324,39.110941960174344,6.959178925894939,-46.33434034465792,-47.65090207931887,12.801673642727438,35.47806008125846,-2.3961817624329598,-12.648742477828266,-1.7579036926197489,-24.247858609817843,-45.72985372427469,-39.635156817608994,-12.038712092104625,18.2518283615061,-9.386662717550866,-38.83629453533231,35.04120842977483,73.77888156082915,-3.5856721338612907,20.627554728013088,124.48168559494783,33.93011714165904,-143.16244913442597,-139.42285351247975,-66.10692123679368,-95.68766757135987,-125.96539162435256,-83.17296318675969,-95.52087640219553,-218.23197275783468,-339.3397163403372,-315.35784549909107,136.84687011663686,1068.8767363097134,1501.2240674039497,564.9461032319114,-617.8996018901004,-590.8354051641809,-45.82969339752394,-90.97797699905979,-261.6402406630203,-117.41251066860235,-77.92496120935834,-141.94598421697606,-56.80766672500088,-32.837606166327404,-107.87566813275659,-54.046819311621974,21.70385987291551,-18.75725354612998,-26.889110067434412,35.22284405178101,32.2722447936276,-36.29219904818531,-61.180342198462064,-16.106069836430237,21.082307608490865,-1.0765411099542908,-22.483577728384603,15.132115219542825,65.53550487847427,70.49143573153825,58.21610488412414,97.83865833921298,166.51659658255727,151.82585545237313,64.68744799565076,25.666789303035937,3.132241339884885,-81.59833822457543,-137.0419597530742,-113.23500841953052,-93.10045475317852,-73.93362345924551,-31.64535090041708,-35.11100802732714,-76.08910987014538,-69.77040947936125,-17.958712126066665,29.035930611644893,35.50844887336507,-10.613885863244398,-48.06345905127991,-24.58908537694817,4.460896449455774,1.1804208354152408,5.058155910517534,6.1356069091237835,-26.651292136200098,-39.47840953130434,-1.694978921064326,13.753078240588842,-25.263285905556373,-48.08187240449948,-17.040430988441997,14.055222546720387,-2.136604871021561,-38.60789594783891,-44.00797847253129,-17.48773157465262,3.408114779747084,5.355404930188428,-1.134163237898644,-11.881687846369285,-17.019449356970068,-9.656105656908846,-7.848718909051403,-14.211935961497703,-6.600115037792909,6.543478496746886,3.069678531911883,-8.634450576942346,-16.507566703079803,-14.690332297366808,-0.6597257805955632,6.974289797823759,10.220993885070689,29.085064790838832,26.515743807205595,-16.216980397948284,-29.940919066423078,-4.200907267201256,-8.577903296738238,-38.28970894678101,-49.75885904742202,-56.27035283964996,-79.02041528863451,-110.94123274706558,-123.45178226845711,-113.24163763419278,-150.23086559262728,-279.5358167635984,-406.2802648548991,-222.3266439012429,573.5886069142999,1430.4203511068094,1133.3055440388725,-138.99741660587287,-708.662587236433,-237.71258929183617,2.460365451499296,-230.76140482744657,-215.72644688616495,-49.95350267070701,-86.69709600504973,-105.77316861537884,-26.630425725530095,-15.099496918781497,-19.709233422084637,-0.6471770519762003,-25.189694165107436,-43.799409905119234,-20.863716728171102,-11.710118901354287,-15.751978705865662,-7.710689757646236,6.483455521033886,24.98545685582024,30.056276401014472,12.098351040208358,9.432483378787923,36.729894671923546,59.10807098551365,64.43546593457971,71.66329739957101,82.57590609552467,79.81195993310723,56.69338275698358,21.80926562068646,-14.754661976678882,-39.657394887219,-49.64575554364141,-69.51507707093205,-98.56077798561385,-90.05932837257242,-49.2519461798598,-32.81180757326325,-31.51349387769087,-7.170420972183521,16.595345151804672,18.930334744301284,11.917855455898021,-11.380897701914616,-38.06651539537799,-33.18070250520414,-20.50434075773247,-32.15652366289884,-37.35342703977796,-18.480838305968753,-0.7687162269258003,6.0349324583354935,1.9978638818604786,-10.51116183770258,-12.131987762008784,-6.1617330436526565,-17.590020633876378,-35.18980879769272,-32.391954473292856,-17.319924751123718,-10.504698230474688,-13.451574574327957,-11.755403436219705,5.287763993663919,19.315895615883193,4.578534420079265,-20.137021682984496,-19.476381828635436,-5.139808384148839,-7.822239954297402,-20.988953994089957,-17.363120640013754,10.504131630427779,39.18801648528502,38.56396687633531,12.976996264437267,-6.5243966378567375,-10.918189366028383,-20.563184653742496,-47.664812849472995,-68.83955429587257,-64.12424562202835,-64.04106718228157,-81.14776827424132,-83.83617493898839,-97.7135826039461,-167.3521913053719,-278.85534874327755,-323.98829645679643,55.61353639920475,951.1327429612204,1361.0588240306627,464.30369196893423,-610.2060770002843,-546.6266253864258,-57.113531730417485,-101.59341154414479,-214.84015364927012,-59.77337359992527,-37.2959552166499,-112.45299403003224,-40.51712993040308,2.8011382521288226,-44.25996227769581,-20.72153112030337,25.995669112239085,8.840495689462063,-12.178804183314044,-7.798999245342233,-0.17575351492512858,-2.053813641957861,-21.379697876453736,-29.500080863388675,-7.920056872840508,5.770206235729684,3.8712808410781943,18.25926801070191,43.29520048404355,63.623509989767214,89.2524830072702,109.58392345188803,100.70544033930516,75.55832791016167,55.023074009351454,24.499945360338064,-27.11258835802731,-71.06738317534723,-79.82590100918112,-63.02179483439346,-46.40779904421585,-46.60441712637562,-63.81605821427007,-81.26599612235303,-78.77866448865592,-56.31277463451094,-36.052549300114634,-25.026353888205136,-7.137566497051637,2.9298651066939883,-18.216957256154647,-29.859202645258165,-5.142988509781141,4.2974174286372495,-7.083439569902165,9.315232036598097,27.867349205417177,17.244074959514947,14.14793223195355,12.134279088922444,-17.808417692327193,-32.410271207025716,-17.05371614769903,-22.17402342192065,-40.41770316755152,-32.63251387806837,-18.577213843510258,-18.982544610467446,-16.572196790362657,-12.026724062638905,-20.188719459416006,-26.047389392780424,-14.360700235251343,-8.047294797444057,-19.382274241274686,-16.208783106683235,7.987757039017133,13.991346911350444,-0.6733715633159107,-4.842977018557487,-1.8285862101295933,-4.0389031871023136,-3.9989304269471013,-3.299016258655108,2.892839630855512,26.542560274185142,35.03938147499302,-0.08156112004930449,-33.634241817403336,-37.03807520075698,-50.787771659605234,-81.82951668630662,-96.73687884449706,-99.06086847299771,-106.9772978022219,-129.69096379179155,-181.45895043153996,-280.7129201857722,-349.33725571815063,-14.28013628281991,900.1749946101592,1464.0056607124536,692.6277609438655,-486.7054982280667,-581.9617559501362,-70.24869732216398,-66.02002314537641,-250.7178796783854,-132.09481441142793,-51.55283779917441,-97.8392175124516,-43.683967325231556,-18.41873507908629,-84.38692803497163,-62.79100790100184,-1.8478092199192666,-22.96345753836812,-46.882974667258516,-24.059352717300253,-10.050427892719306,-18.610013104766836,-32.393687186271215,-39.22411344762681,-24.664188648871548,2.6679455449219454,22.61280806619429,34.57159848377919,48.00606911406122,67.7493145334332,86.85308194804108,92.42968603873719,85.72992109828054,72.8974739739435,47.25474504590238,9.150523567248218,-23.71214225860114,-42.17184093335198,-55.78983518824777,-70.01430537369,-71.18887319294244,-53.45577597883933,-43.10357313434109,-54.763940429521384,-60.59737086337997,-48.166587509066915,-36.08470414113728,-20.51203568517522,-0.9895950746441429,-6.414524333409872,-22.632101860468595,-9.629161090603255,5.217769280685527,-12.483818842895001,-25.697175853497107,-8.373897483593964,9.348616247353869,10.055553070906493,4.6450433979575045,-0.13119667543396218,-3.4119431540849376,-5.222879718504178,-3.3875204738874807,1.0838098884612961,-3.930739289124105,-18.649457462769735,-26.663735774634876,-25.32184707348067,-18.827993931623567,-6.871606755433291,-0.7668443779660716,-2.401108624146776,3.913802167810193,9.791250376370705,2.0771027071575006,2.186676625259449,16.387709790275935,11.072694242807241,-22.486469343973084,-47.61666945114587,-38.55445346641011,-13.926148944114676,-5.338492833347644,-14.829667955331555,-23.432736105887187,-18.152834790129887,3.3066863321918483,23.615972678984257,24.39708162078941,21.659430160545124,21.71652924999445,-0.9692576589250237,-29.91684791248077,-32.60139963024797,-34.31800784653434,-50.270870960706056,-65.60997683740445,-92.11095645412198,-114.07396355629402,-109.85434739558313,-140.80505499427662,-257.09095150370047,-370.13023522096006,-158.29237954474291,658.8427283899205,1440.3111494251807,1017.1160309971167,-234.10639682344163,-675.50156877609,-201.20382471922278,-32.78954866939175,-230.7777278766858,-161.53187876785944,-32.66925789555832,-96.34168979761611,-91.56869693744396,-19.7409389454957,-40.89198735727339,-46.41567079140973,-4.620236267221905,-10.551572018297598,-23.33702608127401,-7.139572076826063,-4.003339079445148,-5.257834410540076,-3.212623317056053,-15.011530982556808,-12.587832600387964,14.123182707184537,27.432847836990792,30.37120722089619,47.09453920977112,56.602705562069985,51.16206536510308,65.26839021902833,94.94701491065206,96.94629671554507,64.67535077950836,20.643526639013814,-18.693520421481693,-39.122406960031135,-46.94252850070249,-61.29012421491055,-69.01508097128519,-56.464912643344206,-46.669197491181414,-46.10141262874548,-36.705662543676056,-27.615517126591346,-28.96446515475626,-20.083623218601964,3.921085554939392,19.923060597564948,18.377572053521966,6.206565575133837,-8.860275067289288,-15.37933531659526,-8.826499215186107,-1.6304923683752026,-3.3802371929846693,-8.029885530119603,-8.316540672696057,-5.937562438445115,-5.178147683467646,-3.9706144185710492,0.33392470546935726,-2.355800098009194,-15.003877552455247,-13.830726091515594,3.123838258458786,-2.82319130709347,-29.956223797603514,-29.979890367253013,-8.289755804974316,-8.996793582387603,-18.280679013994533,-2.7364986300966425,13.304468656308298,4.543188502071214,-3.2124081336445336,0.792742741124302,-7.5939714815624555,-19.475305496389375,-11.837354589443546,-7.701595578187973,-24.100173311854594,-31.26772802794182,-13.523250089692693,8.771537768991216,13.057974705820111,-5.726551803750315,-22.352001788389394,-16.470815141125897,-7.8499009769665165,-1.7511262896219524,17.238058304278542,27.406448564253665,18.01952820762484,17.310453412268117,16.26056634987016,-7.037733080636933,-29.940883109466053,-43.70855056117304,-68.4994082005764,-98.0503354316779,-108.97933279417595,-107.73341980353946,-135.18562561958112,-223.1502752893283,-354.2564150166109,-336.50794658837833,221.1157392157935,1173.824981305357,1382.2034681201199,338.159991115864,-612.735878107769,-428.07749289311766,-2.600110598882374,-120.01856660202674,-245.06503981068104,-114.26554149528803,-84.23458375780972,-109.4779244004437,-30.215501761786356,-5.60525660901267,-45.099839183108905,-22.528556790176232,1.3939277124281837,-15.763699774574953,-12.549310571226329,-6.286841609170672,-19.004168022112516,-6.633908168703335,17.98735734209835,5.661024581877051,-25.454141329175165,-29.382889921630692,5.722832544444103,47.7598227188163,47.86565083182352,24.867935498490013,43.862709573160885,87.20338511506142,99.78920893907402,90.99127091543804,62.066973028384155,0.45918151785653727,-44.6045493864438,-55.481687709209666,-79.82170487084913,-101.37166993666884,-82.27925985929426,-63.038625994968776,-65.64322174069554,-54.6996161396984,-32.9817887224043,-25.55370618357324,-20.26730387880624,-5.209779986182191,6.560038749083159,8.382325977261406,9.040934026619379,12.222217171690385,11.601104792484751,8.33089264035987,7.182718826711131,-0.17340101328452562,-14.391905851035176,-20.073939015406367,-18.668709705972685,-21.6824847604216,-22.96729608398326,-16.892664999643326,-10.90596699864891,-10.603200474699246,-13.602180434754391,-11.222518473456098,-5.112926924490651,-8.647218584113013,-13.54243878001582,-6.9231133693329205,-5.557838984662517,-11.677545922840656,-7.211414887319542,-8.766562241000848,-25.708344047236125,-23.64048403813733,-5.0515383441335775,-4.704013762623479,-3.758539380820773,15.747335052356195,16.32409037692848,3.310901191790693,21.61651185019335,31.79861271028886,-15.374802257511163,-52.92905872115595,-30.386102136578675,-10.634550197168487,-21.727674232801036,-22.094914821930168,-15.79550207529574,-18.183555977512327,-5.114612415798302,14.487791314543582,14.899129937982838,13.436157963329324,13.159943346372868,-2.740128431825518,-13.954115798359739,-15.947360060314331,-36.268026491800235,-64.19810381767493,-86.66273973895272,-107.39550362405576,-102.1705820344418,-100.61589956352327,-180.13914338898743,-321.01487783140135,-373.2198088055933,-6.902783356645159,895.2448252376478,1447.180440859207,700.7027731862262,-463.1701438522318,-580.2516526453318,-88.71976194168548,-75.39962565971175,-244.02763700579692,-124.87769012803909,-55.48742128551447,-116.5993802433313,-65.01682914479245,-9.945857947244022,-39.33649196010092,-20.95735832483461,14.59407608258737,-8.99290441445204,-22.904960429788137,-3.5083496489899586,3.306662148196409,-3.126004746647597,-9.385140882608368,-13.316808705144835,-8.063688066566577,3.282042096949101,12.635255716213596,25.518140625037173,47.762666347874045,63.87763265299221,61.3297075699669,63.004079348814095,80.76985091490246,81.22713639036846,52.32966188568295,21.357667082986907,-3.778702051728771,-25.17085844650335,-36.04061032145648,-45.807477743076575,-53.72339540878646,-45.62010596583396,-46.549641482808525,-70.84636630313517,-72.49875059707256,-41.567193490471475,-23.50920188389503,-17.492788488593227,-0.0022088192113933758,10.07557358802331,4.6536338095889676,2.3585570612429017,2.197724485258231,0.358044841117497,0.3175270334525422,-3.635571650483058,-3.6105390618717372,2.6931508428208097,-15.398179593489697,-46.71555823377842,-33.83358136948362,1.6944349381533108,-10.897038739525083,-40.38736061096728,-18.196779709059932,13.062068827522527,-2.519767276624851,-15.808582760816126,3.2282738696570696,4.590075045661372,-13.275941031335522,-12.274978815352785,-6.907411211379479,-6.189461698207339,4.039734710070045,1.7206599123548596,-14.763121247741351,-9.143300690204722,7.7987776687014145,5.291344197636461,-8.445292043667632,-16.95507122905341,-11.956606531864852,-1.1095343761258398,-4.965034752251672,-12.121339241643284,-7.817935871855191,-10.980698706661641,-14.338158468890374,-0.25168747433025374,3.6980430522055165,-1.2302085996197398,18.160109671356416,29.320403429623727,6.282484080487713,3.1870183122597124,24.49167774871885,7.7091383917799075,-36.03036062927172,-54.387137510271195,-51.65793171039711,-48.64741004318791,-54.550474021893976,-76.26873000441608,-105.30243585748596,-139.58758641175172,-204.809736839089,-312.86074207052854,-262.4233486591392,340.2221467536739,1209.6313734129774,1162.3433918568358,22.82204052451371,-683.5872013517449,-309.54396848501074,15.399389061143061,-167.2460264328618,-189.72832989552242,-31.043840916666028,-62.71757586789626,-94.33154248532833,-7.985425030542228,0.868953629934083,-27.805426826380483,-0.7355843814878398,-0.43637903833462843,-17.130755810256346,-2.628314858921531,-16.34394514045942,-49.353733161114306,-34.582968759870695,-11.618681334747562,-25.47930462219488,-28.649071303947757,-1.302461796353907,19.43593940722011,33.71242975044504,55.62756255690224,67.51994193471975,72.32548054078501,84.78719870289237,84.0290777690691,65.96765434917421,50.7407341194829,15.081407810001078,-53.437586195034314,-98.4534268386206,-94.51502429822902,-83.73441467257447,-81.56648671649035,-69.29423681304633,-49.62442611023904,-36.55370772360622,-34.13415326780215,-34.948765895007504,-25.046169274963397,-9.462819762611723,-5.595365158023981,-5.935595837487032,4.143110121155445,13.136343072863566,7.919619562160003,-2.0289298167768273,-5.883886780717173,-9.05437263254916,-15.575351211341408,-13.955765796794807,-1.983746429872209,0.6886802556416569,-7.6452810332610674,-2.8946121720394657,11.39813536825579,5.078644169454535,-19.235388417765837,-31.933069315431275,-27.730885174517468,-21.56548247090037,-16.79330703237162,-9.027713668724935,-2.748792619526011,-3.760280261714076,-6.418393933380585,-5.617887942694519,-5.510862414674676,-3.848328805427844,2.7517090105384057,5.800221182892072,7.9081069005314735,16.744866792207652,12.202900049893744,-15.582700197532887,-34.81908689781878,-28.491872495444568,-14.410528258655411,-6.301610816741327,-10.913534208121884,-24.01887754102245,-22.11497327600015,-3.134979535649949,11.128383010625999,22.60025556706097,35.15666614465452,25.46384756857823,-9.437553127302458,-41.31276532473409,-54.348973383516864,-52.28343575102336,-53.961362505584596,-75.57319038460784,-102.36748083445671,-126.50691668075606,-177.27010371501623,-290.6000847113636,-389.8443054550679,-98.6409678186975,792.2081219674031,1420.9967857400757,766.5689863660707,-394.2238393507355,-571.196802112222,-91.77433261437194,-58.846842356885745,-237.4601421252321,-117.80908646309098,-30.610295969378,-109.31609780239697,-85.28521037919099,-28.91645864313081,-55.96238666299552,-43.12546224825424,2.4324848575237183,-0.4490975108135764,-8.565639595727408,-5.647514760895145,-10.612414487849136,-3.750758014235121,4.834510139580423,-0.562191287041057,-1.6623261847024766,1.853816214338428,6.2831918376896025,21.74741980159852,39.30903915126122,48.84604285924371,53.39001982802547,54.662116683324854,61.80592804518302,69.12855759739536,47.34373795951727,4.361170568136214,-23.36139414884865,-37.99251999852437,-52.51414377516064,-55.30817388965852,-53.64305591789098,-67.99969006543353,-81.39246622001276,-67.99408942889733,-39.156885305313466,-18.244256389443933,-12.104436929979123,-14.37681966814852,-9.145284982684785,5.380440758634553,6.355281036654688,-0.6757243213865678,17.71260187223764,36.39562313735393,3.5863564762567286,-43.953092657200514,-42.43288165351787,-17.72570150869693,-13.962171394683104,-16.416809008322897,-12.607983457457827,-11.830763755431327,-12.036950140546402,-14.367087062316852,-14.257376984369404,1.692004305288247,7.234391131321992,-20.38515954279479,-35.45213793669734,-13.342731244517832,0.9092094388478849,-3.8114578931229914,1.339506030469236,3.4064254651413144,-12.832045606779026,-19.324088614696276,-5.715530326064332,5.635747527155354,6.4901609925022985,-0.21063961560132682,-8.66940687951875,-3.6175708304719016,6.907338629153768,-3.0909418749064628,-18.690372478305314,-11.396528098818703,0.3802328424629504,-2.018226091416542,-0.8578330958810358,3.108868198084835,-6.747468784974082,-9.804832591121885,11.300694785391206,23.12602131856263,-0.4896502833868297,-37.67404847046308,-59.23723733996619,-60.38666641437387,-61.485463525807084,-76.56762178797644,-89.91183779053424,-108.7637037934897,-160.97475519003098,-246.60513579112234,-333.8931792247844,-159.80591270588337,606.2245738176811,1371.9447421530726,963.6036745399548,-242.12049227102779,-635.3613408201722,-161.79993435105268,-26.57064174211508,-240.82104513882794,-170.59813680598444,-37.81860323403302,-94.09723556036778,-84.0598426502044,-15.567884459636304,-46.895017065250286,-54.92627685371318,5.667554220764131,15.205845772966065,-11.210975603072828,-11.88184552917356,-11.02721526814448,-14.925973255458615,-3.9203584392183393,8.292773099679343,7.794021504562785,2.78015659031119,-0.2624584546635582,4.16626947396033,26.293251892250897,56.639544128587396,67.04600980042856,56.590047944051655,51.86070695189233,53.29176703481764,38.655900124452955,12.362487769901856,-9.376342346353956,-34.10921605985213,-61.36203966901914,-68.74135909645702,-60.78527938552135,-60.16666385217754,-58.27292186958245,-45.967589958277685,-41.94436194237376,-44.40220497697726,-31.329958329463242,-12.122699061373922,-6.800997719843743,-7.444206200964182,-3.842251119060883,-0.9307409249759431,0.49980860195057275,3.1422088367966374,1.1419701589434723,-7.221971391506958,-8.638285498676524,-0.44929846692307507,-3.69973678948422,-17.187676987951733,-11.980618217507045,0.0665853556944711,-12.234931615882825,-22.91748034900024,-6.969177837761666,5.001441279745485,2.431690612058656,1.740364621794459,-4.161694049935559,-8.323347313458623,-0.8758587829222755,-11.49624238551116,-33.279194100038296,-21.782902511593598,-0.48685048010935006,-6.575449344949718,-11.932726220837576,-6.446105773794962,-13.31415934024249,-18.084142038033235,-9.097042063035058,-7.1683291357784285,-9.639490140141104,-3.3010010155378584,-0.36357084696699005,-6.748398142039498,-11.703277625387665,-7.546273748471224,5.369624659319914,12.555612240180569,8.879660338635446,14.750436703591793,25.09156230969752,13.22554037231185,-7.665554876462949,-22.03349321117538,-45.12162244290968,-69.28745902339998,-81.3020382728245,-93.1386535594087,-103.23721601594588,-116.7301157799991,-172.03293097304933,-298.5023636199227,-368.41359584580255,29.3841490317576,949.2179367929036,1358.0597267558744,487.3387171201372,-539.7092145936977,-477.26774778522145,-26.09686339406326,-98.88820211580233,-233.694476921383,-86.13368276730068,-45.34069475866758,-111.25753899146422,-50.138082447808856,-2.887165261555353,-34.6257059790867,-16.609465931379802,11.219760851734842,-5.698068464319475,-3.9062284881865237,11.535443522489782,4.015995041627711,-1.7739858738719274,-2.904421550573067,-10.602974574724406,-0.9058140313115519,21.933266879736088,26.03209452246769,26.518316242250087,47.17564013741611,61.99261163812778,57.418327618007105,65.26189851416584,88.50745196271674,86.67510107205058,49.770515561222,9.530215894080765,-22.13090521343121,-57.51673570980557,-82.19992972255989,-76.73753670633809,-65.49892728708367,-63.39325482628322,-45.746407016615365,-22.155097164612727,-21.631010322420238,-22.576656810841556,-8.817082745788841,-3.2102454339788373,-6.613019638109442,-10.090554840688046,-15.540405625343677,-5.4134132947003195,15.916514441971675,11.953199543850008,-6.677647140300818,-7.57004616005603,-3.3546713018380547,-6.841081933500057,-7.2983822082071015,-5.326422071850082,-4.455245627198588,-2.0056748478830677,0.6819707371283492,4.2730126246473725,8.256655454336112,10.301556278962392,10.387512060865863,-0.8979172909480191,-23.34776897601596,-31.11518115620833,-20.74242939411825,-18.583762781500358,-23.73988782649749,-19.819036439724126,-17.092820366993777,-20.068924257065447,-11.824255246908448,0.05684133650659717,-5.663084365610274,-14.703558898908831,-7.622609263014446,-0.14376929289672802,-3.7702927531051316,-6.412875185501658,-9.24543536204036,-17.24385632972065,-13.80017089448748,3.260179593524416,12.32634103324693,13.791438077310197,18.50886736106984,13.409015327730565,-6.121941302745693,-21.509710010915057,-28.67793941122203,-45.36038658059965,-82.32872808248925,-114.40261397541934,-113.85529425091437,-117.41247071311437,-176.75994491136427,-302.279301385326,-388.5747183520033,-34.01613609713081,905.7334974136397,1428.9234598947269,615.1970903627682,-494.25973230004985,-510.6820037115803,-44.427409361915196,-98.70435460674,-253.29537818433215,-108.93609356711714,-55.882535699206755,-127.0516190901852,-73.82562999727094,-20.93294940371989,-44.68317932702861,-25.4840417332284,-2.2119964889147923,-21.106000953714236,-14.171232881844148,4.381298027977802,-3.737698227823749,-4.0763138236132335,-0.622686179758885,-18.1688658375901,-22.83254855529096,-1.671132701012073,11.709465009001212,21.01387280220817,44.532402044085394,59.01165128256761,56.834648340415505,67.68360790822575,87.83479489547905,84.04130220401223,54.523385276542264,17.610714255552406,-17.7857518316465,-40.56923677591078,-45.406024626296485,-52.834185822156115,-77.88503613335821,-96.85946996527844,-86.01614170549985,-61.32317156902323,-46.18624413470518,-41.50553482005253,-39.32169930438184,-31.19171743618287,-18.006471267050628,-11.38643510037727,-6.099000017315298,4.654091585205869,3.1543378340496098,-7.552410637286144,-3.995165153259016,0.8494145600630887,-3.483125505940553,4.185772270170336,10.501495745479716,-8.79166545573117,-25.27346620773823,-21.49680260512129,-22.923314987186636,-31.441392907989233,-30.8120608974807,-25.079112173384274,-17.51517263262377,-8.724597024461865,-8.833094318484775,-16.753947020811815,-20.323118131159795,-15.831209412444636,-8.908390949626146,-8.221000987551594,-11.281571550261326,-7.4380168169938585,-4.492386279056856,-10.311604768842589,-8.599917488083396,0.33761404998261924,-4.856068983808299,-16.536921539315315,-16.752827850102634,-11.594806965959393,-4.208338491816043,7.513516443873037,14.948416229803922,16.868418990959643,13.981807009863877,-1.973431903916012,-25.87296278345183,-41.52991766523253,-44.22800904540402,-50.965239464746894,-80.18612483458823,-105.22548737023789,-101.03190546426268,-113.09203011461894,-187.27681553456753,-303.64660125161254,-251.70545018064684,340.499415390493,1173.3497154283282,1092.0857058062131,-22.682426701321532,-668.8471944206331,-286.5937545671079,8.379355164485737,-166.17789648276568,-166.97663279574797,-24.50183967086781,-81.00995052000737,-120.81732476396958,-39.78253086849225,-29.13430493124821,-47.39556149088077,-14.319285514081075,-8.58955547352317,-21.931971038271726,-6.985695329540324,1.295079328037069,-4.638330145110796,-2.928764837719479,2.25552998369003,6.456917590761453,1.505827725694271,-9.504049491627264,0.9376042026452136,27.012122652169758,39.918794104931195,48.056177128722275,65.47267848097412,80.59862515242418,84.05743550335178,68.56552221038314,27.764205937165798,-20.310574425741137,-52.08663205402402,-69.97125913708955,-83.44618449806296,-87.93179253411162,-80.94421053860378,-69.03534747784299,-52.366148597897336,-32.03318021371533,-20.982792903270514,-19.52005281060162,-13.72437197628781,-8.222656042213274,-11.807453245450528,-12.944820554936513,-8.088617759071958,-6.877774301495201,-6.941278264444264,-6.689965214227556,-9.494351949046933,-7.982000252653165,-4.616885614461868,-11.843583705393534,-18.96951118138407,-13.919652595799601,-10.771960000901789,-16.138935279488543,-17.813961437257763,-14.301510150964845,-12.634957453978053,-11.974489269631796,-10.827653071866663,-12.143238269244442,-14.610492785353053,-12.795500037697948,-9.46418131698028,-11.055621102504617,-11.555647206925215,-5.5150636505790445,-1.2181146331591393,-0.7037535331139324,1.2306663383496996,1.9752211339980121,1.9763688793116678,0.9037257499247673,-11.562634961014588,-28.991206947725345,-30.94846639079873,-18.877477510734337,-6.5143511216133945,4.216625085294893,16.852203941877978,28.19424525324716,21.336093789688118,-16.639648342605405,-61.42078705672691,-75.68092364660366,-72.3124552812702,-90.71298123061624,-113.793631539394,-111.63842195241932,-125.52384219226643,-196.94372286459316,-319.8349459463225,-358.4192859002251,95.31778141050717,1050.7413750890162,1400.7742153854583,441.2751388534673,-571.4187406967771,-451.376674877475,-20.25292039785611,-128.7529430067687,-249.05005654270482,-96.85729937568053,-68.87443325460748,-124.98379001653679,-58.77394438944424,-18.24468218238742,-39.39992882588073,-18.442543730877173,-7.186591773835268,-22.400324840321964,-8.186625936423248,2.4204066547003364,-11.141946668076429,-17.632398472775336,-21.642570990423614,-20.71455393384776,-1.0483927461160087,12.624133657738767,13.35717801932953,25.191599646471175,41.30393389086055,49.436128507114674,63.85728205787274,81.69897006393143,83.02298488077523,67.4980016150095,41.64629363265604,9.53199693172014,-21.983237275967273,-57.11440059952648,-88.49976510296327,-85.9004464413666,-60.29952345533141,-53.182157656212496,-52.80213316736299,-34.570108650556975,-20.56081351475935,-16.957891565999667,-1.2549330229426658,20.193876017205202,30.186968264936176,25.848995956952784,6.575020788599165,-13.35167985500356,-18.351088812768403,-19.91221906725923,-29.035461879197868,-38.15413729482545,-39.52460918609247,-32.12234710111372,-23.51046365125852,-18.982703013370877,-14.97916877882567,-18.61481710946513,-29.372333159948358,-24.648688794478907,-10.753936990381202,-10.76976402190214,-9.026349054340443,0.7312629016456142,-6.673761314323883,-19.081153171650413,-10.233762850797827,1.7668258096227554,-0.4626222255516126,-6.319202818304724,-8.938981049269579,-7.390487306440338,-5.6378428435525905,-11.913901327062511,-19.36558552168889,-19.67151895240977,-17.989182511004014,-13.533896350192808,-3.066424911207676,10.305977396185494,23.48818657766086,21.726604515022196,-2.8503164560681924,-26.443137365567658,-37.34937633698925,-48.8364232229825,-63.03704357133441,-81.8682659011055,-104.3130086568039,-119.44139688559295,-144.71202478971333,-218.18132767022163,-339.6145918858831,-293.3884942180384,324.16603129415205,1242.0721369154599,1266.1406744055816,152.6770942119935,-618.6034863896745,-327.6942942466279,-20.85627719487671,-194.69833803400581,-230.95903132200664,-73.92070569771755,-84.42273966300816,-111.29532868294716,-33.060485418358454,-20.706600160041383,-39.177250176303886,-1.342963765317812,-0.6540121467993174,-37.03806648960848,-22.22677606286041,12.167603819831237,15.473509435412154,12.42147294336966,10.462550135664411,-7.239200724237614,-17.563714620946847,1.3937515605872601,22.300995294565134,26.08781090453912,30.78449387278687,40.990579497518,49.76259787834097,65.34411073757478,78.12860058901661,61.93371652611718,24.936205768320555,-6.754758114360653,-32.90172796177129,-56.43793508643844,-65.34969754153671,-64.33031168234831,-69.0277685186973,-70.30387882670163,-56.20885792357031,-39.460198952020505,-26.93004373998768,-12.188063189885462,-5.133496966722664,-10.770111820161496,-5.470691302384953,15.137880714810288,20.898074488298782,7.579748163630917,-0.05499554718716837,-0.1109126843850472,-1.7142016546257182,0.15196148249076913,2.7398293506543627,-0.9073448528499313,-5.688607706797955,-11.177797813249395,-19.029550178553954,-25.94112270709097,-36.823302421590014,-41.804552774133,-16.405240223572157,17.730917036862095,17.498711621249363,-1.607896820471522,-5.246146879731743,-3.423031166572242,-8.684272894445607,-10.1764156307571,-6.77579608800508,-4.707606399632873,-2.806089843933666,-3.969331426255163,-11.320289226619103,-17.116436821385605,-10.85816533573428,7.245869042967913,22.367574252545953,24.96826621911859,23.86819490700454,18.39822397150765,-5.498249852055409,-36.13492332477469,-46.43154535880929,-47.77048263793644,-74.98617403356779,-113.93737646150177,-123.75780449501616,-127.37319446798641,-182.054270817127,-297.89567427046126,-337.5647747969404,69.9895811474185,955.4575051563725,1347.8139548673425,514.3297594539638,-500.53764291129096,-482.5231753101759,-46.997871960942135,-89.13606228831597,-219.28751922337378,-94.71623204912225,-61.07533236708571,-128.49022164650458,-75.62399855307805,-25.014081815866973,-45.9830721203451,-26.50631318513086,3.1959246025210977,-4.98675652520765,-2.2733182773010867,6.163683903522632,-5.077341390967744,-14.192737855136153,-13.926781335940639,-10.524819251059224,-2.2819694482132116,6.30842505041837,15.400789785526808,27.461300939498862,39.51045781404072,54.64372556958975,71.56792401358764,82.44546197765031,87.6008455582286,80.38386896664709,49.139003458001746,6.279167556796746,-28.74162387726377,-55.214471104200356,-73.06256930374926,-76.6660327847875,-70.28209041724736,-61.610047853326606,-50.75939215547784,-36.1865422564654,-21.372430537018655,-11.565297935492858,-6.118294555578974,-1.0519165183164993,1.9869620541797453,1.1653747234095242,1.6204895878552303,4.884031151894206,3.379615351838492,-4.612524168759094,-8.744373561493468,-5.211338703190819,-3.4283641667418117,-4.791048800592137,-3.029033048411865,-6.070322958112051,-18.92855408514352,-24.20670660330697,-16.08461340419423,-12.364790465114705,-15.42050566745419,-13.172487453964354,-10.761037359798863,-16.499209529987215,-21.31462314700945,-18.404535137512063,-14.31549130845577,-11.155334749391685,-5.176677222889033,-1.5507817866937472,-4.548412343492558,-6.871263093316742,-8.04805865802805,-10.390696736469224,-1.6165012521403277,12.817734733146658,8.255887349599107,-1.6445157937630839,6.365130273215504,5.489336242614996,-24.191682299881503,-54.24311455986734,-64.6603210708426,-69.63491427776916,-86.84595661058697,-106.96223841004948,-114.30009061641923,-132.60226226662041,-197.5226103185596,-318.5682985221069,-342.77665403298096,151.33910448171554,1104.9305308075752,1368.389543010408,350.85184773830963,-602.7296675110415,-417.8877824189553,-8.910783745956092,-143.71783435807652,-245.1820230362232,-85.83186108363293,-67.25740963285372,-117.68540112128984,-47.516873069934526,-16.42126567462165,-43.876924907329794,-19.729908151119627,0.8392505065626663,-8.246534922903344,1.9227342567771668,7.366526599177209,-6.395808130241665,-10.345302185949084,-9.245108750828507,-9.068196054958557,1.0243365676564427,11.640548977716549,16.540089837248274,28.037439462709887,46.96229428374513,61.01476135900187,63.47183278710322,59.18198057429744,56.64628372841485,48.463252922758365,20.872435650370107,-13.901982184967432,-38.112321443689,-59.383078828500686,-77.1596299907556,-73.51416727608927,-57.428058493682144,-49.589558996950885,-43.51748612787722,-32.01128645742148,-22.141964994900476,-12.56065713682932,-1.113432956970943,6.939708443863555,11.236205814184551,11.493834076973446,8.588269004068726,11.092775837816495,16.749668226621733,12.843009098798685,1.0296819825270074,-7.684663367056711,-9.880083559204172,-7.405510918379601,-1.750194479486689,5.4835116527681045,5.5501682718195955,-10.662194572067879,-28.927478382744745,-27.32251402988111,-13.993596873730233,-8.76901442147037,-9.944523225722651,-8.551340920783478,-5.722132299043487,-5.540072356108087,-7.283081664591528,-8.04100792489357,-10.794606245247323,-17.71545408259823,-22.35737009057039,-24.77982225589436,-26.24218100297337,-14.888835362562752,4.300183525143236,10.873255912944387,11.741378974194795,15.42886867228478,5.346919670325889,-18.245271758170894,-38.73757284234349,-55.160267911014444,-74.14029360458713,-97.99110728226827,-113.33732200354967,-115.25798260453016,-139.10302799933038,-215.25789480345526,-337.20775842655917,-313.37306509890277,279.2987263434391,1233.978180628888,1318.2314165255348,182.88093001875893,-655.0647364268352,-362.3602691011132,-12.949925479201692,-185.65025196714407,-239.1246631073303,-79.36390437055397,-89.77099529277527,-126.1311035531224,-45.675665478724866,-23.584974093368686,-43.85687719429205,-13.240626582640427,-0.8766488520985991,-13.293778947642785,-0.09081127764505226,7.3710032462883746,-5.167732111237882,-8.011488450922911,-2.816078218084783,-2.1916921176712574,-3.1443038494575255,-0.16578879143554737,9.883357607464125,23.058591253941817,35.27774499978778,50.92920970614235,69.55321636560211,82.22893077343534,82.52658582874665,65.1034798838453,30.09042606515065,-5.800415310489864,-30.10273442876636,-54.17121058987151,-81.71071723736748,-92.39346520103358,-81.04831283013232,-66.1802938459362,-54.34705981993686,-39.82235198631673,-25.660194075302186,-17.273025009231183,-12.599173625957665,-7.31906459410898,-1.2239659277195933,1.8822900064685122,1.5001243028994473,0.5177658642142156,-2.208422662315577,-4.83217890639645,-0.4103115453534727,5.305463024241488,1.188964535782162,-4.124003845724033,0.16825206850064944,-0.3200488786943865,-18.752065787875214,-34.28911254738093,-21.06461999313522,4.581738912165292,5.983204616051147,-11.90780531838612,-15.412655145968742,-7.874332090945284,-16.249110437346648,-29.799355486081996,-22.19073760168782,-9.015882059192169,-15.265016477457213,-18.89169151297304,-0.5166702875452742,3.2515014179408013,-19.363308813116504,-16.38564840099764,12.363852821882514,11.16643925365754,-4.397390524955004,5.233696330472023,6.27234855635329,-18.748514630732036,-32.315727635368695,-34.076325355499385,-52.86418572705355,-88.04148102310205,-112.52506875297918,-108.88584505535076,-113.02353656005121,-164.98592236409013,-262.73862643988247,-333.7816974679267,-36.93541134598888,831.2028093804614,1394.261737763283,663.0835721040611,-475.4755312429628,-559.0257874447442,-67.38237330453966,-80.69259573210164,-249.91910294417195,-104.53611238942104,-26.279425395801724,-102.08854511644239,-59.50324457414109,-4.945884896391533,-46.97445145570899,-47.91734518194806,-12.93987760868554,-17.30797678132779,-17.684680998103193,-7.10737334132094,-15.09575959501247,-14.62944097171356,-0.7959167674781522,-0.46879555410360974,-0.35168148238577124,15.198982955970305,24.987089778158346,24.395923760931147,37.21866352113967,60.976245372691395,73.47111785132681,78.56704419632497,86.30473473113346,82.93732213916122,55.82160576705243,12.85138148751205,-28.03994147509805,-53.13802294120052,-66.7743515961396,-80.78309517941304,-88.9478235802867,-80.86903158012302,-66.55137820969131,-57.13419208712959,-46.17433256967307,-30.60643956908907,-21.493118877286207,-20.06860553566765,-12.832147675896863,-0.07816179981229254,3.8933143702323,0.6843129012778206,1.6116655660405357,2.548824796611779,-3.104026115093717,-7.600982873870546,-4.960255231838907,-1.9426191530017292,-5.284206004719557,-12.386213536104037,-16.82435083822692,-16.64934786263006,-14.942841916372394,-14.699879563318824,-15.5149779180222,-15.397440874420504,-15.383883729663431,-17.116963669821832,-16.576434614162054,-11.201600050388638,-7.20515652063477,-8.560787983879518,-10.995246535047027,-10.472289800850966,-6.184515359887701,-2.165201005666841,-5.310462051918201,-9.496261368983564,-1.4561758464035428,11.807009239949936,17.327755530193492,23.587020112276,32.90912820331297,22.11749730237744,-16.659564007533323,-54.301214903542586,-67.05775502549187,-77.54847562121543,-111.7098700427585,-135.63951916324743,-124.2949291278781,-135.6633131812571,-232.14245284952483,-385.60618252790607,-327.0961176243532,351.66055172548,1294.480443544876,1258.967729153899,87.58582129620493,-666.6116662979143,-333.9751360201467,-19.005945661580732,-193.0150991802765,-193.321940590816,3.8001060408536773,-45.490623270408406,-172.00932825421876,-134.30824778484543,-87.2651244462722,-84.74421022322647,-30.508900570126134,36.105057198253064,36.356089910520396,-15.344302394759449,-46.38930125736531,-20.133353111425325,5.979474199650367,-1.854913996824719,9.14700864588714,39.9905027874893,42.968991697760416,36.54355211855149,44.29535520974039,46.540786712348236,49.981123348579224,69.12600151277407,83.94198093502816,80.93077248487982,61.95879469585559,27.57617720251626,-8.963051206580575,-35.59878363026767,-58.36765301841253,-77.1000376245772,-79.75343191007784,-69.03429597433973,-63.31764531405851,-63.408387025321055,-51.473408061167476,-32.213531209275075,-19.895535944378103,-4.498999160481134,6.716111508352771,-2.5989155516084352,1.24701881513111,26.993245537980698,27.734909261110293,24.22474352226318,51.42327345180831,43.644318333417345,-12.453978884599568,-24.723146013847135,5.3541811556807986,5.162731109985332,-10.947432655465324,-10.226540134434613,-8.217930877773341,-6.713219629351039,-4.161387859869155,-13.075214430041076,-21.506185583299004,-17.94872777524091,-15.988261741444763,-15.924092899029873,-8.731071653129344,-6.054545645582202,-16.144512024601813,-24.10950287713996,-20.17497195441323,-13.702476904790146,-10.754375958312007,-7.738657887598038,-5.43617758865431,-3.5612598446818495,2.7606636349617446,9.360068725189729,12.339622585727385,11.817239059483796,-8.631026393177411,-48.88088301803036,-69.47147273145532,-70.79456101474784,-92.64863610252576,-115.36349640957333,-112.42878448438489,-134.48378362050346,-237.89198850636498,-361.34534791409874,-171.56317506184917,616.9539743224846,1340.1489211457883,889.4818506928524,-302.40450157689224,-689.0847658460887,-216.24058207283997,-27.875295680026277,-190.21239016316503,-133.38012627613932,-26.12884128789348,-85.80946118266297,-81.7533750503032,-8.758648698158932,-19.237334797403776,-35.42069065799074,-13.459922465044544,-16.652548725887883,-22.627223379983455,-14.944525496184948,-21.434364975362822,-20.98526903286751,-7.677958288372977,-14.276906266349407,-25.20120899131258,-9.372574670715197,12.0005904801205,19.764548539189207,38.903086901927374,79.57266311288825,113.26184108364293,120.87984172923147,102.3813196851086,69.14761133641913,47.935643692753494,32.8089629599647,-11.763914616014771,-62.2330472548733,-75.03941041241947,-79.41120169840723,-101.42238310800133,-103.89297491777933,-70.44175013239581,-32.17016334795461,-18.368755071939006,-31.555330995552243,-33.91465538038737,3.4249831424486743,33.27001957720891,5.189536821249078,-42.29253862239595,-46.528778702056464,-11.790201273537761,11.359722722869627,1.1366588600082963,-10.90866132796749,-2.145873258730383,6.682073145767717,2.831761058375424,-13.947275213576095,-41.81775474883919,-35.123533573223405,15.486997500141522,17.719403383924863,-40.32266704377414,-56.366035422293265,-31.110900688042843,-18.793289715646452,12.199766987260656,39.63924046475246,-6.466428354267798,-64.14895602175577,-55.520116065210175,-31.202795085450543,-36.49176952814334,-36.28837070894285,-5.962776663887297,24.595732025911552,19.94850922659645,7.9130309614451875,30.990058165559233,46.97679707570717,21.035769135857855,3.555451495752706,-17.203147969286917,-89.17582691313497,-116.87238060331354,-52.146647451012456,-47.47787391814252,-113.17331289984412,-88.90847196354827,-52.732166208145046,-176.72849604456695,-360.6950239068271,-322.6718664073959,237.88578959832495,1113.8101649272544,1230.6414911373136,182.4885888859049,-667.5759148945872,-412.00595308380286,-25.206934471899825,-158.62170104659202,-208.93237324678734,-38.188315818825274,-43.92854928478715,-98.81215099953263,-33.2438557340743,-21.67567472404722,-47.211379779309866,0.9581938736783311,31.03648596316264,6.87538682294884,-8.328108816150056,-18.649650858879323,-23.026281869559014,-6.432323837927282,1.1439151892292712,-2.0931785344563307,6.424071228188513,11.72316687633577,8.516012763954901,20.143284849408428,47.6747972122326,69.46550091999207,76.01887316332005,83.64483962082403,101.34817066441339,93.40717909074975,37.04875369996259,-22.751389410090066,-50.90939696304499,-67.26295206195238,-77.62950844833745,-71.48752951070492,-67.90757053788954,-75.36199887149223,-70.03515905770237,-50.573738948157875,-37.329869067089064,-28.021172117038972,-14.563996576864188,-6.089518410147363,-3.20186259029942,4.793473601295187,11.646480025255602,7.076324354017853,1.3913150945648098,0.7919022849876853,-5.044677720313928,-9.826446632538376,0.4122946449127145,11.238607586336844,8.951138941146757,3.5929800631371727,-6.598141701246256,-22.36424681572328,-18.35612171059099,0.8179279711935443,-2.4241230078591016,-22.4169723646561,-29.56102092622359,-25.88307152955862,-18.415218902552635,-10.058856253823887,-8.302817978719084,-4.138564732222001,-1.4428675599308534,-17.976591566071303,-21.29652512013672,11.168902650221403,28.512272785545054,18.785421572287685,23.92716776922299,26.740652629255745,-0.4905582950585945,-30.510505078364506,-48.168610373322224,-62.911421669180115,-80.95277056107633,-104.26884377766957,-118.03327655867382,-127.94173085737577,-182.82602674270774,-300.2424617577523,-307.2718364690237,181.79475300050638,1063.4845844636184,1257.9544284662745,250.47303412614872,-664.1058003959586,-465.8838668471357,-33.538766910963815,-119.71559054527823,-197.82621719555905,-59.134479666268234,-65.43363290577092,-119.90505731873085,-45.225258376395246,-10.649763877475081,-36.57547176194889,-18.105977451832256,-6.291848599976706,-20.107332658720082,-13.020007264410818,-1.6797637071830778,-1.7535902281026061,-10.971026819685434,-26.090610510346618,-16.780210265661594,11.23291918610249,21.10353605976855,28.44126715927861,49.45761019204196,62.73630377255799,72.01164324845664,86.04328751981116,91.80341210209349,96.77382676863617,97.21446579209996,58.836828852492246,-4.404828522816789,-46.48315339827492,-71.18492019348278,-95.91700353274635,-109.30877852309727,-105.64707798149269,-86.51321381092272,-54.71121087788538,-31.29118744475421,-26.073384055282865,-22.721520591774315,-16.584363793658827,-10.868274736017465,-0.843528004006739,5.0926967227387685,1.5046432941362085,1.5760314903783694,0.16113141082190197,-10.41763227454323,-5.64895903824141,13.79857394371928,11.865523222529172,-1.0547451709522822,3.6599095004825752,1.19621389019035,-20.296702209393143,-24.995251098714586,-13.06913409456753,-14.07912381330371,-18.324873106485853,-10.637147497670755,-4.419400662605916,-4.0602499113058705,-3.60617578174357,-8.941976046847188,-18.006551540842647,-17.0433965530067,-10.373197511344245,-11.841899416325298,-11.382822587191217,4.579221177398921,18.736333242451586,19.504580380937956,24.34628485738,24.327938517149686,-7.008572692220675,-44.17510287162769,-52.649275196422415,-50.74133413188799,-62.6146377916324,-86.40094080826285,-110.56728346546946,-126.89520846348421,-151.9517864776994,-223.3692936120002,-351.47866398218906,-330.11916382490983,270.04857361751795,1235.6972796446823,1338.7673878596133,198.85843486630108,-685.4430955899318,-408.13404737166024,-15.39637685464725,-165.96422245048274,-232.27912523531205,-67.64219570987946,-72.03894643735941,-122.53831007767852,-48.53254044606359,-27.106719770362815,-53.91740845880592,-20.442262815262545,-3.152117906505005,-21.45071869579408,-12.945864054691597,-8.961458185230349,-25.278478194037714,-20.10791819226365,-5.548441468700416,-5.085078708058835,1.877886253299905,20.461530765687325,34.181594171606825,45.88175960491692,62.48100606022835,78.506867849803,92.03345858709854,101.53730773021863,94.56246557297817,62.41159237957036,14.797927938497308,-28.87937264000211,-57.96895482067753,-75.31360481932605,-82.40709511054722,-78.01455346081272,-71.77559102638315,-68.79466853294002,-58.42188396038887,-41.885862679583674,-29.886313737679266,-19.1257921987796,-12.774590619719287,-17.609933311318777,-12.52121921854835,11.005187226467688,18.99207679743554,3.6091964597311765,0.6402589919715638,12.829479396791962,9.827583035451429,-3.3863620386812556,-5.753534526792031,-9.647850868272645,-20.552672720457174,-18.231517124064503,-13.20179695599964,-23.46019374819874,-24.600909383019868,-14.591697957940024,-22.782769504148433,-26.994307502980426,-5.036948935620824,3.4652299461291456,-8.945973255622349,-7.258787868425154,0.680503644491619,4.622196641130678,18.00694359068358,19.681944117056013,-0.36699525644668185,-8.067728151597322,-6.861512851337629,-22.663101553693583,-40.64572978454923,-49.12382926925378,-58.52331490454899,-73.04513430578345,-89.73282161388823,-94.36737659330129,-96.5515743448328,-143.90208258618526,-257.4508101394624,-344.10477054313486,-58.912764326940334,803.8050067429284,1422.4211836721843,750.7288923193001,-464.18908098818673,-663.5347296647265,-137.07132300735663,-54.72382056387384,-224.83946879031063,-118.34925377806354,-44.984459267849644,-123.64091139434609,-84.35228656012055,-16.06476099149304,-42.53797009569391,-33.41677624327086,3.934313859181305,-12.630118858550116,-26.972897343995275,-16.565297380152238,-17.844322511945055,-19.866961735156107,-17.392875023713458,-19.013520757266267,-9.235337554542816,11.183211079797248,26.027732793846113,39.7541835225908,57.81939423963037,74.80459881850837,91.25815601479236,106.89680503661894,110.187487598424,87.74793081135014,39.43289799780305,-14.014680298997359,-51.406942526583364,-73.7549011266739,-86.50148404433932,-87.75455412511036,-83.07907064377997,-75.50020208137188,-58.24625732017412,-34.54483431099142,-15.17557055196184,-9.822249617856016,-22.748016501249403,-31.70906665566583,-16.88106406345323,-5.284757529794458,-15.449332039656262,-20.165548604432644,-12.560302137231162,-11.817025149345184,-11.15812246729869,-2.4800980990083694,0.21266800398718644,-5.498698435720275,-9.597660224937918,-11.537020058469064,-13.582231200156556,-13.829954783043185,-11.734191858305646,-10.707820989326155,-13.065730259087903,-14.95087146575407,-12.412167344637467,-5.881817486506868,0.6341849519108642,-0.5553923782276549,-7.860793219684357,-10.875276296110808,-10.4815322392627,-4.02788368303624,15.287858358203499,21.35895299131723,-0.1605392615981529,-7.912274315763927,6.739201463750399,0.38565914191246975,-26.864851460606545,-49.62476509597362,-69.28780889376854,-84.378961499988,-98.01298385332726,-116.56290855366078,-129.28643147816214,-154.77689051974008,-235.75780359731039,-364.8847914478007,-321.9200380709775,320.722674210425,1331.4082679340813,1430.826637764225,228.96227972499037,-696.9115826717809,-410.01132962829865,-19.688176706360863,-197.69297579822756,-270.56614308925475,-93.87876089026827,-91.81275279306988,-135.34786434282492,-50.28024594921778,-23.75702108158218,-54.031275028538246,-23.201478834995573,2.0784826636934195,-6.8404963710620486,-0.40521047102380336,0.8527091967894691,-13.33654124103914,-15.538979389007064,-13.013931314107094,-12.551479152200857,-2.2196880016708214,11.21216287568986,21.354401393469473,37.40882081935746,58.491814464271656,78.52092960279653,95.2161423112203,94.67824293352628,70.48029959931752,40.128222872545436,8.165548217538715,-32.49605231611332,-63.9458960862914,-73.46827180319262,-77.90726328403309,-81.25005488857701,-71.79507411881474,-55.51714798840321,-43.96546722571539,-38.22875337933206,-33.36231628916161,-19.416697698908244,0.5671976611827638,8.805462038870541,8.754371964265044,13.324171405885204,8.454947736741637,-10.153118153567178,-15.304910901779795,-5.055020033159803,-4.923987801126486,-13.304256981420217,-15.360078076392295,-14.04862047316724,-11.84051605287543,-8.778670267439303,-11.798012674574178,-19.069762825059637,-21.212618207773307,-15.569546665899072,-5.805985987050963,-0.023406445448550528,-1.3200539114582668,-4.602381395259517,-10.490498676071468,-16.50293871765814,-13.003339711469922,-8.330544083958099,-12.940019551789756,-13.017539491234285,-1.1630416624275988,12.462542469148312,23.627071905451942,26.731049662618275,17.499811302797568,7.75115622600394,0.28984390905812774,-18.773461345850425,-45.37814579524443,-55.56545617885373,-52.16199739419336,-72.96989902024714,-114.35897815624746,-127.96381351453064,-133.2335127920025,-199.4302152845554,-327.9220548053903,-341.9672886632211,155.01640398755183,1118.096818088779,1435.4901324194307,427.2733144744609,-621.1529432610978,-489.8825870467219,-24.441225568994998,-125.56874426592162,-250.05970502986133,-94.44268296588878,-77.01160020836349,-143.59406117318417,-64.23761156316947,-17.912385605588284,-56.65298010008449,-40.32369097177788,-7.905651631101506,-9.316080836928215,-4.5468454858211835,-3.9749415821637513,-14.384030976562524,-12.784725314042069,-7.200859532385717,-6.0361462392745455,-5.24724769561259,0.09281599866138934,18.609646315705376,38.46055425698019,48.7817720482536,67.25156720696393,95.32658073816526,111.46194422240976,103.94721190411745,67.57151136016427,16.73449111342356,-18.718093000733862,-42.79229881400951,-70.94623328156585,-84.94469124105296,-77.42311531279911,-71.92733889178534,-70.81118210935148,-57.41059953332042,-38.832353783473565,-32.56298668625716,-33.27891235240628,-25.30999314864942,-10.208872969965952,0.8546168718370204,5.5003920422351555,4.982379354055475,2.877475783316946,6.620671780265091,10.253184561453736,3.574461492617104,-2.3665452342258657,1.292100856876548,2.5389938623827426,-3.814416059464431,-12.470493348246187,-20.436002757175576,-20.597488464568425,-15.685883233548203,-20.281258294714295,-25.931707192981694,-16.349630413744148,-6.268143727556424,-9.503597036332998,-11.695356772954561,-6.5108015865864886,-3.9793674460320148,-2.3116389377273237,0.9797914533067491,-5.984952277298053,-16.58041191816257,-2.754640926365086,25.986971787245047,31.334331658069367,21.474710778817716,19.89978878108861,2.974458260901944,-33.02036955023475,-49.555620426240466,-50.88860454914565,-62.79166794384178,-79.01772004574843,-95.11926892048274,-104.54786059055596,-107.57094523845714,-152.52078632887472,-280.0703537534205,-402.551621734188,-160.73688391668202,717.7185964722778,1481.9206126631518,956.4103245214155,-321.23790822040337,-683.8496591934602,-178.65577951365498,-52.799972539640535,-263.61677316466864,-177.23879434803993,-48.160902308808346,-114.18651672918892,-108.79473592594263,-37.901334301119334,-47.43987451030351,-42.71751375405134,-6.017719531832624,-12.853237478079361,-21.00332405140423,-7.911653539123709,-10.529046539271718,-15.945080457593368,-12.330203898831034,-15.30051870962756,-15.300599440061088,0.47634702969763465,23.73827140076137,46.40973825687909,65.69032565688487,81.51992928052356,96.29914193619184,106.02495977472076,102.75815113956435,81.63093833252285,39.254832119097905,-14.295257069096497,-53.50034073654931,-71.11365660097347,-81.76752867927208,-87.64935647155028,-84.27649232417993,-78.00233612130678,-68.34447584937973,-49.739682245572524,-30.064648864255865,-19.10712065765357,-16.48472214408917,-16.19603145529838,-11.429492080119623,-2.490816682787635,3.347011251975559,2.320747440571175,-1.8727634798517876,-1.4632422902958417,3.8952239533882533,5.924603800952955,5.2776269314989985,5.7883685202901365,1.2542731714785997,-6.731534610728641,-8.571372053827517,-4.72491372257727,1.2453045289385472,1.4454932283416824,-12.650572585996258,-24.188758853894896,-16.295218880622702,-3.4599316895724908,3.870616302434531,4.474602341627129,-12.62340098708453,-31.508234767002012,-23.721390694573245,-8.30766674126702,-9.23476586957138,-9.468236550999059,-3.5508832493807567,-7.989705929776818,-16.201442483935665,-14.531627578478705,-11.714757380535918,-16.17642136729807,-16.673129062177434,-3.666063129493871,10.728445522515617,16.332138588831764,21.44782311328254,21.260147729578136,1.6468584471574346,-23.986686155660664,-39.45112240317691,-49.40629155126354,-59.72217255164787,-78.37587450288592,-103.53907738567764,-123.06894722517987,-158.57528417103993,-252.73395104214154,-388.99048596386655,-309.254201535305,398.54565937914117,1377.5340325725722,1340.4751428765585,105.940693045106,-695.6667786640602,-347.76236876299043,-22.230063615076872,-222.63899428958496,-254.2194929870442,-74.68156836224938,-87.5482968205759,-125.93885583456385,-50.14049748032957,-31.525373432224313,-41.72918486270049,-5.1994579166160815,0.30925857627621234,-14.970951548308467,-2.7188095017295417,-4.883872388699821,-25.938414142255933,-25.219150950562643,-9.03676110800185,-1.8046182960050023,-0.6167937109708945,14.780702770397795,45.88656209122246,69.01664984987866,78.49160105887711,83.2060350486211,78.56436213707269,77.20850219482858,92.08846951229562,80.017452115631,11.787111767868698,-56.22509709355019,-77.7159510593651,-80.05717243976247,-81.57881756426724,-67.01364932492739,-50.79702297987965,-62.89331202798711,-88.81620047300311,-85.93433704602856,-48.129438743303595,-18.55346961174056,-21.85819244054855,-24.054159061895447,-2.7511860884717905,10.021315653545187,1.221957906992884,3.7877130835203783,28.207284361399463,46.71846955678108,35.36736821389567,-2.8709712820492577,-31.802683513936035,-21.548637247080496,-1.1155751473266768,-8.864411450239203,-25.21960212832867,-22.72437665256476,-13.621901828447406,-9.233121504084234,-7.474694506507632,-10.814889659135865,-7.748129234854613,10.100508296656496,13.080169584940112,-12.24381934293007,-29.389884263078244,-25.03666001209747,-20.849618166473235,-13.634457985166756,-1.662532158688789,-5.595901692484755,-11.671748558656628,1.6357314636889342,9.090267052819234,1.0826343183888287,2.4129644633663343,7.012148714083237,3.6700396608102412,4.252812455438669,-2.7564729946189885,-20.259600942304765,-13.92529221173788,9.322331421514086,16.970423541277743,26.340160614549447,38.7322576082075,16.596498287044984,-17.096242578714058,-24.94527554090824,-44.33808765261792,-82.82677546762109,-89.68028433794683,-86.87706963404207,-112.61252409887479,-127.74849536926232,-137.12140363359174,-200.95716383231706,-315.08282310769255,-323.8955899294737,150.14003869463323,1095.6974097031507,1430.0860327913053,442.602134326668,-611.0761014756852,-496.0149799679949,-42.151723711042806,-154.01807368637841,-279.76442975112815,-101.52356004990742,-55.50713476753407,-116.62778968091999,-49.184935965152945,-9.51178944441343,-44.65514998073356,-23.324433091053244,4.237450543625572,-10.753438961389577,-12.854419803197654,-9.660523743027614,-16.575185234185376,-14.219955094786684,-16.398002863982484,-22.142768764316923,-7.979519683585058,9.071080046783482,13.263194800166985,24.976533728647865,52.430008784542714,83.32967696244555,105.62988726321612,109.86054051015842,102.88506060130834,91.55907074090564,55.700451434508864,-1.0907956484995491,-34.75005321647063,-45.57645337091652,-68.80690392084978,-88.1268368194178,-80.75554319057683,-70.84970509220518,-64.84903613377675,-49.15683721290873,-38.681880954599485,-36.10091735753379,-23.572207693484817,-10.140762993395839,-0.801459139796016,18.57101187271458,32.631148659653846,24.63924574984974,15.099998356451536,12.65955681610816,3.8895618897339688,-6.468823008967476,-11.270812033604152,-17.472016436420446,-23.709909539275188,-25.507593075938704,-27.33259244476847,-26.770813670311586,-17.084328323356004,-5.402806577886256,-3.1942038950141836,-8.241984593543624,-10.31302046971184,-6.085176931180339,-0.7031933204194836,0.3940032610087485,-3.271526498534538,-8.25473707587469,-12.014162048576452,-11.853839701334465,-1.8977030052447503,10.764465283334069,1.4177365618284803,-29.425787023825947,-43.678138319554236,-28.47405398679249,-15.175443407428524,-16.96707615444031,-14.573015049348754,-4.783085469616275,0.16922948877630262,5.052118356001465,13.430591470118655,9.982735267357164,-10.974561668622513,-38.7851304547678,-61.177532679099585,-69.07453771976328,-78.304725401004,-104.186442724761,-118.53187029980603,-122.21707869668136,-173.5179128881511,-294.8624901349783,-373.2718709147781,-41.622670395238174,869.7603493542149,1467.8075390518086,743.0379618690104,-454.0907813786738,-602.2022356713692,-99.6515369459843,-82.43137381637302,-266.7748032979004,-134.77330375197437,-42.74324682347839,-112.50040464068779,-69.85889037365784,-5.241478728676043,-35.827253999618705,-28.967394044390034,4.583759378811491,-12.658023141961788,-20.127479350601533,-6.379249693709742,-14.314669476269923,-17.61703537108552,-9.187429658130675,-19.50971368877418,-29.639299769029115,-14.410712805264751,7.722902035851385,24.69348472871067,48.05333326546007,78.84196985717102,102.87989527830806,111.57040633824181,108.51126308204314,93.00132661415807,54.593235230908725,-1.495753705007525,-50.429052548579286,-79.19230147922346,-92.14542356898275,-92.78646105888393,-83.98767581280167,-71.6854353413502,-59.140916220195116,-46.584871679168934,-33.60093602105091,-19.683795835032182,-7.828128393416026,-4.766881743354233,-10.116356405261797,-12.68502660458438,-6.128216531707462,7.0929030030170175,22.89146847060826,25.061400671896934,0.027433856339058593,-27.966466366050188,-30.995260472852276,-21.42272122134554,-14.266854948038308,-7.218485288638949,-7.447235539332855,-13.961940122915227,-11.250430904159533,-6.687065519790146,-11.834837424752138,-13.305543051319553,-9.836445060123939,-15.91822478743508,-21.82242709589924,-15.576455142679201,-11.686618123209715,-16.210359764152585,-17.02843191409271,-15.992582173141809,-17.310316447820014,-9.218892430142848,4.273532586999195,1.7529424914497156,-10.14338730104884,-8.446189407355973,-0.9817283017513638,-5.5918681719904555,-11.706726158895613,-6.6820458958644515,-4.537324061146418,-15.903844518606782,-19.983323625965816,0.49627050702243025,21.114829405156435,15.719672119199547,1.7925221767193058,-1.551775276535924,-9.99269486593382,-33.97939968507301,-56.24509211257181,-65.23104660716244,-77.19649157676885,-103.97816030501272,-123.91191577793612,-133.39175105268956,-177.60140569655888,-292.7594182982249,-400.9842173354997,-147.34938932242693,744.4232094336423,1528.0969265005992,1027.0676744520133,-249.95636610610467,-648.9766403635076,-173.27112585623362,-48.88405476307534,-263.7870322994314,-189.03825375721868,-63.15578773433283,-124.80640530227724,-107.17643699993509,-25.275296673342538,-39.68175928651587,-40.73101225765044,1.3675347534235947,-3.094855585951091,-12.063029456640933,5.843898044534086,2.737163574073328,-17.04956410424628,-28.13277579911082,-30.17757725045321,-21.065050756630196,-9.2822693706836,-1.235856513636154,16.297162070538185,42.441014435945064,63.732543602091084,84.34129526890334,108.4907793372845,120.07949154542892,106.85955101071931,72.77284117823456,20.828162894814447,-34.484668885711194,-63.36538524856115,-71.02545735016787,-84.87664038126773,-89.16158016075119,-69.6302793100443,-58.20256424589014,-57.91261312685437,-42.56612416558551,-27.918398009952533,-26.44535024533657,-16.708717207187487,-3.621167671302409,3.0717551408065376,18.553268922397613,25.949300559739257,2.78697656978499,-16.25490084253141,-8.992613751168125,-8.308715016447639,-22.756366148672985,-23.341855888299307,-9.585924574278849,-5.28376326738211,-12.85788246224142,-18.8060024147266,-19.36978348166496,-17.2821360114717,-12.312395440795001,-7.855601511144812,-9.34078805789673,-12.694049333139045,-12.170884432864188,-10.986693054358497,-10.633317287886364,-7.097918018553049,-2.884174736146683,-5.220852667700747,-12.645768249561105,-15.534504285108191,-10.62426139735728,-5.494233582158127,-5.888714148871983,-10.075878870402988,-13.654769135392492,-11.177620709291826,-5.140173604906812,-5.594942057894759,-8.224778045830256,-4.133101695337093,-2.486393356561649,-4.359843554342564,2.632515758144848,9.78875760299116,7.11382336575522,4.689865355417465,1.5104359023362193,-3.471178454902791,3.8346492964133017,11.106933127292779,-5.080244646145854,-34.485806960648446,-59.30086770961891,-70.37030480247464,-70.79753687631778,-86.12341606657344,-111.83082747107913,-123.07309350781895,-154.14236117449184,-255.57837034475335,-386.09730526150804,-255.8583526056858,507.29922111203905,1421.9944715559639,1221.664320333201,-35.0222099009186,-676.9305886309114,-255.78105900075573,-5.919036213343411,-229.39104006707282,-224.60683087482454,-71.3800881768207,-117.94499613096585,-130.1296557369735,-35.96722006679052,-36.581607083482,-58.11744387044436,-14.909325015638675,-0.6776241062643464,-10.436713060236187,-1.1666457237980765,-6.428548685404515,-17.41144367097408,-12.463837485668,-10.925704607500123,-6.083058606161477,8.666688922830204,12.044711764622452,14.523994027423804,37.09633203613497,63.40769331642624,77.69783707152396,84.94831426171143,88.41286346110742,86.31159205488615,69.37138650701323,29.40544742078795,-17.340601270834355,-48.50666282259715,-65.99379679213476,-79.8044797037928,-85.66864341365043,-76.10885199725726,-58.77588693479106,-46.615437216143064,-35.91941304081455,-21.647142312600074,-15.02861635870891,-14.735798249368003,-7.03292509698576,-2.3961865533685724,-9.607417937347261,-8.918747179996977,0.816145621953897,-2.1414576025574092,-10.656197234151566,-5.729561392509449,2.435980019345351,0.5619102160499381,-0.4602225668961779,8.290720694223651,10.047399567981802,-10.314868781116502,-33.16557627868208,-34.31369882087121,-23.941408492182354,-18.298150547972817,-16.098446947840642,-18.33237747989711,-22.553155730723972,-16.088349162751253,-2.1205611879723385,3.687309228656879,-1.9935546148790522,-10.583374181258172,-11.400279661936487,-5.9718143615244905,-6.589015946224556,-11.012980897771559,-12.315241730217227,-15.546047145619978,-15.487637040980802,-8.140414122723474,-9.072528162130915,-13.977784481421034,-5.312294022660748,1.3814927368662246,-7.507355702641174,-12.476204195971238,-4.600649967653268,1.8979844535385517,-2.165622295082464,-10.483041030378866,-5.662715595013826,14.02939611173856,25.688864682015677,22.6745133701706,15.675760305251988,0.37078976308932354,-18.998600095098812,-26.84857082873347,-34.16443520653259,-49.90999447033575,-64.52829348735709,-83.87616517719111,-101.3349328376199,-104.66194651331844,-130.34767346310906,-216.97376282564542,-331.2423167634827,-223.0268409488978,461.70770667380117,1294.5994785321097,1085.1387648849193,-109.01840152726643,-694.2154787097224,-261.69994207486684,-5.700772292399314,-202.91899448645216,-180.5173058182304,-28.360224602240564,-77.10946334285414,-96.81985531854994,-17.154229888570008,-20.317449934335365,-36.51220045554988,2.168513465849589,6.426916312316752,-11.904173078919634,-8.789364326617932,-11.03500404645154,-14.422826040612726,-8.4499345815141,-9.903714270672989,-10.278914526324465,-0.025094059856154205,14.051304372282416,33.334112193410235,48.48743905052944,51.77579307302651,63.51479199933176,86.85357027631841,96.80885467759146,89.30107326109766,69.97921156970261,28.95737997720671,-24.7967526809283,-60.35908690106673,-72.35266467942084,-80.56992889565048,-88.61256886727402,-84.83068449835349,-73.63533139257207,-66.89653576449336,-57.29246197083438,-39.15088962004904,-27.70045107938345,-24.938503445206216,-13.880636672887832,0.6928084884636085,1.179059150784468,-6.077892849661367,-7.082231993567898,-4.8198991620126925,-5.100243869597296,-6.465982494623457,-8.92286776831548,-12.496629170136899,-12.888711707224445,-10.96775169408221,-12.842376936934794,-15.205829941600363,-11.952352527735894,-9.100917482941366,-10.744916031222314,-11.006270517947108,-10.428816263484716,-12.351703147543684,-12.103047685604519,-9.552746311989445,-10.738284743870334,-14.038397267591112,-12.890423227790631,-6.581329917644677,-1.926118628910828,-3.2767068237273023,-4.809260660054697,-4.252125922005446,-7.077653546814087,-8.197070220057324,-1.6285043265312744,1.6296563420993362,-4.946851417165746,-12.84231172705162,-16.98905974443243,-16.024863133972637,-9.714085460998302,-5.379986055459742,-6.980478648052497,-10.14624742858371,-11.833627609685516,-7.943663644232785,3.798542951851873,16.499836190499497,24.369626763615962,25.256569791713893,16.39613685301144,-2.4786378165376277,-32.29909264014317,-60.703536340694775,-67.34626186655566,-72.21152586828771,-96.43228308220043,-112.209487384128,-131.014979810316,-209.77221320039803,-346.97549350914386,-392.4836523185588,40.93991555621352,1015.6217236780158,1496.418552009044,617.5463878406665,-520.7243076074512,-528.0427660010123,-51.10990793142474,-114.88883543505327,-282.0722370030049,-130.84035794372562,-60.57656226885342,-124.22083509847391,-71.00299832851238,-16.04767545338268,-41.42943156082052,-29.9751334449057,-6.070148485882882,-17.212803633414474,-16.54576284187612,-12.833995467648798,-22.505415090576843,-17.17385348722095,-8.092661018372644,-12.114288442605616,-9.474714325902779,1.9462953318064353,12.146282334335426,28.915463462773054,52.781753688093104,74.58197651458578,93.57966011411278,107.29700656268339,108.68280639867683,93.83953302994036,57.77121394926953,5.357530704339086,-39.749848012968805,-64.70765810257082,-80.68973701127288,-92.45444955540076,-91.44087272955099,-79.58106675332989,-67.9308192526766,-58.287053323733446,-45.27936123762203,-29.69481044338697,-17.95563514304589,-11.068118481707778,-4.865500846946745,0.3388563289617501,2.2307574031510704,3.9524695325996717,8.585978316139276,12.608620492771902,11.178862790644935,4.9485699758809645,-2.919274220598645,-10.425794717208074,-10.61884056577506,0.16004658427551277,2.3853997392706496,-19.0022300372152,-37.37269903751583,-28.91206491782728,-14.866951776821455,-14.14484479592656,-16.527143032285686,-16.936596922630642,-17.16834329280071,-11.93642178986471,-3.9790252620498627,-4.145904593846936,-13.150967298740348,-20.00169200166938,-16.54942577376706,-9.017868329032087,-5.6415594562415485,-4.065270847297249,-5.4247023176393725,-12.347867273498618,-13.674275150982009,-4.551571295121242,1.620122041433424,-2.019517215799297,-8.76560605345072,-11.008676721024385,-6.453654015208148,-2.0038411551487805,-4.265137274490257,-7.881550268170983,-5.677572697010753,2.1472458834977957,12.24302533932103,20.380965015969153,21.621141447550748,11.40955252724968,-11.649230186730398,-39.56463917608,-55.74644351983834,-58.63302024288224,-72.1427876467863,-98.79049485708754,-114.27650569207364,-135.8132316757837,-205.8922663933537,-329.1942066349932,-363.23679622632085,91.20589011269249,1060.1873325104605,1471.155079665724,539.3909497195257,-556.9857511914402,-506.24040164239943,-36.09711888187121,-117.34080810464222,-266.6262622194432,-104.3880993806564,-47.08781477267824,-117.2376086776589,-62.8377410114913,-16.916723012862064,-55.141651742067765,-45.16923427472646,-12.24010609258749,-17.619891222075516,-20.705887331912418,-18.490789009914025,-21.845510071258985,-14.233605101083041,-6.110703149618567,-3.257750987093295,5.456394109456827,14.486478635751237,24.66469722867676,41.47455219784769,54.90934297490529,65.94279361762065,81.47776820106151,91.58291638209181,92.6560820055768,87.26475857919618,61.97882057044467,11.807689697264294,-43.63747317762565,-85.35647671302792,-104.63027548941041,-101.29956501230177,-87.12004172753996,-72.90726562350237,-61.75639104526117,-56.36514322116324,-51.275749871873224,-35.73126580096148,-16.59052481265428,-8.883262746951068,-9.104948966205924,-4.593925595259865,5.799943741266077,13.00061018059873,9.623992670192669,0.9123476489674971,-2.614003822830913,-3.9478786203462093,-8.472849459194094,-6.915984187072024,3.0745761024688214,5.8138553567978555,-5.222908376103941,-17.72805773140429,-17.686114183024664,-5.633469441621152,-1.6329780092386166,-16.063877441308307,-25.5645333261797,-15.032489459684895,-4.7878236754889585,-4.898698651232452,-3.134773190932565,-2.366134510494664,-9.006199360290415,-9.59704445589475,0.48455462874484745,5.712724658514329,1.051274431924492,-3.4428445996480495,-1.1411317672710197,6.226943074924705,6.465271670758026,-9.706572984277642,-24.166538011517922,-17.931417236691388,-7.844798014570573,-9.246071479615933,-9.714358866501225,-8.465531890285906,-10.424799794487836,1.191915872452343,21.459207104739257,22.143060615958433,13.5798940112242,14.992153760249966,8.209679972974797,-12.556691501251553,-30.252631790349284,-41.325708641554485,-45.65475737800825,-56.72605064949516,-89.71171386191787,-116.74606591417617,-130.6861597345038,-178.76840401925816,-279.1717128425927,-314.5684772802998,64.14503250838709,927.0160425635615,1332.3005123560117,484.15371855268813,-573.0204109321743,-534.9951709464078,-45.63593809388001,-86.14053265622415,-226.9891664272988,-79.3596252682818,-30.114559763713842,-102.15056439129992,-53.310549685590615,-10.517781031040052,-40.440771824138686,-24.021291234668496,1.4366219575974917,-9.023083808596915,-7.894175530401217,-10.054615346655652,-24.885233371964375,-19.678190516894208,-11.893161995076083,-16.064803397263926,-8.629942551485993,8.633972127467427,24.100085540839935,43.709434785376395,64.56691954810438,80.03407185785015,93.638337106735,105.54114939908563,108.19333030945921,90.94183353017225,49.08005967742297,-2.4321873219510888,-42.606749518195606,-69.04891431806476,-85.93387093785292,-89.24112296353347,-85.11712770320543,-86.77870644329278,-85.30219848278333,-67.67124156365054,-46.82094851786031,-33.607267155647065,-21.390959923000615,-13.21494171549785,-10.898514773573055,-2.2555922276007507,5.20482050337376,-3.6546017992619966,-12.427989283532412,-8.026287540190502,-5.313441748733425,-5.9685084953818155,-0.16777747236880458,2.806640655861589,-2.790811744552368,-5.277028147036695,-2.138664521662516,-0.4421208231673788,0.8201809649674807,1.8631690340044536,-6.995696900478919,-26.289664809699506,-36.72841169931185,-28.422462353439997,-18.49816725510133,-19.102391333949566,-20.798955793763525,-18.133743001831583,-15.077634797519082,-10.847704808074042,-5.921038658128264,-5.012866392773773,-6.825098168364704,-7.449085745888528,-6.962145613925433,-4.675062739641836,-0.4146079377111924,0.40837717294565223,-5.429636796999571,-12.472347737182936,-14.447550951350951,-11.390188026067175,-8.654224486442796,-10.052791561858136,-9.722446368348582,-0.7314096537645298,12.483198080601777,22.875208611734273,24.241247459747836,8.571865467596643,-18.727362236438573,-41.575390785302346,-53.96423378138516,-63.61496821137762,-84.33752534504251,-109.41119621047686,-119.49642662100564,-136.43343304389515,-200.89097237703862,-323.3202587269864,-358.50145869303515,119.83045200730584,1117.871782558739,1493.1861756104202,495.5574285033763,-590.322159746632,-491.78882716107876,-35.56901082623879,-143.10316039217423,-273.2415033960324,-105.60772604553074,-68.90700760339178,-133.47957928303657,-66.12646120624744,-25.073854487410898,-52.06661359289316,-20.754729279675036,4.362444043252614,-18.735572090846574,-19.1386257296179,-12.36441281048435,-22.98107205235525,-19.4221402934709,-10.835014938334835,-14.171740595382452,-12.530376633352065,-1.8545372072372732,13.396594674284108,36.02035985024912,60.55062048585993,79.37207826272115,93.27932635630343,106.96192186362437,115.29220373917283,99.06171938202229,54.009515593845265,0.8289977513568374,-45.833497744890764,-80.38541366869075,-94.24690166840168,-90.28724213532524,-81.17084230613168,-73.38759232489596,-68.40621848379766,-61.189606665974786,-44.98355232768846,-25.56696152571984,-12.036977507988496,-5.890608821189659,-5.649255431311673,-4.416526795667387,4.5339346553170365,15.83568207928134,18.648387711054255,5.626754575480824,-16.816092664307693,-26.266680812130865,-17.67539189569633,-11.494549340936093,-12.386265560863702,-10.652734791936126,-11.400101586978053,-16.134008172479305,-12.646525229283,-1.9863190307632763,2.7768595939516807,-0.30948677171360117,-4.093009720347517,-7.843211771895852,-15.000566132819039,-19.72013443260567,-16.090007173478096,-12.385686503193366,-13.684131590337714,-14.994568549945324,-17.54193467534354,-18.674774088396862,-11.064413609303582,-7.2197366441331035,-16.282053812543285,-19.15172677583439,-9.303448774017841,-4.30089467009639,-6.209865206173173,-6.366311322279294,-6.582441774776985,-8.036129616204175,-10.194033456077584,-11.056220735785875,-1.4943101352131833,12.729825346421858,14.684579637728925,12.004887542996826,14.213218433594442,4.074912900302664,-24.307507104142925,-50.17357930889533,-60.86649541642353,-68.69739506716161,-89.79975727005332,-111.72993319393571,-121.4352663076082,-150.95921127277103,-243.5553915331662,-370.1323052314234,-252.013540510584,487.580445488784,1393.871922542507,