ECG,314.9536796492996,358.2836049435691,367.3470975409317,331.8572760253827,304.42402770205035,311.6585569286898,318.92005132030613,338.31161590136367,368.644697311227,334.3922980995974,280.3868816256014,320.90671456521625,370.30949437845334,335.08951929860723,325.8775773349279,366.6378503962651,352.34597759817746,329.951623083003,368.6904603062221,403.12319600667377,415.667022155385,417.70279203833525,357.02199605636986,271.3154248675305,248.5673766697812,258.7755683939348,260.93919648046915,271.12432502964805,267.46255510808965,239.74578504060025,237.57754303712466,268.97243364006135,289.7300825016175,290.7908332994292,290.0838078117475,281.3093715264888,267.24521235079703,278.23963878014996,298.73444609563626,291.7189616005486,286.91717867073623,293.1224750645679,276.80996058298217,288.9792025678079,333.1001383053723,296.7315457663404,240.77949643945192,290.589120040922,307.6838118946207,214.50278114655555,191.74535052821125,242.88779678109023,227.75190155325583,213.99248748079083,251.52263141937624,245.66034751251584,222.37008264860822,236.3316180177785,225.85073225089286,203.206372710604,222.03530010722517,230.14597182168916,221.3282846287001,255.60591647148942,284.1875921219231,248.91119059864866,214.906965166943,219.3582292010513,207.7722324809787,173.82403164813616,157.7633235357772,153.54657040901077,151.0529614564387,156.714677394737,149.46783541578066,133.1918328174266,122.09142095637912,76.49843940065887,28.770101199161786,58.6746775918848,173.55133009109574,521.1845554144782,1069.0718617590799,1048.1467860149974,159.57412912646885,-429.70561668044047,-84.54405736302027,194.26874770956982,-31.253477737317553,-62.73187698571655,121.40034050173887,106.07018864944507,102.8725239772084,200.14866017460932,137.0693277522465,50.40914849343699,117.46876563232394,160.32935666526808,146.2319421283583,174.15875132764882,159.03414514594016,88.76663005850963,83.9174115865224,122.34689884535362,127.77014016510302,124.59911917269878,131.19567947587478,129.85724007634224,127.63382088300145,131.33942650321595,134.34077841021863,147.3919936670414,185.4163931213592,221.64364454013145,211.89402002113098,177.5006631232634,166.940089135959,155.19091337375187,110.94580713550738,70.78679471450033,55.05839893890746,46.3656742972305,45.150546495794714,49.34871163335487,53.97848327332946,67.99799386493672,79.85192640119888,81.40499435863242,90.67813266680696,98.76798257880372,93.74674127493327,99.1269084861683,110.38867089883115,102.01326385818354,91.9080674534695,97.57242937665418,102.25883004913817,100.76927836592594,102.63130076914064,106.00750060103789,98.55080749143531,73.43654446027071,52.356720688998394,60.88773875323312,79.30611686215374,77.29678632076158,65.85553472664242,64.84723624517673,68.70661696681361,70.2801235985747,79.07290721616988,94.17602117937511,91.31140368668414,72.16282313886087,69.32399798089945,78.46876766007011,82.22047103748733,94.20422935619847,90.63106174261401,46.75051552771441,31.36669566914935,71.35205154869448,87.95155192971436,76.51459716963922,74.70480420220494,37.76597024664319,-17.795985059908958,-11.205492797405967,17.51498972651177,8.97326875789554,-2.251101452737288,-8.357355630602662,-31.312269728997208,-68.4232310153231,-104.08330789910389,-93.60061249313674,-28.87905962937731,163.48505178372676,657.519813546363,1058.7716414211059,576.1249041764054,-379.49661206285293,-563.9833454308738,-112.95135930262508,-21.71020406614099,-173.77303612490476,-73.50982475651543,22.84995968160806,-39.42186922528519,-19.81559395290573,44.580124808791744,30.769151583992937,30.401624266582445,58.748681014720134,53.661901693554256,43.364832673336,45.3824145115223,37.62735279743939,25.741282351379823,22.082101068840615,28.14018819689454,35.53098272278089,33.25993937331971,29.108089348989466,29.554300830600425,29.236343735364656,36.34607393436531,55.082392840418464,72.11906261187266,88.12753220963454,110.21654857995904,126.90404447929126,127.10336370296908,109.90564424316423,76.46911358289312,36.99152432095897,1.3794305905549393,-30.108354970587275,-46.853819214788146,-38.611400692953524,-23.139259646743,-14.09099079879693,0.32796754390951577,14.50707202590629,11.406923422259894,9.005123512891359,25.568934301589714,45.62961030740262,59.16252596375706,54.89289865512285,13.16215050793755,-26.93105651579237,-14.843441931355272,8.803348445702873,9.444407184753757,24.667416459649047,40.6024298560076,20.431790728987863,12.042666047609622,37.23633753018609,52.057615376430455,62.700604092858924,70.07519774699895,33.8691342617557,-4.668919625662255,3.957740353237586,5.185025320716164,-17.814332183998406,-16.498230375626186,-12.588475202679977,-31.446818983981693,-34.12962761383996,-18.72409174248346,-4.177508099273194,26.038529100830182,47.609860845919314,23.10221608687832,-2.440380512189895,10.288398403176707,24.299210662877584,22.205105024088017,18.63112548997915,0.8321047638364405,-25.7281664874652,-39.11737811768498,-59.337612119671974,-89.78512836132975,-109.12472151960266,-131.08289482581804,-145.9707854769432,-116.1931301747162,54.50213884223038,532.432473950779,1001.487372400324,666.563618380795,-283.9699232069536,-621.667313109767,-206.52057952640064,-23.73025004056462,-165.12605537337663,-100.83569553547636,7.063530382283737,-58.13520344832344,-58.7480549502291,11.905656546630166,-1.8902853667133854,-8.165930531319404,32.35750830143331,27.172601449709916,2.1238569874337614,5.024530993476212,8.50317867595429,8.169335098732041,12.895335629534774,12.246168957448994,8.376087620208665,7.987304046303763,11.666342165567968,24.83876324939915,48.57026219237331,62.81293972684804,40.74883386650495,3.914613639203406,12.513642864723451,63.15384553181478,98.72758766533309,112.06722509429441,107.28856801481632,56.14051433730309,-8.780288465841544,-31.41891007880087,-50.58585457545843,-93.08226299798226,-97.69089271574083,-66.01855111465483,-58.83783495025713,-53.26947128976546,-15.472440718678653,17.133981916305725,26.70743416488492,18.951274784433377,-17.8111620785876,-50.47670669715777,-34.91700037318603,-4.0139196187258985,4.161851079766921,4.50596218033011,4.437226188853021,1.5407579187942724,9.111040594918872,24.86760685773495,33.20425080300006,27.429164800587166,2.8214972753100382,-26.16083188568659,-26.466269459895518,-0.6836706655571767,15.413014327196464,13.218858631885459,9.011577535390156,5.027117892475105,1.6585427475035814,9.118381727808892,16.33457155751467,1.2250907295512174,-22.65529358598857,-29.570734305845576,-20.310310617080546,3.957246497883305,36.100403504398116,40.49922839268095,16.230145160159836,7.45313755164714,14.813241555020713,11.380611476661539,1.1847377453154513,-18.803567176642943,-49.45894794217455,-68.66206204798503,-90.13395389207145,-119.51286354611196,-121.45985582164333,-119.74682731635546,-137.3248340394149,-129.97500571568068,-40.28687564487058,312.2775881781397,890.7734149936696,934.1525083335554,78.2920827687059,-590.372348947505,-316.3102477693393,31.750322361696437,-127.16918016118782,-206.05903918713,-44.493206040464344,-41.36769571567355,-102.52130224463636,-37.90796066926832,-24.410010979593217,-89.04320026119261,-81.12039724052424,-35.16092084671921,-23.41498020446913,-11.269938203781976,1.0721292854644346,-17.356371357417615,-36.896936469955165,-25.810724645032614,-7.9657083726533155,-2.647613771265341,3.2698426991478637,5.4919313841245145,-3.550497214297657,4.188370690287144,37.03768622840799,58.258834986738336,56.90661044689675,58.128119257659094,69.55158802877591,80.30471042928966,79.06901649646106,56.147607403919196,17.758626336736935,-20.749646682615648,-55.380372909602585,-78.19499538225519,-75.38083435675877,-56.148200721772014,-40.43624632566015,-30.527000351634847,-24.56490132323327,-23.804685113603682,-19.18356531710327,-5.5923586844506765,5.106697588101434,6.682737110591368,6.09362709733093,3.957604998253644,-0.13003876676904147,4.229842235005689,15.446126490441884,16.886030191227857,11.093891845240819,10.740257739161152,10.485117496885088,11.007826321864714,19.804112494297254,16.428611298395943,-9.394887992123552,-23.60385182067433,-13.288188786970895,-4.971689959612641,-1.6187425000202458,7.615263521475544,13.650097503125785,21.518175178156724,41.473014315997574,48.346565767430945,30.181897459230868,15.270755715443329,6.817453579587055,-11.12236457563126,-21.694823354330765,-17.321255870670765,-17.763040270360165,-19.20307096649777,-11.437912985191094,-0.3439762288521422,15.015339549791708,15.763071329126374,-26.378932845227283,-79.9112184526774,-97.02490225675011,-94.18219042320806,-105.87409661151136,-117.27166395608782,-113.91187802649024,-133.02010386271877,-168.3029162444982,-161.35347485755898,-98.35546502799883,173.7929872587312,773.4639672135125,1059.5530003591002,356.66574685881756,-524.5319275428317,-480.0860065982798,-54.73571968309527,-94.08238448145651,-218.09758073279883,-93.46514642011172,-52.80397022471021,-100.24642178305153,-35.5961405658626,12.727130024709496,-14.683645772904633,-13.724646044337048,-5.049481083277609,-11.652409899983493,2.913308775958983,14.587353218037615,4.339814722250386,-7.6249199383703115,-16.88733355509129,-16.905468392312848,-5.894020971804769,-0.2729798797533949,0.15072117074095326,1.5218026856142703,3.3092113924727347,17.451326880346464,40.000546664898444,45.89227003472697,45.52516213029431,65.2196185376406,84.82987669713435,76.51021364293203,52.73255029369481,25.36870086817077,-9.394956061242429,-38.027556981991594,-48.10964714320887,-49.957118079231066,-46.54651896785061,-30.779918321993577,-11.62473517995844,-6.652682919014154,-23.83089669889676,-49.86902961155056,-53.47223188551703,-31.090236080698894,-17.020561883942356,-16.53455191338736,-2.7640827134312245,15.285721310124703,15.204429930698247,14.640758458208136,24.89299927082941,28.748998636733926,35.3406778598152,54.028142514757405,46.12675286091641,2.5407452789535725,-24.740745652434892,-24.544634436520077,-24.491430268055844,-11.76890506679763,8.41038218526974,-13.587048180601148,-57.01848187058707,-53.48038418361527,-18.03835216463141,-2.052055122545937,-2.771217738752334,-11.372289057974378,-30.51782253601767,-37.01658523560381,-21.04113757055217,-5.554891710993452,4.707465279544071,14.611844351553062,9.871978733403651,-3.8847335071571294,-2.291647768836418,5.156909879020716,0.8994473402471446,-1.2495613287690048,3.556476676450039,2.8458055241640103,2.649464245200843,5.801603718516116,1.8948867143463453,-3.4586856152032937,-8.67812036375581,-23.597519155358075,-43.83062011379846,-68.04318553343396,-89.36855806457292,-91.48463574787428,-99.14934694469784,-125.19251472632527,-135.0996509366239,-140.68420734267988,-150.58863194369962,-117.89770685537441,19.628753964681607,420.9036553898477,961.2268657590255,875.9790072910309,-15.17147755946695,-567.769811970733,-248.3601868068762,3.462961040626883,-196.32955020358685,-233.81123473404548,-75.85685737201506,-81.11756806566697,-105.67959482283933,-30.360869275594602,-12.631327751463239,-29.21009015862107,-0.9647960866272829,13.54390180382186,8.40770035656221,17.033046593561632,23.11842172728082,23.16482138203203,18.593606686050638,0.689145795820405,-16.725440831809063,-17.862086524230175,-1.4057878222711757,13.074771344986647,-6.653347935527982,-37.26618353099015,-23.593493821327765,16.779893117141903,44.69400663094496,75.98759104008003,99.58265614681014,73.48598760907028,27.990363254074147,8.96544968368341,-7.7074684348618945,-35.169923678187985,-47.599692781099115,-56.21551771172449,-76.4822156986543,-78.78616486190202,-55.46911787989885,-35.57610622703934,-22.300692783289726,-10.065161204828588,-12.474296658774204,-19.690063637587244,-8.24849135880643,8.892121035929065,16.072513977188336,24.212604240929725,25.13558266163021,2.142564087415927,-18.60880960404977,-10.66285006491467,6.68020116593431,13.136208777447493,9.968042136849597,0.1608581263812865,-2.5355263682417686,12.40985802601397,24.1227101628322,16.081913838109095,0.8420407613815954,-10.063252203944083,-10.881012818423137,0.46447631423632263,12.596934576226753,23.876957129614297,34.05225097736174,15.96991457309625,-23.983528920632054,-29.136895849056412,-1.0640728253564458,3.6845013316715,-14.030717984393451,-23.857528915607283,-35.8726054104968,-50.12186691832191,-44.527883927052706,-33.74072716978803,-35.47881543257713,-24.395477969797987,5.067756203796561,17.703839988792446,9.963376496708388,4.508248977248691,-0.9626837866800599,-6.984780414296591,-8.141397974820038,-18.317654843045762,-30.746610643243876,-28.601127371197737,-30.93929849550026,-41.8695756714294,-49.73237558220576,-75.4455039756511,-120.0632632840913,-156.76845465730202,-170.09444058198616,-147.78829310547926,-62.758806969444706,241.55170027719274,804.6307602563517,985.1779830396893,246.98720547901127,-555.398574615254,-445.7327506057427,-31.52682335646288,-90.9511630207134,-216.456638176184,-98.67051801496143,-60.05873899787689,-98.00951795058802,-30.671751990795187,12.117562116780412,-21.007816534380233,-21.779238753111137,-7.803492004288454,-12.837047055411432,-4.767656462701222,8.578596045637116,6.082256324454569,-8.23104875476167,-22.21914250956022,-21.94601285202654,-15.345555591660993,-12.645378003199925,-4.61922663658981,-0.9355131275542035,-6.984143518307852,6.764458317941715,39.259312713925894,62.7082633092366,86.66422813957946,108.32325390152334,92.5759219462168,56.1144459684691,37.76156807445747,20.18468770970561,-12.502051332998414,-40.366535165840205,-60.48027743235131,-72.72334297760185,-62.435958909386905,-40.4105291063442,-24.494422112819713,-13.942203878488307,-18.574787564406115,-36.775846744954066,-34.45886961211022,-9.041844619582886,4.51480621465102,4.74754623313164,11.435277197656559,12.978615755960941,-3.5307355351641405,-17.539054946813785,-13.76640598503547,-6.240314047732656,-3.783481817047801,-0.9901045225928957,0.13637521659320218,1.340389308810325,10.350655834143994,19.42758302062574,24.28109084226006,30.037463262370547,23.63571095501679,5.95445270176573,1.6537342275430973,-0.8437632375192958,-12.036455999253608,-0.411134219022653,11.87917364114395,-23.572194670445224,-53.44328639627327,-26.94736377805926,1.3514394484472447,5.332926823983076,5.019321339005629,-29.513540441089745,-89.43355182895709,-101.04949452966619,-72.7159247912517,-58.590369788411905,-38.84812358529375,0.3905765504041909,19.01864282661075,14.161566802625241,10.029064047823748,1.5232630607452862,-6.776503184305767,-2.843391788131413,-8.332393618429304,-32.60938069127958,-49.41817513492428,-49.56294272796008,-46.81420167342249,-49.453174710612785,-57.891344327647744,-81.89319240297647,-134.5763392862781,-169.79315401945883,-134.18508664834792,-37.18391819613235,249.27915906972007,777.5753401359644,923.2991976371736,196.4574495975475,-541.4124240911945,-404.5789657933834,-29.79929287262229,-109.73082780001259,-210.19241196697305,-75.17847851953707,-39.27539176773131,-81.64741849785406,-23.658974347537313,7.049982510043133,-24.866647167528516,-12.475465496501027,9.967860376017677,6.133864706865046,13.471197744818818,15.910979582543543,-2.977775486206406,-14.581106602453692,-14.173845545403145,-14.16958697438568,-14.307124977548085,-14.397957206106465,-13.908460745583362,-12.182548462262522,-7.28645074608432,13.244225913815171,47.41970643690392,70.92092125905319,85.07013935953876,108.14689192434665,122.75190708339238,113.10506666186362,97.09503217013061,70.68410629664348,21.51457945894766,-25.688209946420166,-64.9002510358538,-105.83414915907845,-112.50393520723316,-79.57941817802009,-64.20058657304168,-66.49013563548166,-49.41181264570525,-34.62752118828613,-33.68122224288072,-18.774866641521307,1.8947287485068713,16.21991917601274,33.96628642762341,32.52483568313115,4.480695711909949,-5.756659056875968,6.7218845228091215,7.411676813767087,3.15719763793658,6.800102062924086,-5.551727419142786,-39.64285283083068,-63.46666041527059,-58.15441351203407,-37.46339294686432,-20.75366965668014,-16.3126790323984,-20.50430876587097,-17.77239373910016,-4.672122466200001,-2.851993893838582,-15.56088308312583,-21.003202380454262,-22.22111079661451,-30.609072539788677,-32.810074339926075,-26.883869492654753,-24.127781865104176,-19.83733071391704,-16.00206527883183,-14.902201674435918,5.190599071406837,38.429620066455165,43.14897606044891,20.362045502320548,2.7299443813859856,-12.874185139693367,-31.578614638764925,-34.080354716800144,-31.269464350276017,-41.67980967623289,-49.12156902328675,-64.22110905163686,-99.91248504998619,-110.62726591372612,-99.98269923215035,-110.19564246452008,-103.09224254985077,-29.137460804575213,235.34054400379983,765.2856862431447,990.6737850211658,310.5988959904236,-518.9384727888488,-463.7418237123404,-56.62520595399809,-112.38917883689436,-228.55684287038844,-72.31770355995656,-18.329842014297128,-76.36806792114582,-20.127816235808233,-2.010588236104816,-69.5263000960608,-51.64888531640432,-2.9304893149116804,-16.03763942335238,-16.63540449939482,1.5910173460237473,-8.929729289524271,-13.251174156349503,0.8329989658261319,0.4826937365253876,-1.6687167584727365,12.148767308389694,18.370464031475528,0.5172775714368258,-24.152379710057232,-25.80080377368495,6.591037549517804,47.5384235900543,70.19420691291339,85.74456726814188,105.97083234849643,104.00363181942993,64.28374995891949,19.20569970467701,-8.620767791778249,-34.725958220260196,-62.50323328142125,-77.64972904686681,-82.51765511056674,-78.86151011985407,-59.02193150306641,-37.79242623571196,-33.70911276796686,-31.437085547317327,-14.6205060462191,4.6861419366354,18.97899873912529,32.21437371969873,31.763819649996407,11.451489428963423,-3.8689949100594685,-2.7034787361524586,-4.116281180915003,-13.510317552071792,-21.34854947474733,-27.134295609993515,-26.67371100095253,-15.734495997197493,-3.422880090836909,4.760702017789157,6.783125929206953,0.2855001761616851,-3.3109172252836476,-2.087662700318244,-11.599259993050113,-21.803149523399842,-16.435261365630378,-15.052791253772575,-26.267761965550392,-25.20554964906367,-9.059678954776624,-0.09936025086972577,-4.336409351455334,-15.90452861427366,-29.661481640596904,-32.011631682762044,-13.197840912717986,14.512981179207289,37.28711292146153,50.80190799494682,39.99291240027236,7.790829427396525,-4.326646231409343,8.960432620570563,11.670987177130119,7.5312829529820515,3.3920670821847727,-27.30553011026776,-71.51966917551138,-96.51946876350755,-115.14173350863176,-140.09467111463948,-149.89337407497388,-140.26948791520297,-128.71384866870525,19.036259677007422,512.2428366322326,968.8071869857398,594.2149370081004,-321.27176417177174,-584.467445562119,-176.37074707859585,-45.996489172062205,-197.9435875176065,-127.86078604310015,-17.378501749285803,-62.352431877184685,-55.865064938865345,-3.320692788737965,-18.8609772488563,-16.20065142268716,19.265037769493897,17.471302254121362,6.1521805692888165,3.7447191725132,-7.697009291080933,-9.537341925676557,-0.2905763796884959,2.4319019585439454,0.5860788534296919,-9.89936570873602,-24.154283483260677,-18.818592621066145,1.7239010286071714,20.079214707634446,40.12716415210801,57.984233535665034,60.123783315730876,56.96166881039282,66.51300198176381,83.45747258030518,83.6229681620143,47.49713080575648,-9.481757154141443,-47.241271928008175,-56.99348661749889,-58.465965998463446,-52.96080281235592,-41.10237425610251,-39.16186975299838,-38.21235974785105,-20.776613349413452,-7.521146591318917,-12.410462206517549,-11.090756445072184,-0.1321273716233886,0.8844902849898082,5.432117652474454,28.414323438797847,47.19340570547108,53.947119880180786,60.364612702223475,47.37258999089266,12.765478682814425,-1.2118517022370732,-4.873473451444475,-43.09002865201464,-75.0055916638701,-52.68560929618095,-29.5272884129212,-40.04463529692604,-39.42987815556441,-17.782758385909716,-1.0024897463610216,4.8759476800805,-15.993993741751865,-54.277362299287,-57.550462904134356,-33.60085094944189,-30.29523296335693,-35.481465861996114,-33.21361782752559,-37.74859581780846,-31.995362639589246,-4.561481200324614,18.084858442719543,26.353386170010573,22.02993415792632,4.455424085889909,-10.683626088749985,-21.550903501434625,-36.72841174977937,-45.29277420994356,-45.235598735442565,-47.01499006478751,-61.973055355960724,-93.82771649315215,-110.44226545094469,-107.01672314625661,-116.50757168252633,-112.09856365463551,-60.431841364095206,141.15290552780715,639.7121420469653,987.259909216836,457.27398114759893,-428.4604609673653,-516.7753205933635,-95.54907941715962,-74.85455017415306,-214.16768687014982,-91.90595892759549,-15.194633392405393,-75.8470489402595,-45.876608332858424,0.4784598863436962,-17.04223717004875,-3.5425995063443416,15.98416391443013,1.5345726389940797,0.23414843018871956,0.4288063314745383,-12.018182348791758,-6.061846047742725,5.7575233626841005,6.554313478674332,8.628913650821936,0.981740814573028,-15.527504908095791,-3.4600536938638804,35.32777911808401,52.32948377842733,35.670553886671115,21.211398264037697,28.024258161358564,48.358814522814285,79.06043157215032,106.99064652807064,102.84109883407652,58.97933281767769,-6.515920284242629,-64.09108149028377,-80.84008355622915,-64.9321597805565,-54.73812718680193,-45.43725130769474,-30.855002262799154,-48.86783353453244,-79.532251931439,-59.088321629605026,-17.83866016349196,-9.977624470000102,-7.644121450374083,2.5588150976920048,-1.897231971678675,-1.9760131862569636,6.551916431606045,-5.288513129879455,-19.389931832839338,-15.037112012760163,-14.480982970830357,-14.606523554944953,-1.7669699869014934,5.906359981730765,12.273979358673142,31.284093258918766,35.2760447014981,12.343463731320488,-5.839994681216465,-8.695014794001942,-13.54249340477832,-26.008826484593634,-40.18885399197786,-49.515977559326494,-47.44237782725668,-27.399138124287642,7.877251963473061,30.62309652573761,18.500539833606176,-5.561911719839909,-18.30855813063891,-30.741936006147395,-42.10983725695868,-43.39212621419687,-46.098507260290965,-52.501493811975834,-67.07218187389512,-99.16477906411905,-117.37220734013894,-110.402255827075,-107.77950882318653,-99.61021301846806,-54.815245227298476,168.45368060128177,702.1766451400977,1028.2056882195916,446.8441980582977,-451.406829141863,-548.43162168378,-153.30609834654086,-111.9813665017925,-194.8480422941783,-56.41733655931871,8.123421896993293,-50.53184374560598,-34.380856514079944,-36.28876501413466,-81.11656907725963,-41.91537598775425,10.14484431305795,-1.1999281258254229,-9.506324587591898,-10.181042708524725,-16.00401334215276,6.87050358642891,25.455159583793908,14.08037509109877,16.275347339811535,11.318676169538666,-38.69834094565964,-63.71613945672431,-23.71145374010374,11.877581007814975,24.67195361777965,54.968432845403484,82.60634128419215,89.55092184452386,106.90165596965502,122.00864886492954,96.06207003914466,37.79407931181151,-28.79854452073836,-78.92003524157695,-88.84016490428142,-82.57209279460155,-86.05739109395203,-71.32759561911087,-38.6023897182874,-30.715580337695968,-36.39275849285541,-26.092001881259407,-20.169454017693816,-17.829141389802533,5.8146115634149,17.469740239750443,-6.70327341597142,-15.981759652953407,3.410108576399788,5.50284732895881,-2.398146962101494,9.80073132128228,15.7763587454088,3.0917460660954097,2.676386685657222,13.595984151829636,20.016193677220336,33.20321977812546,44.68197820198527,35.617901471645254,28.456112124495284,37.386225190785986,34.09805489436323,3.952359696002926,-41.404144716419765,-83.55382657458362,-90.21124542813484,-49.3670449860202,1.1744196923347534,25.64287834498175,27.143218593049156,19.00616394602013,8.407800860952925,3.318151056651125,-0.07726370507227998,-14.445718987131489,-30.62266381108193,-49.3036991799008,-102.38194740887151,-158.0878208030377,-153.26812981535113,-131.43461077059052,-130.47382309062746,-102.51071889898319,3.597311132851388,339.2861068926696,834.0140664898554,778.4063724380009,-60.81974417430834,-617.8876291852778,-319.05705277538965,-29.260413514533433,-159.08829297831443,-158.79055339244465,-8.24766328506125,-44.29534686417426,-95.33046916229992,-34.69164372691839,-29.546270026557963,-45.61419184318231,-2.883927351480205,7.968168141745757,-13.946792622023104,-5.392408334542527,-0.08965171911198055,-10.90942595246034,-7.264831024521754,-6.798421456126022,-18.60028414135042,-15.596531750918942,-5.722200325369563,-9.474200092764502,-9.145601350012214,5.205008994663338,18.81268181138467,37.73825862655441,67.90325252913257,87.10993402958321,92.4801322302922,99.52366375000501,92.86739815097363,59.28667018234634,21.94396441113848,-5.845702278848613,-30.712066848147714,-45.31020051074271,-43.41289723038053,-36.06403696247523,-34.0300701946419,-47.10706850292672,-74.38550713485043,-86.42191710825439,-66.01853744869133,-38.9366763484078,-23.054353158811594,-7.574119931352225,2.3534986298451415,-5.657696461350703,-13.311879798446899,-4.5645777622067945,7.0856294022874815,15.570454225057045,23.545184030198016,17.875905724709018,4.392647910981976,10.045179803855774,25.87568301516268,33.26071375396846,42.672718375856,35.42987543216118,-14.21867749528221,-52.585569417042805,-34.320159698502586,-9.936564045037263,-10.675433517239934,-7.069947779375191,-2.7746129284331875,0.30522587683846725,37.28435237756047,75.98035796062427,53.49208834986294,6.547585395256458,-21.06230491028651,-60.61408222285723,-95.42260940308566,-82.31547647794571,-66.68300560684364,-77.47165134882327,-83.78164890215976,-97.13937678492184,-112.82918036461967,-104.8548462194199,-115.7443845857055,-143.28671337767508,-112.34119742041506,84.48264422905726,585.4882530481918,1041.6664284837595,662.2189732966688,-295.5632559046521,-587.2205421991828,-170.8409047211146,-53.14382290032532,-228.9362025733212,-152.20270496195573,-37.47635707183734,-91.27641790504866,-66.64190020746169,12.440503289401285,-3.609868461164922,-6.207004239120748,23.542095735913446,-0.47701954394552004,-13.98738028425074,10.38664251103323,-7.894911047469055,-50.11919985735391,-52.16370207853151,-38.183585507608,-36.04941740100154,-28.03672241748602,-16.620718607797162,-17.35825909537256,-16.814891212180434,-1.254403347370069,20.548423829236558,43.86184871129058,69.73960710983351,86.57624398866868,87.06649533374859,78.897368405979,60.9477975294663,28.712452625881113,-2.8629722508796696,-25.38478705775049,-50.43538385615556,-69.55948476222645,-62.29895545846867,-40.050867194554044,-21.782960545839163,-7.70022462087212,-2.746064688030856,-7.957990012834388,-10.710177793139252,-12.685499027326046,-12.963575356900009,2.737858414658941,13.194862963035728,-5.9397326916528055,-17.470295338339874,3.252846853563438,21.14479068647063,28.10431510476667,36.03301807886393,12.40023005161791,-39.53293818942523,-51.562477993079824,-19.536608231015755,-1.941058659321227,-2.7100543898441956,-1.2659087466334746,-8.409496303440445,-12.843090797610778,5.361633729800442,19.947647125213017,14.541118277908094,5.609988594720512,-16.82597310228097,-51.92498038878578,-47.4222143883697,4.1362122191362465,37.95307796163329,30.347705596020393,18.911425582539714,16.19255490451232,4.334151074180545,-14.287072192579014,-27.62527073903626,-34.45979678281075,-35.87923367958913,-57.33956460674476,-118.67149742520118,-159.158272033128,-145.74546456402058,-151.01982466117477,-169.58695791866975,-129.44176799760908,18.57677824908012,449.8170723268537,1012.8005751819433,877.1734140142007,-70.05742733426172,-598.0922141578501,-252.06754057291863,-19.256368125151376,-206.01191316653313,-208.28663854597403,-60.178835556659806,-81.47185828689112,-93.60764474432739,-22.86854765273203,-27.529949431577066,-41.777571646774014,0.6046788457566059,13.513849432473158,8.105376324738689,20.346257300876516,1.607136491430424,-37.66648483215506,-43.8940496349557,-29.715555442161175,-20.737554666955525,-15.117216212873867,-17.343866854384846,-21.224410228106716,-6.11197429162114,22.001613005921033,50.74767919440367,80.1554783369857,83.57985216397786,53.0464963043176,47.132753211190405,79.23901669620882,86.00433127494759,55.128345063942994,10.832916996676834,-57.5230352894307,-119.17719580576028,-116.90280378776276,-80.95297542954461,-64.38232936063635,-56.08304547343971,-47.10788606505583,-47.07086816111098,-37.430493745750404,-10.16716357946574,7.850172089052968,9.655692958840275,14.692212347974476,19.391594751022758,8.044979199075899,-1.3562769900115317,9.814562672831464,18.03555735124398,12.559862358973287,14.579180782822357,11.54106746172844,-14.503288719549307,-29.62988616987776,-17.600480507524637,-10.065869247422246,-14.663817397734622,-16.200287300698758,-13.548357950367263,-6.073809376793497,1.3790271828508356,-0.17638789894425955,-0.45669856048249535,4.6136734084787765,2.529245921805149,-1.7952298214638596,-2.0330528010244846,-8.332261755225938,-16.02176528295724,-14.572715728885484,-11.091448215606988,-3.2324774199516173,19.729353411237348,42.669433326222276,44.357139776844036,32.79257330327132,22.49120327988672,4.313208281900203,-22.59615504197083,-30.146516894475326,-21.622559750604918,-33.9341985195637,-61.10456558843953,-86.56618002111033,-117.42081842696464,-128.01713124045557,-119.80150009975766,-132.16540954889516,-128.0762780598055,-68.73366701523553,139.27109633328325,658.4089858113447,1054.9522700029715,547.9740204624915,-385.84290332609254,-528.9777254996419,-109.14142002566086,-78.18557906652107,-226.1417528740426,-103.82312075732887,-13.241496852979267,-63.36853600477624,-44.903818398923505,-43.52723791490274,-92.84449071237499,-53.45113273321421,1.934770951028522,-6.4605602611713415,-2.753755677092485,0.8898963943287512,-23.77872193785214,-13.878283880649159,20.297241506474883,28.100020996163597,30.685925219551688,24.06114659193419,-26.70888937353725,-79.98220401417596,-78.09300660734776,-42.89000535322772,-15.448491973200898,4.491046024174052,23.736666003716778,42.53747019643462,67.9032461104783,86.09101591352479,69.95333787021245,29.560709504081657,-10.565069923922984,-47.507454012916924,-67.3056812264906,-58.41015780229159,-48.88658515471772,-51.09346145007579,-42.84778801503504,-28.16538794400192,-19.414805014708513,-6.555412831553991,4.603182355826775,6.581534841003103,8.195898812253958,-4.282233054940864,-29.00586423813506,-25.147001280898934,-4.8168621982866355,-10.513332773530188,-15.587823390508003,1.766638917619595,2.296173726037349,-13.517052626606738,-9.660176727640984,0.25079677910237663,-1.213179462672377,2.582667436531903,7.611031410691648,0.26239975375515723,-4.519233033672352,-0.7400995703096287,-1.7698736115393352,-2.787022992776152,2.3260433372965466,-0.7147261845566728,-10.414882545238997,-8.687054376977814,-2.686109853366384,-5.6265739543888955,-5.699004328050774,1.499503656571784,7.8875267039371115,26.08558737839806,61.072314116474985,84.39673175708789,77.02642588398692,39.4143600962732,-22.792373097717082,-69.67938176932093,-61.9409223612115,-35.81611943592891,-32.698859256730884,-27.44756752873188,-29.95969826130009,-81.67542728705922,-125.73891262597762,-122.35105772694122,-143.23799219172224,-171.3987582156867,-136.3253876623619,-19.98307536768806,348.33312966896347,879.8064916652099,791.8409364716981,-98.0030639431875,-642.883938266324,-326.2136406242668,-48.05705902530198,-169.48496460573938,-157.45903431474648,-17.10587356761755,-42.390545973794715,-67.14922229314743,-5.303891362451019,-3.9138470634158296,-12.708315301031575,27.70210790257525,28.387723037415732,-7.792439786254008,-24.94600272989768,-35.95651765411438,-37.74505089915182,-21.479443402603493,-17.952009743327277,-28.04992736539036,-25.782685959196343,-19.624535182613787,-19.8434317775298,-11.32656615260199,4.773529690712536,19.00689015515936,42.269878608771165,69.71836268780325,82.42819752207326,91.09465877130995,100.25953126454922,85.103702720093,47.48494781701702,10.517458142109232,-23.907721048744744,-52.02136754321713,-63.76418121590075,-66.99534005890084,-64.04313188923838,-45.68813580445967,-24.903855672053915,-21.83779886568962,-23.564404914822838,-6.6903839309635,13.198697923898463,7.328967119585537,-9.502470615032525,-13.11210835300042,-12.594334937879783,-7.631528318243056,11.977911490905166,32.29572497425309,49.11561510904255,53.87429606838207,16.483790843286506,-23.46029778319392,-8.037030792636687,5.405668059499439,-21.749735098014135,-25.003071500915986,-18.415889142512437,-57.34840210352674,-77.22403004082017,-40.32273387684961,-16.089246065655942,-14.356158961234613,-3.428963734655621,-5.562600725270194,-14.689504456249947,1.6889018426517826,15.90479801071726,1.1818699583433592,-17.09326364180971,-20.116080354072214,-5.217827308712692,28.709684329528947,52.05913558567974,32.28728110739475,-5.083346526649326,-19.443316888809832,-19.350364259033306,-18.68047878938083,-13.081576989706008,-21.596532380492047,-48.786618034509836,-71.49319615371346,-103.69630227190922,-139.6327677267551,-137.34188386370312,-130.5860522002418,-146.53730488960016,-129.0120632337347,0.18306485313928533,397.6442610582842,923.1247895425503,816.6866764389687,-78.88238574045738,-624.1326243728274,-299.95460517331674,-19.64391462768316,-157.43440466014783,-157.82620296735314,-21.129643950973502,-53.17056790589228,-71.00702982377179,8.334168249293818,7.2289846223232885,-15.401999127951402,18.51848600360381,9.38115047366776,-29.335065381423526,-20.993073017334382,-8.826976613024424,-23.911962384690632,-28.984312673932955,-17.944398560283375,-9.55955919020819,-1.5344789224102025,11.117584448738233,17.315144509922888,17.072266979141354,33.05739866727559,61.38519990997633,71.63221584326286,68.05406964214191,63.938176290324236,47.880319992813,36.526309733943904,47.371213766142844,45.14178090679846,17.62397839486772,-16.383191868498407,-72.84505509121547,-128.7707490426587,-119.13886581168462,-72.60449531168675,-51.100765547088336,-36.32832473060226,-19.602632592215823,-21.865860835013578,-19.303273552694776,-6.783929167381224,-12.568461245448155,-16.13988332578932,-4.245463570738615,-11.47210878315294,-26.87233034156249,-14.528524947742483,3.935234977659631,5.4461674236183075,4.5167790831248436,1.6736342889082305,-7.719196870437516,-6.471070795798726,7.5367309059554435,14.938816058054027,13.323290314181325,11.92945370437128,8.378125532274687,5.5404715045155495,14.617729289313875,22.520190351186834,8.932391251776364,-9.92934084159324,-13.507008881703067,-11.042891677230852,-6.079310081650364,4.9613444928155035,8.013397218966439,0.873278259743147,-1.8135654377837076,2.5603997063253647,14.545120570921881,28.407593569703636,27.073944993877554,16.928847105290107,6.364198369462068,-18.961064296736847,-43.866829382121466,-43.1125290774487,-38.812668733745106,-48.10895666190018,-55.08076047206509,-55.83723224563653,-61.58239427684593,-79.79383618044932,-94.09730553552616,-90.22758009028044,-104.93555054434701,-145.84753945153642,-154.71283322706927,-33.77339366646757,391.852289191091,938.783162683904,816.7713509155778,-80.21365543977863,-590.7652392001844,-256.5669694012267,-5.9084569613261255,-159.23020397988049,-150.4054701045217,1.7190742672598134,-10.628222629664407,-38.255723129946944,-13.835162339860915,-51.19699836124195,-66.16510679895777,-19.274940576867905,0.2215808072509553,-0.5759600547496788,-13.823408973467224,-51.634311921540736,-52.71636885798613,-18.75803993360943,-10.332728285705244,-11.204704029402034,-12.234212633546996,-37.67660851769352,-49.104574915215686,-21.047413660349534,5.55307173172481,20.864076798553064,39.09506091453933,47.52391482548509,54.7590739262602,80.47995956627618,102.30486640642872,95.82358599462714,64.18508709165971,14.722159237990908,-32.261452865065905,-51.36127412401818,-48.37200218351171,-43.17602567446278,-39.38973039761455,-34.28341655412661,-29.558166854549352,-29.599056170531085,-34.08732134727485,-32.18503758120938,-19.680620142197128,-9.840084806277236,-10.317689679866923,-10.626994660474587,-2.471204179676132,6.522720755543341,8.9720678328434,11.279406590411101,16.956933853090298,19.91712911730812,22.805319436130063,31.514736288586256,40.86359831626794,40.87402867250663,17.725721210829583,-25.875799902197837,-50.00694572012884,-36.65595858221932,-23.528500313747365,-25.105481377863438,-13.878336919808037,5.515576946617391,8.323293292991288,6.931946847560953,19.24577889189863,29.13548476445285,22.967087636764063,16.90089530840696,13.869132161214875,-12.363578078588684,-52.628158249432104,-58.58870092103922,-24.443942561387978,17.429611586411458,44.190782690896235,27.316109196357022,-25.645831665235676,-45.465562866774555,-23.154785101105578,-12.444816871262532,-8.767482404228112,-17.375208534196855,-77.18084414238385,-127.30102803222341,-115.54066339455119,-105.88946466474361,-108.55340904335864,-105.03008401898444,-139.5667112618673,-171.42080372383,-107.62854362359334,161.77972743159788,708.4244502837903,1018.3020034392919,415.3230960142653,-472.35969007571936,-507.1211564807726,-69.39196968896495,-60.120669534099974,-189.98243263954203,-66.67975488687492,-19.17181751306957,-100.52997364380172,-62.93268795520994,-2.5645058955689137,-17.523008530642443,-8.461649059647305,6.622146732580623,-13.739417440186118,-11.685178771946639,10.01013355192238,10.05397181541646,2.06354217664102,-1.423525687062833,-7.543837736619522,-10.720723398922582,-5.56954582398651,0.04018176852914568,4.083914960581826,15.690796978131303,23.752102262275248,11.229436713660258,8.790872155096725,43.21086645141373,74.02555631624955,76.98430497733817,80.72021209423748,76.53831151007792,37.47373570695129,-7.081158245139186,-30.405396163433824,-46.724629005825264,-55.35344958455812,-51.7389675626118,-53.31939324447151,-56.76159600898073,-46.3556740717512,-32.819652666620655,-22.71819543214582,-8.676988198255653,-0.7935218989768167,-5.217162019567123,-6.724957466246203,-1.3466948853128606,3.6638097915623935,10.216073017418651,16.28943069399439,14.731754886784566,10.859062159104875,13.893384194500271,22.321073893860486,28.360487172556276,23.00543060718826,2.5271647111406255,-18.51147793609322,-19.623549790085725,-4.425895443043279,12.701218371640795,30.336752576881214,32.337543730385455,0.6109188805560457,-24.90381403152931,-4.4574312435297445,23.628259757202326,26.159551353697285,15.349594322554161,-25.785728264112066,-91.27973796030741,-106.4891143806752,-61.17000891541703,-19.24749866106935,8.193284458141484,22.457449219158796,-4.5676882005882575,-39.043740811768174,-32.57414813015876,-19.032816025128362,-25.340297143680033,-31.317976497238178,-45.63497971638219,-67.30140067367638,-68.35042739495196,-69.54236241687836,-83.11145487120828,-82.55897850747526,-94.62400795934583,-131.78929928593243,-134.77078413850873,-8.891941376632673,405.09672973148145,918.9132616312427,771.5708924360674,-120.52903439236091,-620.0340984999693,-278.6790919941894,-1.4425575820956986,-128.29593169362767,-134.52303690687344,-29.290615252160165,-81.22452998890917,-101.07587024772623,-14.987121202892997,-2.8218332429860027,-22.762230518042664,6.260824931950346,9.331803523600236,-13.0739916237459,-8.616809185516384,-3.9390560850590646,-10.952562641010967,-6.183858952964031,-2.199299211265007,-13.207280386661814,-20.042364786424795,-14.749712483365027,-10.81561407729657,-2.4880523512875587,20.51060798010731,37.231106426913215,39.4788945882931,55.86758290786389,89.4554853550969,117.63392649029207,139.99314021064043,138.2152417178084,74.76746528494674,-13.437860865288936,-52.25882404607425,-49.21452643688531,-48.947136875203796,-57.59394750809014,-81.80932837825145,-117.75919148343802,-120.53304655330362,-84.22087313749083,-53.28589253843447,-33.495818162101244,-14.900610267225254,-15.35599640411138,-22.780161653429516,-8.664533904300425,8.254208519147259,10.092056461835394,13.454831490402755,16.895945503874543,10.422022879733209,13.054662056763215,32.76411726579648,44.23401756048183,35.060645367539486,18.89648994817839,-0.19805114330700313,-26.966344246968383,-43.567737318687996,-29.693481195503608,-3.9728286098051786,3.5177942482870783,-3.4229282462660873,-2.8113921229483427,14.868704187560422,36.01750946434501,29.659595152989148,-11.903187615509012,-54.023613347041135,-69.13655011471091,-61.11711158392363,-34.02903869556021,4.16589692800266,23.223907390696837,8.270463768837832,-16.27035143096152,-28.202710295167936,-28.823088619076543,-26.568646089190313,-35.983696432186356,-56.20849505384547,-65.19778737967614,-74.75882077683593,-97.66122531209443,-100.53220132688728,-100.86911674539431,-128.94935145224463,-125.138159765579,-58.99941659647759,166.27624530803615,685.8537033456929,997.1114932620869,403.30745828091364,-465.57528792769074,-491.21807067907673,-66.07843194283099,-56.96740434948828,-168.82712367259245,-43.10766994362221,1.12658544309366,-66.29770397887614,-36.18088722728305,-25.745070425115514,-71.61425473163617,-42.26705935834212,2.513478053429875,3.2882805311752286,12.3775076499855,-5.6025091277431684,-60.471209337218426,-68.00130909581708,-38.828126977340496,-30.782809994708884,-22.64694487123838,-7.405572108720353,-12.862574596262089,-17.24713508949653,4.9494546634263665,33.56603125466862,57.937565053538854,84.5487092026386,99.70269422803126,91.81010617048076,75.05027111012967,64.46416196084633,56.10723279294235,32.331316997394396,-14.270273142966957,-56.93914470955805,-66.2112360318389,-59.57350874050327,-66.34062320902456,-73.48446459989536,-63.91366690238638,-52.16120966773168,-43.89384466879618,-27.76862481845795,-9.034195759654738,2.604973872372515,8.033377412959055,4.15883014231885,-5.748528554439507,-5.173377539467587,7.637791279481039,17.010307584577248,16.642633561784187,12.182593416471196,7.37651603441504,5.860707785421873,13.777351110004467,23.134249714484724,14.865973665832541,-4.836063745625516,-12.4844792811929,-9.56669225965239,-6.1096039736694046,1.9245112845081116,10.359190530224732,15.246232060452767,22.818597145883327,27.796480548989518,32.78479724361933,42.917432265028836,28.599472513000826,-6.22008238936448,-11.040974166917435,-11.651149385920018,-46.725868786103476,-48.48391830665442,-2.4709869878249364,4.734760964715758,-13.23231458246823,-6.930800062468968,-31.317539034303536,-86.46928329458189,-98.6809593540053,-85.63540944135349,-86.70668617130742,-90.60841820752714,-100.52689576902901,-113.00886245155883,-125.03401733902763,-140.48511399340828,-124.1375195152511,-35.830372808904826,266.9971191691099,832.8269668410272,1015.2571796047778,250.0251156863646,-578.7578569864421,-459.83770074524114,-37.52162516096445,-102.96097281752675,-211.80100651123146,-73.70649990526742,-51.718562036930734,-115.88418979345732,-50.5125378849139,-1.796599544710574,-34.22150326087076,-28.782915461326468,-3.7258097302718216,-2.168965687138602,8.300092862845414,18.844190655702032,6.28130238915959,-14.377193193398824,-24.010192248584673,-18.28379087088399,-9.052792123177802,-5.91655463149856,-6.427774798789636,-11.622942408270596,-12.890885981458924,5.7190643788058075,35.12682035060577,58.95579620562154,76.583685577826,86.03266688265812,87.29048257008634,85.79375697082324,73.1835038605512,41.087501439090396,1.1342574433028192,-31.279365203222724,-48.370945831616574,-51.2081410993384,-52.67040470270784,-59.28682793509089,-59.87107963834531,-48.68778207692701,-36.34886090949947,-28.23837601359386,-16.224930610325686,-0.6741657481781553,4.670335590184248,1.1980076767532664,3.3643977699330883,6.563645067366481,3.0068970908643693,3.7401898486421574,8.29300772050782,6.858478038468746,10.267708991703223,20.949404800608054,24.582981969479718,28.518501965952538,40.16497258646847,50.34593512418108,65.13926219798152,72.74254428015567,37.88841439023646,-11.989180024358106,-27.101922996311377,-31.992087136142906,-41.549455551605774,-18.21271322466861,6.561451063056772,-32.07388901198055,-87.40526752572886,-83.06643588974,-47.42773757167421,-25.88952170274127,0.13499913056652346,22.953428687750502,0.6992615201960177,-37.77386589393056,-40.72039202312955,-28.79826568478586,-29.062670753415222,-37.8465856473564,-60.6195338903196,-84.02460023589401,-94.80367206282236,-107.235998880729,-107.21994105714376,-102.99414010809369,-131.887139691625,-148.17684787513937,-86.80790303456071,169.32622980034168,711.6459329540426,1006.3221365201151,384.80585075787,-487.1064653216484,-497.4219726969585,-66.92492992526374,-67.1795837502938,-187.71423682140681,-61.70885906503422,-14.452190165715479,-87.16414426721059,-55.58414785224881,-12.229119623233878,-25.474772869719775,-8.064422237550687,3.1962654167920057,-18.36956836866767,-12.893375372090116,3.0377739012294906,-3.3656903916419694,-9.031192006999184,-11.983535761063887,-23.177372764474317,-27.77972419863389,-17.191108766370895,-3.3101390273640168,4.677710156142236,11.079056796249654,18.64661637396444,28.841667427126033,55.27699728272077,93.07188973158776,115.43513913086926,128.82370187351165,139.5552119313181,105.63179558597908,26.99798052290091,-36.5524774236004,-78.83027285231648,-116.1021856837618,-113.42749826405546,-75.92893349367989,-59.71372041780315,-59.02469363880631,-44.73340145772003,-31.76809910345608,-15.483675521948193,12.638674713159133,7.9911291010506,-33.83740559676479,-48.010518226803015,-28.461843157532975,-22.00813354258284,-20.458218608094366,-2.8032043765055406,5.643137041140864,-1.5802801710401706,0.48051929216616607,9.908207597763475,17.78313706100608,29.101307993245463,24.974249001044964,-5.8420031334164335,-23.961249564592677,-11.081457304012194,1.0843558379568456,7.993513947213422,19.54023958833481,9.648232036075868,-18.635701249358405,-24.409990988034252,-16.595906054615252,-19.6050096688208,-16.36302243794332,-10.64827419268656,-15.217197029435734,2.0295546396213684,37.937620111378436,44.11556682585737,27.403976490028512,10.269796611446024,-17.710317732159496,-39.61119652637704,-46.65979309004737,-65.28275461704504,-83.88877675651078,-95.35996690847833,-120.49062660590633,-132.9077902494103,-126.68167568886895,-130.89852543939617,-117.48530171969583,-36.38224527195882,253.86500132741534,786.7877154752277,939.7446128860804,204.87219330888286,-562.3705282027461,-434.3127718868079,-32.16214978394299,-78.20562482228304,-154.9203062642159,-18.642697420337356,-21.761569547177487,-114.82885956018679,-65.93021819204694,-13.488900257156892,-38.55504467403921,-25.278964768387166,9.510503759982107,0.9146441346422804,-6.371955107940046,12.236870589156448,8.88051095502135,-23.159662512640576,-32.644267762524684,-19.001989339193717,-19.132398303673625,-10.4822810910818,13.176418622101878,-3.688687257841826,-36.84854417826517,-14.860659735301436,29.51281776742041,52.93817772292124,83.72157304690754,106.91498450112874,84.63618091796424,53.49246768845509,38.7801283367969,9.23050670891563,-28.33883773111561,-44.637182980988314,-54.227743549401296,-66.57918268291212,-65.25762666148276,-53.11757358208344,-37.41171000426244,-21.147372988906977,-25.70001193389746,-45.2079576185005,-39.94164885618185,-18.80686627020667,-14.489113773273505,-8.125107819731607,8.594055901039173,2.7438726098341846,-14.006382701778204,-7.145388782628712,4.557833284488272,4.210348809179619,9.253618767211035,12.213612276349664,0.9378553654603294,-3.9635006663479566,1.4421209567990199,3.1185130578874847,8.606272355950706,13.999772646926395,2.4082965544608412,-5.457642396989708,9.964443789402067,21.125429998546,15.046383831474653,18.05982129861687,28.76641123051611,22.30250702506962,19.00626350622916,45.675379993673346,55.30346920184223,1.7686189076848393,-61.73187946547705,-73.44833807210449,-56.10025820177289,-46.321130492057556,-44.62435503337672,-42.55994985387403,-39.892479227061145,-56.98764472817306,-90.71589360302568,-102.80685611275479,-112.80982482123886,-139.3846758605224,-127.19825074641123,-36.560135784018996,263.38205464854076,794.9771394659597,904.3989116620335,120.82534790592415,-617.8837603361096,-431.0141544716704,-41.45869836138583,-122.23864459740828,-181.9296135717971,-26.600746049372177,-18.733730067810754,-61.27894871542482,13.867170157606996,13.177061320011717,-56.31697845678329,-34.80582972544055,3.1078957939515313,-11.976308632867234,-21.76396186299783,-25.49145221513558,-39.388574435747906,-40.89295436587744,-35.350700369754925,-31.82826117953637,-18.766997935959754,-5.7358714979980405,-8.97836655230519,-14.794477348042077,-4.90907849695249,15.737565071852398,41.26454232470948,72.2589813066565,92.24286388911034,90.4396656885383,87.47657771063706,88.20968531097496,66.72614376692371,23.822108208047176,-15.582443258725466,-48.06517866788969,-72.21664666843247,-73.40112699032409,-57.850053863598404,-41.28788684692129,-20.634161114343797,-3.965919864590827,-5.301668499261554,-0.041192985409184146,23.693525123497626,18.981784189807982,-25.223051040320698,-50.06906514435494,-39.63510092135758,-32.9000861042161,-31.478367432862846,-16.57225080801215,-0.20330492334920258,7.229050575380989,9.229474433984603,5.265850497297708,6.004866859967124,19.9868493854974,32.14833380467938,37.24685983915005,36.05063339421861,9.663571911957835,-25.55369625417481,-21.423950771030782,6.074078953901183,14.272488959472566,14.362014053923163,3.4439593474145056,-37.796770434387945,-57.57754868834297,-18.22045468205554,25.736083697785016,40.30286217833546,36.12676361538992,3.4282214307014733,-34.52347150861737,-31.1108618489665,-17.972744392780044,-43.777659883211065,-75.73482063397859,-77.46655895887972,-78.96462894378112,-94.97900499915951,-93.73066650469349,-93.4626995391684,-124.62422053458961,-135.188700241559,-100.04445610637845,57.82787675113917,540.1788535323385,1007.1525575818472,631.8044277497178,-316.3751212987617,-595.8123292357401,-183.8179309227864,-58.060346327084616,-207.4264830394354,-126.04970991380117,-21.047376621086556,-73.2271506219507,-58.48030082887825,-3.9584201408701496,-23.99449897448639,-13.415209245377081,29.003786751567926,26.618387121690283,23.741512426004544,29.913803796513307,19.437534879962524,21.712045133763525,11.83007995116782,-41.272203123204285,-72.87541563886735,-60.54172297526138,-56.37042477128935,-53.317682000542845,-23.91640714387105,6.731168210116768,25.28702993204223,39.68728545998971,46.269463767615505,60.08623969586204,91.69175350698536,107.83297806218218,89.28659575660755,51.65925810836051,1.3679564006067224,-43.465391622590786,-51.155887884959554,-36.16979556509061,-26.878860039122415,-14.94451034733708,-13.312737745629487,-46.11509137954727,-66.65209259191968,-35.040906917646325,0.3747098805017881,11.548201101301636,20.53897173911987,7.448392119868309,-30.80019565736033,-36.34094058900648,-17.08259683293898,-27.711881373074625,-40.500205265781034,-24.08984324417962,-17.34679365014763,-23.360759079203394,-10.188008217190346,3.1689899689920082,0.9183349079563019,3.9630706438522445,6.465513539527084,-2.4220780500678654,-3.1952575240217937,3.483519438773526,2.304022824999529,3.578109596607931,7.55864634308808,0.7581545136922561,-3.5561001956132703,1.645266795507255,-2.6788006857773228,-12.290341003132186,-9.390284992593935,-1.7969705128655258,7.427689136836747,31.19994129918144,54.89850179096166,48.609382276858014,24.90700118428611,19.436108921752574,23.12830406376099,7.858397556440083,-15.996571545781496,-40.68485246737466,-75.75616936755648,-101.61319641819881,-108.97123127770382,-115.94534952014808,-123.00989999770219,-139.37994161845444,-159.55043662043687,-144.92881079960915,-48.062537300927104,308.19576629592336,888.5319414564214,938.780249871856,85.81073513248997,-597.7150932400082,-351.4552072221376,-22.797429251562786,-168.24638319810754,-218.9936606025395,-56.55819901486505,-54.45341647061875,-89.24157174449488,-17.346179788431538,-11.105135853594064,-40.732764295264836,-0.8923433627169182,23.117826586050498,14.414775366701523,25.82379629828465,25.21588189488369,8.098395084569542,4.479135512454404,-2.441619285378062,-8.788862138544774,6.059881571656777,5.186381074165661,-35.29909972389598,-58.677394377851996,-26.223189529067334,16.788762410533735,38.36633224914938,59.435231925920334,68.03321135777702,46.21096445892834,40.01543971955621,60.12781649205655,46.42812486170111,-0.26557414161746173,-34.615759021140306,-65.10174662252481,-90.40478594562975,-81.33754823618614,-61.14707886758519,-54.47785645623381,-40.375495394966,-23.814131304063988,-20.276992275242797,-9.526699887739586,8.217925783015968,13.709839507358872,20.607103898848578,36.80334652667658,40.240665932189856,23.093195206008183,3.491759139011288,1.4618891695322107,7.679236519728372,-10.393054252825909,-41.889053947394544,-43.315928497198335,-25.531469239505956,-22.98373919890238,-21.612996016000626,-6.323288538308242,3.5676040773823203,0.18709229048963572,-5.713727601343997,-8.443307573249148,-5.1209470608041325,3.675103977958525,11.456527073696186,11.876306572218137,3.4021372998103656,-2.5796564106399953,5.611861919417695,17.61076814195207,23.325748566807768,25.570915996036078,9.679157296046753,-29.533530736606775,-50.51379519652944,-32.72866110587898,-6.718798537994444,20.032069678036596,49.27773640685365,42.22781352173615,0.8080888020513886,-11.404489643060058,10.491687484426839,17.90348994438721,5.100089452717236,-18.28229409160135,-48.345674788692286,-61.542191782440824,-68.80321583900442,-88.72935333447288,-91.82223928653485,-112.62102353278999,-186.4261206970755,-202.2493454708171,-103.90053389121567,151.0534249669878,693.2731836863225,1060.5286326166497,478.1515644445778,-485.36415422037936,-576.0102372058667,-108.09611963122777,-77.23041966585387,-231.6483563555048,-114.03347422486021,-44.49396479763243,-104.82477437978002,-49.63834069029075,12.797096288060203,-10.98666353752943,6.224887071851931,32.705288266306546,6.596504995001041,4.109272415432086,27.104750489672497,16.74649024830361,-15.9993739149437,-45.690356721156824,-57.73907844676015,-45.929482165667,-35.782080127452964,-35.00098869959463,-21.189516153740726,-1.7494934902066088,5.8900090414230615,16.233866753860923,37.508972320197714,55.81600802092406,72.49513998341891,93.88067199178673,100.0964166049014,73.62692343715764,28.952725727729884,-12.052489505785633,-39.18556772166413,-47.929599911167706,-45.6378960994871,-46.90582749331166,-49.53510372276557,-42.735437984579704,-29.929383913474823,-15.331969084877912,1.9558580679294675,6.462732235712394,-12.111873865342108,-26.391971198222464,-15.508476734182022,-0.12259267901179349,5.701754679618675,9.331194986589027,4.4355352058817274,-8.366306175429303,-7.382802557827837,5.3055818937716595,12.171178579913017,17.118772301624322,18.40622084873931,8.297939185944426,6.827489826349168,22.407669294107414,34.11587002121194,43.90879514386863,48.79121993807589,15.375075873532428,-28.470686474721333,-19.028669457277758,10.794487574416886,6.702152299174387,-0.813688566968839,-5.03522354654719,-39.249694164644644,-61.740191260342826,-33.1002545479293,-0.6202699716894493,9.677450081085297,12.273388329507217,-2.5762136201870014,-22.48883537361519,-19.366828122088968,-12.957800194245142,-14.662584047503664,-6.060022763342133,-3.9236256542535273,-22.195355451209835,-32.63984081168443,-29.29518868165747,-29.978499707589325,-31.34431012173583,-31.608069069976025,-40.007514934121076,-53.606030422504276,-61.80355033574454,-65.37152067474192,-80.95253913075112,-101.87558823906174,-104.65157947445769,-118.59360356009667,-149.9806319664436,-135.44683836834486,-47.798140108001874,240.18296250305255,799.7418201181312,1009.272423120293,289.4343406718146,-526.0371056183933,-433.45312760463673,-23.4282403284862,-81.53139057811252,-208.68945499018946,-97.77583397877947,-68.30232447129208,-113.6554454558188,-50.38554935289116,-2.33023599607435,-17.031616781459427,-4.322975966103584,1.3097753542577628,-15.009739819844121,-4.461536300377029,9.804181169591216,6.946300097677671,3.5541420818882,-9.943274360973753,-26.616407156564065,-21.42422071873421,-8.593987845540266,-2.822755345233741,5.50452989099959,9.869402545629818,9.722325106355177,29.485724861642968,65.93733831629464,97.2841543105097,124.70943722377108,131.45570992801345,90.90025133071765,37.948292001435235,16.557417603779218,8.134300855147131,-11.861354705548496,-46.08706790951452,-96.87524255615341,-132.34780076859647,-113.15856412221635,-69.09718558107534,-45.433677177739305,-29.219104009685672,-7.3096574513229555,-5.860409808109097,-27.320703553814866,-33.06612365540622,-12.112804994975523,2.5625860847348747,-2.2029629128697756,-6.289049355380609,-1.2951203314025097,9.138748548695908,21.19224382427563,18.802779612598158,-1.0167132053313281,-16.444741762209006,-21.414835533444702,-20.562387338313314,-8.772357863607489,3.1794794430662616,4.793157838623889,10.807046251870354,21.321506931351287,24.708230815139075,30.645066947368203,34.24687399058374,14.700401869054033,-15.9659851793661,-36.990242468261584,-47.172442098659666,-43.750376035958325,-34.39840766751842,-33.973370251735,-29.326522184027535,-13.028516783324683,-8.700206048505862,-18.593793306607225,-23.859748578059346,-26.847209007773717,-29.206461429027662,-22.173546677076175,-13.924599413701415,-6.470769298063239,14.580041449252853,32.6586732849467,19.92718362137166,-0.23762384742691367,0.9143722407983041,-2.1692493366895107,-26.264144882567876,-44.05243425675185,-47.47101802263366,-49.007000111562405,-50.260100130811146,-62.6400932032063,-87.46498888933775,-104.37962080876532,-110.85215734086884,-108.86937140335407,-85.87231154455097,63.2377262216248,506.3841592527285,941.0475858957764,635.1267982679971,-239.36223537540047,-551.8457884432017,-151.21430016961068,32.191327774165636,-140.2142428235419,-141.50861543230567,-53.180608769869195,-97.85713610515374,-84.26701761525896,-0.8106718139084137,-26.77575458098719,-82.64232806020254,-60.53982628294881,-29.659707677805116,-21.61293613292178,-8.150742254760747,-3.8797374000452756,-17.59702911896038,-24.917420424164536,-14.522052782080873,-2.1196080882962622,-0.9688101848749024,-1.7449074167849927,1.5341611101116113,3.0440730857982303,12.934563771259102,33.57116267891078,40.427171877965634,36.56273669802864,50.01077651329127,73.43638206945563,85.24129834607729,79.66574129250864,47.687076750636926,1.6918784011220906,-24.198430407224585,-35.73642928501599,-52.75479000074198,-58.24444580448514,-46.33689443832452,-34.72934426789848,-23.988750499301652,-19.285288253298795,-29.72421016394884,-33.65842213910417,-21.134162375373545,-13.797044084310262,-9.711769210146286,4.930286426717706,15.011735510521504,12.158066009966653,13.473838063646326,23.78239706911308,31.338343915529755,31.615067123838873,25.22195641542324,10.034208297823906,-10.086390476071722,-26.119424607008032,-37.11988302483256,-41.87056302506804,-33.5859406575798,-23.794841224788968,-28.18348304135492,-30.70004000928622,-17.383851604933568,-0.9951426847521052,15.780854455578638,28.829344171057468,22.044113264876266,13.803792289622361,17.89320015597904,3.298154739140193,-14.786183790679342,1.432399802062303,-4.273379508973228,-63.88161312564655,-87.50909059274278,-48.85319422374603,-21.713742947932126,-4.857280743696489,27.1790395286584,24.537455415527653,-13.107954759795476,-20.486263077076316,-3.874826549111944,-1.9680162469956244,-4.711630792441497,-16.685442895661176,-51.49309448976183,-73.25345363319451,-77.20999374109522,-103.29843528050827,-123.73660998870827,-115.80355085214251,-132.20802787395883,-151.4734810702366,-109.92544796286981,47.04501023592286,475.51505848867026,954.8045031468708,709.6558406032993,-204.39268139713508,-597.1785455272486,-209.3172986259738,-5.091377338346451,-160.86277265041969,-129.88697130462054,-16.703743505621077,-66.06970470167703,-67.80678644936339,3.6325408751152715,-4.429887765088139,-12.443442809147367,18.21326223109893,9.3287008271418,0.04316269280648388,17.25118510094175,10.585113629491472,-0.3983709492895602,10.5114702550451,11.026791600648282,-4.387578816540072,-21.179998914821468,-36.95897177907616,-34.859723707041596,-12.478704863256247,3.9421481647936254,11.325373601485254,27.352107093466326,53.293100685353494,82.28307453014227,110.73357116750687,128.83713924519796,119.42853553103045,79.44129801061882,36.525512185677556,7.092584141483144,-34.34602255746441,-88.86363092224258,-113.4018801868166,-103.3233357162066,-88.09059169696165,-67.13375835736309,-36.031180323236775,-8.573414291429945,8.89174777910082,13.54848117382446,14.429875206146773,30.23635675173292,47.81098256536675,53.01165035339047,56.73477173770001,34.553149600867876,-28.9114987295549,-68.5582797633772,-52.28433459595672,-29.08811300989844,-14.7341917014068,-8.910151892196538,-41.368394823928874,-79.45992034773668,-63.31589547840704,-26.910168391590485,-17.10641513886801,-13.900846442999665,-12.081870141719477,-24.59756428004841,-27.71319278609105,-11.435046497959522,-0.1684399458407242,1.427139061845299,1.2465231270685777,-4.757161452408003,-10.761801804575185,-6.0586141867433945,1.7009328791568556,1.4581855369420396,-6.303258636163779,-18.825102694491846,-29.919574505510578,-25.95965365457177,-4.872112298944758,18.470539687191177,36.01846898009109,44.40754442845845,32.3686228976244,4.429991136833783,-18.452472750288166,-30.097784785704647,-36.184729389026316,-43.31008838140775,-54.84000889272981,-65.9170617397557,-79.98328830714735,-94.05198833858164,-93.90764230671672,-98.69308129604077,-111.96513664513675,-95.53718491031564,5.910694066782071,360.08890752740353,895.9852460731342,882.260825768626,25.191286114428124,-616.2496371214586,-360.1013643333419,-35.353830954727854,-154.3632202026738,-188.52466460689237,-36.927122953738426,-36.7785014688698,-74.412619409508,-19.97368625369777,-11.566968629151045,-22.64832889148792,15.753649226785875,31.757229709691263,24.451899440532156,22.302792725389665,-0.02905612746970032,-13.390498313441004,6.06464922113582,22.51893132999377,21.861404698730826,-3.959097019778513,-48.42867191525877,-54.34586358970691,-17.10872361527045,11.744672507020969,33.97964190388603,49.10482242170879,26.677955146451865,9.26668160415219,46.45631447111944,89.96634460473418,94.24602305980841,72.64469084829047,30.110495469287468,-23.970442925659377,-58.939306577961304,-70.9257229454382,-72.03556407309482,-63.73884620072981,-56.45896786504436,-54.68740051727008,-40.08146606187083,-12.099121850429036,6.612876946776055,16.059155372357065,26.0459614390682,19.815449812308614,-4.443466896558814,-13.24739666012463,-7.145241188306123,-17.092003524212757,-29.828176128010686,-24.35952729971855,-21.186243888741657,-22.60778951221492,-10.44295654412019,-0.876358138521141,-4.684067251884127,-3.0018029977879728,3.1967052821150297,4.902088000789287,11.021948103851843,19.869587694210946,21.211092232362184,8.902969976389663,-22.403337590243257,-48.47744486901381,-38.77193862091631,-20.719840980646858,-23.956542330286794,-20.163473245240617,-2.9371542381317184,-8.73445375894233,-29.78668972177374,-31.6334312059139,-19.456500415330023,-2.4052232346023166,26.2703256808349,43.495111552578436,22.532310387935585,-9.782656534926655,-19.129764807127266,-16.346702089957624,-16.06828783609992,-18.40032402127761,-31.720975736903505,-51.357939140326096,-66.70177962809487,-79.73360226491741,-74.20914426114466,-60.770489476676545,-90.02851483968593,-142.38941948427512,-134.0831781743397,86.38839601261776,622.3084596476549,986.7397566627619,475.1832206445525,-414.7930737007137,-539.4518509889227,-108.04503670858463,-34.88548527942224,-162.33461202589058,-52.02176349920281,14.440677578895375,-89.73894671435211,-94.01733687190354,-23.340103162785905,-14.80334034657377,-2.109169063235999,13.131319217965544,-24.3050330423506,-48.592881990703226,-25.32955217216569,-8.05759989447288,-9.602325533125441,-10.87930478496946,-16.254864826147312,-26.265030767181518,-25.793508868458122,-11.280548639448565,2.6966356990222775,7.89497487831339,13.923776864402262,27.129669351540656,45.29418022742902,70.47544934666534,97.33206035681636,113.61873667746733,115.81603399399154,89.80418991459607,26.835856962196786,-29.486987990487872,-44.679092529205384,-51.86756028227403,-66.18064972994529,-58.55573914680021,-38.34497648635739,-30.953181325996372,-25.66597711325388,-19.499143683310027,-21.845204421115763,-24.7135993807632,-27.996541177991276,-33.86625154677561,-27.612470980961255,-13.308369738125375,-5.656999067626085,6.894214617297966,26.66555045264775,30.612833808735626,17.51348818666084,5.389068669417341,-5.020663203789063,-16.308928463093636,-17.777950995875873,-10.429282712732933,-10.377513300582802,-15.134839834596956,-10.390984819097397,-0.6474990253163693,11.751700992254946,27.12719236965809,12.595094496374465,-36.908782970627044,-55.03495276084444,-23.35370501951089,0.09332635967877678,3.5643575423127487,-0.6313153069665276,-36.56742826930592,-73.98064672509658,-49.511623912877795,4.315497024437718,21.483007798338846,4.165293609894519,-25.110501623176077,-50.833544096525664,-52.04485144074265,-37.902515850294606,-36.09443679832568,-42.57234110191645,-52.41704335564472,-83.88055163524159,-111.25469262323577,-95.05758494362016,-85.48576334200249,-111.2579177092304,-105.07990586378286,-39.51412558640072,199.46097347287014,713.8575262918041,949.9378541917245,304.1487222929993,-499.7654056941486,-464.81205876345723,-81.89501610290142,-107.9165278821304,-192.24869268835033,-56.40481069726086,-24.47264493617071,-79.7159520496656,-24.744070697203032,12.334432509819589,-7.701306431418406,17.771962069120242,25.504795019938676,-13.86251527652521,-20.697914177370276,-14.124397857928717,-26.01222176062803,-18.96622127286659,-6.651321345498174,-17.263642938642526,-21.567974705167334,-13.642280542081007,-14.840305259002827,-11.03421872374452,5.590261684978728,16.26740995712686,28.036657596773082,55.045703612695945,79.80755634039714,90.06354372280755,95.62961630284747,95.32299582619288,78.30239979956846,45.69999847416429,6.308554766896485,-28.735298580720457,-47.26482993060934,-49.5772100837772,-41.363898286041106,-16.903465201537475,6.39351676820506,-13.91826745871997,-53.70103052425779,-44.23295766960038,-8.391569103594705,-2.5837056161130008,-0.07400300074094446,3.4784947489220315,-34.581599957701954,-63.95127155846373,-32.94858416379995,-12.140304852530406,-29.03289070787917,-23.71194251705579,-12.484558102524062,-29.6309663092128,-26.578390633760677,6.636311641508994,21.54966401483696,22.407898651526423,27.49205643049794,21.852139886927105,13.441950181004348,16.60601044313191,17.29421915731558,12.953663108000296,3.052976878142381,-31.25352578292997,-70.71424182125347,-71.50588308544488,-44.792935653893736,-20.25010391757278,7.603793734676163,25.48275983947758,10.262749953579867,-6.211878268753672,-5.2096696244819185,-23.157652145762874,-53.54383752616715,-61.31636480735248,-66.09270271379242,-81.1661666113196,-87.7507705348782,-89.50488674911544,-90.98877235248736,-99.58552287049996,-120.74354948812092,-119.41986695476429,-65.06953074246628,166.5945862030424,686.4274383131201,975.8951890219332,372.50462370516436,-497.23970584314804,-531.9402363271946,-94.7824850405012,-62.92760096264686,-182.41367384397847,-64.4960316688834,-3.890758291418834,-66.83524932062622,-31.72606098896373,13.949576401309642,-11.664510734313545,0.865408286362042,31.86313279498572,25.626186846625515,31.124556384707756,37.418791560278514,6.114276390564067,-12.580270096987181,8.344677802560534,10.31890808977628,-33.55455751328655,-68.60554719480831,-54.71408627405253,-19.007744764863226,12.507716525194585,37.91880506686473,35.99078878963769,9.505124439363634,14.163648418095725,59.221668370347246,91.20954695735006,95.24951654122128,82.37067754623678,37.87539332458969,-20.148917100173584,-46.57714764951776,-50.642454451261116,-52.32452538577047,-36.330147291227135,-23.572202463992763,-49.43860616515629,-75.60057741343687,-59.57042201913409,-31.595182819571917,-19.47411030731009,-8.864918542953614,2.251444544497314,-1.2852897567008554,-16.21769875189645,-21.694444391982756,-9.638164570970957,-0.8078274339731237,-9.52226903025,-15.127528836262243,-2.89751850976159,11.951067571743923,19.0139145830359,21.007666344093167,17.161098114948466,8.67760010783593,0.7320009675206127,-3.684610121955682,-3.4410133013643716,-2.2466557995214274,-5.610915036176605,-11.160567018169457,-11.857760033356932,-7.204953022658674,-3.317739512882615,0.8311028896610599,10.357975786899193,17.06515045751489,19.928417976279135,33.04590677407308,38.11623144641803,8.378409351115707,-23.736208648681433,-24.525877338501438,-21.93370961182081,-42.153012741655026,-70.00366029017297,-87.16452011566194,-97.98707004309821,-111.30149662828744,-115.33579509408395,-115.50538131976361,-132.64023049004507,-136.29040846636008,-95.34865494413563,79.68125181534566,557.3720973010028,992.4597398632917,607.4376675009152,-325.79169682403904,-601.7358217449854,-179.58550401433783,-18.62730889462832,-153.64097774184125,-97.05104497837902,-8.36849264026398,-50.96054914435231,-22.57417832031585,52.74223718117166,51.56447754479267,30.658263395159068,-6.544053238703722,-63.770336981841375,-58.21095333080959,-13.442661347169196,-0.12276222393752789,-3.131794920959301,-25.936534117648343,-73.98910735614034,-89.1454427417545,-60.78981590814526,-35.57628034015383,-20.49258371927207,-9.465626310755743,-6.914897910160375,6.530321204362742,39.32449920132828,71.11011120723315,94.84761397362162,106.73996467412597,93.76953677486411,65.44359111205392,37.51202136082247,5.619506278464798,-27.221643296871576,-50.39096615234932,-67.73649509269424,-76.74731237983934,-66.00767022702672,-44.385518694065,-28.181045967931432,-18.40973486465786,-14.48443391480753,-16.700011190542384,-14.247395889771592,-1.462933177741161,8.831072623475677,10.729810726093687,15.627930361805785,20.069297817519463,7.953413624969945,-8.146944151322039,-6.386246894608503,0.9281501700657266,-1.43357758975377,-4.123144677654286,-3.819857711580873,-3.8742815717028805,0.3281164320089751,3.9715138546531334,2.6412788118319104,5.487429838065022,9.463920274291835,8.101737485967718,11.021351648645686,16.514140864676584,16.621433328814298,16.872922211357444,7.824737756752782,-15.809125481960374,-21.43466174268675,1.9020177237569023,29.34533878895373,57.66001033479508,75.90973783501673,53.29150067284884,7.916352970919898,-22.904641875887798,-41.79766047282547,-52.80796590472278,-52.50612002355526,-55.75003454965256,-80.77257619153289,-125.43645924157842,-149.15551143914215,-132.9030480923688,-124.05295973572284,-129.64317222183,-122.82368154316538,-37.52871080895892,362.82757870784457,942.3006496093324,841.7107869394242,-79.54584978068617,-610.5094392489,-288.51797024439475,-55.32921461912949,-204.76235318413438,-180.26828046646145,-35.57262894484364,-64.1551254440064,-84.96393274526889,-26.682228939561014,-25.554436645407378,-24.95924266754378,14.700436367183231,18.644873349950306,3.947683829880738,0.18847978519448105,-10.113055708411576,-9.192696454617476,5.459711638079592,7.6061377556769205,-1.2292364251509014,-17.188132713413808,-35.12715833696426,-32.1260276378091,-10.4994407202169,7.6244475567905345,21.932051235799197,37.10896094995699,49.15730272246904,63.908394214622355,87.04086948935127,102.49265872316899,88.26943477076344,45.954129851341925,-3.3841794203678637,-42.197122914119504,-60.70403499427135,-60.29344875352916,-57.08139091648575,-56.24086443812773,-47.22979315183688,-34.64738059674523,-25.04682989641807,-9.563924272205451,4.9692200856532125,10.12345314294718,21.73850015123531,36.22496002577853,40.44802016968652,50.62541951058439,53.67196798376557,22.23371388643126,-1.5732957784523744,0.4113977592424245,-28.427350544533795,-67.45274030808694,-50.140919511764366,-16.989871204902954,-9.130723210249466,8.398615950289834,13.42248716349004,-29.802567669499265,-56.866128472476724,-32.30542902828644,-10.057503092038075,-1.9793482786695478,10.608204294586532,3.133345963214879,-20.564494110589422,-19.701589593103044,-4.644099384488229,-2.508364334737074,-1.7185646183255585,-5.497794318418968,-28.284441270934135,-36.593917879195125,-3.223823708749146,32.60539028291949,33.53030152309091,17.21013513257481,6.637973649371126,-1.1225989604487436,-3.5518050709880624,6.765783500144046,9.712820087981813,-17.451150507539353,-66.71383623660086,-116.58072240351157,-141.06406692550587,-142.34307744557978,-158.54711754366753,-170.73780332306504,-139.9915804734659,-20.624607238680625,386.29342687546927,954.7391705558043,861.8674564506643,-57.574704483260774,-609.523755894741,-280.72537952254527,-21.54999295861508,-184.6403960656767,-183.42291615027813,-32.11312403113682,-59.736942512882294,-87.93897038978176,-19.263917388708485,-15.165662447429874,-26.849390509139987,13.160461184672162,20.6241794792811,4.609315953749956,13.24074859481549,13.290447528713493,7.3481801081163605,21.304402848722575,21.63396290221028,-12.259428690543157,-45.129360040071674,-49.47191308810201,-30.803255757164862,-4.81959138930087,14.371450706930133,30.593647231496213,57.6111071948306,73.7483076410478,57.22298047968293,50.382008988302644,76.36598070292156,82.65398468564838,53.52176147457277,19.21849392668994,-33.46715621149549,-96.72260094013917,-113.26869696822052,-91.4068019262486,-76.98325165882636,-59.82054970716476,-37.118216574535644,-35.229621581250335,-37.39548084325662,-20.733395885468354,-3.9316042613486406,6.802947882988664,21.503969958757917,24.95932792151447,11.088704546829145,5.5719956457547,14.064147328616956,13.231038848189103,-0.701653418399637,-12.631986277014104,-19.43330379122277,-20.936328488710647,-13.388415269431173,-3.1255285282641863,3.679541736256019,6.461191820866921,-0.055445971434929575,-10.005053663387837,-7.210414743817422,3.6595746827192084,9.513601654006841,12.321273740860184,11.393976216499698,3.630528670185721,-0.37926997149958375,7.493608626971468,20.247622377201477,21.971834774881753,-1.2301381237508124,-36.14423470542483,-48.27991363329631,-31.424540623776647,-7.19615296827653,20.89031990036689,51.84973992674728,55.89523828736518,30.91391143859929,28.598029251765276,53.60081260175569,46.34513131102469,0.7795948903349768,-49.79556547969679,-106.97315029645779,-144.870679503837,-134.50447015368357,-124.84483601181783,-134.547586992407,-132.52268052408706,-138.4139546326109,-145.27951173014563,-96.57076244307157,112.56592390912564,616.1610426149617,1039.0891345822815,611.2745713102213,-351.60853321116906,-613.0653804422476,-174.86572783828413,-39.74253626171381,-194.6863634180603,-112.05371627993111,-12.976135500795536,-101.09650704073522,-111.75354238561438,-35.11528813535206,-30.598900988170513,-24.508220140624,14.366936089336184,7.452203056489054,-10.847997696205525,2.2406642050323633,0.6886462208249604,-25.42143039949002,-34.0936999306898,-22.33290215061301,-21.631825379272676,-34.72345573722325,-38.52262839679614,-26.752043134466557,-4.004917536943755,24.30614077309984,39.52847872816072,39.90964859388495,51.092669211371515,73.66863476663937,89.27017161865452,99.14224811067386,90.9306081742937,43.447979498194165,-13.3059428537488,-41.51058332353465,-54.61027034948171,-62.26859460957489,-54.87871254903254,-50.187830255724776,-55.172584699503105,-44.586502258431985,-21.43194880667276,-3.508228006820385,13.832471316812528,22.0673156145874,15.248277870495267,16.650959962839188,20.871012426156348,9.854028606350232,7.871842137874204,8.620228787990452,-28.915196543832728,-65.75553674758966,-44.97316933901792,-11.72710041970953,-13.211157310015091,-15.794293070861057,-3.4400027364557957,-1.9108977959212332,-3.000192482656171,11.50294661716967,21.446536456565525,18.227862943074157,22.04524985095138,22.504058752511444,2.6495443318157657,-5.578138066887661,11.85183102936634,20.796900056126383,17.280936990381324,6.442566747234258,-28.90633759048687,-48.977434593096575,-8.37391620145426,45.44432829503732,71.97500168550893,74.27674506114265,28.665473394105838,-38.83033640268214,-63.04369876574994,-73.29081235244426,-101.0560395215418,-102.5788133322433,-88.5623676406942,-99.95735232176781,-112.80945252721207,-111.86217941377018,-117.32878028975682,-129.127201010617,-127.49859926930293,-109.44856569091553,-42.11387656482633,270.32442526353236,832.7380069345897,942.8423766959479,152.68726168620742,-593.1800294303407,-430.954850913188,-50.21587593378337,-117.33941785355452,-183.1919738080684,-39.08739543764889,-21.59446075878388,-71.83662125996283,-19.105557755526924,2.1903494212344548,-20.27967650730627,8.332724923305172,31.0957378901809,24.057075654544683,25.61028848096783,11.28545276647925,-15.184289896616573,-19.490682037367968,-13.690944854774322,-3.8965760740079443,3.2000502934366306,-24.757842003779835,-62.51092371852374,-51.9527407341933,-11.227054038316213,14.129477162596686,30.7713927060982,51.24509910063221,68.08437077051813,88.25477352031984,114.46489553657975,117.45640510404272,76.83204637954995,16.08694389916046,-30.993700777758917,-57.05539917328313,-68.31391782812337,-69.21285577352472,-66.40896125600707,-60.19582354987968,-45.161619722419005,-27.398666877728466,-13.90467130539904,-1.7248585546111563,8.586715044095197,16.236609720939224,20.97504194500204,14.802739805241284,2.481001407752149,-0.03323453109508612,8.140802542493969,22.203696881473142,25.717006974639403,-4.080046680153359,-34.48709743481494,-22.056269007290847,-0.9619264672961325,3.656196057677917,17.455006085059935,15.932509319033223,-18.914129964926317,-31.65288930582834,-22.84032752343692,-36.160229626260346,-36.85971403804405,-9.896974895204377,-8.92097988006552,-24.816840397930893,-17.246856566679785,-9.08382717744156,-11.683735876809951,0.9996356836231293,19.108130625448798,20.990687626971017,22.906531647643646,33.72325465272546,26.05287846626344,-2.2916569252251655,-13.012163102346356,-10.427123627774908,-34.30037039112503,-65.4763742407506,-64.63195420113078,-51.11491701519636,-54.936252153766056,-75.84030479966512,-109.23772363908589,-151.4855515853503,-177.56174522549853,-158.95959192146879,-108.82346604058515,63.342983234206514,550.3553635419719,1002.5964842142803,625.0930280266385,-318.7437018484061,-606.9387826030252,-182.43994066944714,-28.67454119682165,-186.29199707694252,-128.26330910794672,-20.98751524623728,-64.50315855042575,-42.55975175203727,21.591615413786407,-14.341183389291245,-33.748810227499554,8.589089372735152,16.75019518850121,7.8604248178261305,17.539011675345755,10.14775632894361,-15.133536179963553,-29.91964399839069,-26.90300966584855,-13.485713079901139,-7.457521018098356,-13.002336939515573,-13.35210825278564,-0.2002029152130138,24.295618795570533,53.99513006043664,81.46802989152498,105.69126740426628,111.83844331959313,88.3088048414864,70.96957851191237,73.48233140470735,46.41674328668958,-6.711460542697393,-37.29711386657896,-69.51423194022503,-116.78934066178714,-118.97447992358475,-83.13608014733774,-68.10138067401317,-56.339449539831506,-31.45231368208104,-26.197790826547237,-26.130631774541776,-7.609798813801856,2.7980019495802146,4.888946065601733,15.978939947737024,13.75940207711135,-2.627038348166103,-3.2138461757124688,8.232439688870128,18.505108432566235,29.15514437645391,32.154296125120155,26.005761404073308,12.419678994832886,-16.1186501912362,-33.80659525434563,-14.303976983891172,-0.4794459272394498,-24.407489147864013,-41.67864926405071,-28.709247573016537,-17.181907928897076,-12.574675026140813,1.462325111850305,10.461699738401549,2.087872218673299,-3.280785060312775,3.9089571723653354,7.49818720219745,4.83832122791096,4.331897724808833,3.215029839536541,4.752492633804653,9.542700760608218,1.7599740342643457,-10.33099343491055,-12.883252121154726,-30.562958491279655,-61.336972782863,-68.72414258570043,-63.971720846053685,-68.68118133444267,-76.46270190054364,-94.13671431436478,-116.72707565721912,-133.40332706783008,-146.6599799981956,-131.96723881364676,-63.87217117429692,182.47898097710782,727.7641536332233,1049.625214835492,449.13677694362946,-452.0858363710079,-505.59786238533604,-61.730084200465015,-36.74523216441952,-196.99455846333998,-121.40825683022476,-60.03478744822553,-92.57284252966336,-40.88411831250358,15.10492174030551,-5.241310813692664,-27.54043327747857,-34.24429443442544,-26.516051578298395,-1.8457152830324262,0.12358210145017523,-19.961130874380583,-34.20990964594209,-38.788164766473116,-26.845893413502285,-13.419737475839119,-16.676680854798597,-9.583750319198494,9.42343428193207,13.72633000203435,24.784230082288474,47.87751509211012,44.09441110862237,33.49160028529049,57.7373165115879,84.18609862544665,77.2762785249973,50.25768282176236,11.679366467541485,-28.63153134946047,-49.263568990538545,-57.30814689356875,-66.34291567833205,-66.4510004458712,-56.071331964460526,-42.03736260845822,-22.12562388741347,-5.84897710991412,-5.561511066794299,-9.395648942113025,-2.574803285458251,11.159831799584904,20.320036849147847,13.935517499680868,-8.3849375031644,-27.189500067764076,-25.797252433162193,-14.146504742610924,-6.215844546808582,3.0860609900323905,12.880353039010616,8.552895901225359,-2.453126632325152,0.8720860255938945,14.85194036230481,25.36102437773327,24.60803458867398,4.675640256537874,-20.456402901392316,-22.76648527545447,-9.667161889905067,-2.404751484326962,6.609567799601274,18.19503512857401,15.017524090689967,8.65211068554751,19.412669146303383,28.669793583166474,21.021110243885662,16.58067420063282,14.361760069890572,-4.825798563613734,-14.009295932809094,7.536521910875988,17.375179646311587,-1.8729278031595271,-23.62640003768599,-56.14870595581231,-96.82919518380884,-102.99551226127578,-83.84306794806636,-81.64684456627327,-93.9805886166526,-102.82546988702626,-107.98066384550734,-118.63111966732073,-129.76177593626772,-131.8535049487119,-90.53328445241777,205.31599471434743,814.541090180274,1024.3728494036448,264.0773356611521,-559.746265711299,-453.5795713327034,-51.77787967859368,-114.42895299852566,-212.52889070316155,-72.41140655520368,-41.33445598148364,-92.23535736807317,-29.158674211594377,12.300653680893806,-11.200149020056344,6.242948549045121,24.833028853056817,10.022975442122533,4.135022830984127,-3.6082557431679234,-19.276490889594946,-22.026445018648175,-25.271299869240906,-31.58856112316519,-25.09302053097555,-14.768640280317282,-8.114331955518498,-3.458261190293093,-5.4379507726488665,-0.9691832175685562,24.313335306295528,54.1437683708355,77.2073316111068,97.81321261666872,102.86865567277837,84.20700338406736,56.69610413316292,24.484101784991434,-11.37583688484855,-36.02375927877927,-52.92501529006656,-71.05044024801872,-70.35049261282298,-45.25923370352511,-22.80830613217802,-9.544459721873906,1.1994315920992422,1.9346485995984972,5.19721962955496,24.991358993953195,34.310468178103434,24.481704350365753,19.44479221411077,1.4639423811907548,-40.71033341738564,-50.89133575596657,-15.249594877604226,8.644165541570324,12.625403527977507,17.42541842886633,1.0552811613277573,-21.72729984186102,-0.1742719505750756,32.945579123503734,18.16714368394504,-15.363078844786259,-30.19381756207266,-44.81160209510901,-55.325711244583545,-40.639431865723324,-23.089891538237236,-19.04112390211806,-12.623243593877842,-5.2005404275838565,-1.2435383779021372,9.939783691133613,20.27548180468688,19.42893981251403,14.23646180475939,3.237423726546938,-6.4141353910134775,0.8068077939191873,5.657973812949418,-6.59131606698044,-14.248994427760394,-17.74629673035419,-30.074224061616956,-36.773729170440284,-37.33293294806339,-44.05500884070793,-49.97047530151454,-54.45452660271116,-64.14214456270169,-83.0074702358039,-108.7744931799883,-117.66904746647128,-118.76171459993509,-137.91870476141924,-136.29988133679993,-74.29650508896249,169.09521972133126,717.3462728779741,1047.4382235019107,452.05323449843695,-442.1043762847707,-494.08377092355045,-79.45736862447478,-85.42962684819722,-219.37024095227423,-89.65311183213157,-18.366131283719525,-73.30017770689184,-37.12171878391942,2.039370910850568,-24.84273095240592,-20.616361876853027,-4.533668949944462,-7.060248707732901,0.6821476024475892,-3.25428212189008,-12.13936119329909,4.498448182134933,18.247467045830895,23.40521961629124,27.5077991581134,-3.481664286117107,-40.01245208690966,-18.09685756750278,26.61060703779112,48.06119130155479,58.11202377305592,35.75028165503032,-14.378551733880265,-8.837746451472395,52.153866022640216,77.52459939232284,55.730667893031466,20.299319152335613,-33.579427092705274,-78.41110962941352,-75.00473713574888,-54.692623353991564,-49.128605566927334,-41.41660110329268,-30.501148209549225,-27.04306286132656,-22.533755499419428,-22.548372981587498,-32.102424562790716,-27.46964096483784,-10.447287975987706,-10.505785174806014,-15.78481872759947,-2.7123363803339355,8.96022342936034,6.768220111557101,7.324262149443328,7.951225582934951,2.1934370112605777,4.696926884759508,13.21479804028418,14.606397422987133,16.015582911630972,14.213048288811969,-3.905899902179863,-20.00604385915855,-16.454937099668726,-9.470991638119537,-6.912449143221351,1.3334680052039243,10.247270364901329,10.344927436031382,7.927566785598195,13.664742992452187,27.319545018755477,34.79274594725454,27.041598591031814,12.050777090064228,-9.641809083914119,-44.14763381262223,-71.73904397237922,-67.97721607905862,-45.081570704102866,-29.64893575759318,-22.125773240926144,-6.810616482453728,11.348167976463778,13.746067685660599,9.3622040540899,10.354571862192493,-6.595144182988243,-38.62880165714313,-45.715935190223306,-38.28641231813505,-39.559171141411085,-34.83840965782207,-50.828572300992164,-105.08450278518697,-137.32075378402806,-137.50627566797513,-132.95058287918079,-90.0018697787948,55.95432349468814,435.62202705500226,915.8391165960433,797.6448798573587,-66.5459103633082,-590.430946543867,-267.2539260804077,-2.2128405631335255,-187.4409529927148,-238.74990787923187,-96.65596619745631,-90.74545997660267,-100.46315152022274,-31.861775222999725,-29.762357793557634,-47.23344755612946,-7.207781635358286,9.134954811845601,-5.256673052058584,0.7645021628497268,3.1372013333523547,-11.081822739951907,-13.691988898523116,-3.607784574323995,-0.29797020010387865,-6.042232436591774,-9.553952708712004,-10.424890035304681,-12.155443784726552,-4.506962275545922,14.830482937865739,36.482971018990824,62.4523903074549,88.56814784004041,100.25619694305772,101.40631977322832,92.79862846304421,58.386625067600434,13.06830694174101,-11.157314762653973,-28.794495229543926,-64.79649684114989,-92.27340848618759,-81.71014883599213,-54.55160115068635,-38.508843909426616,-30.303522229675334,-22.905377603894735,-19.240257535639756,-16.50285777730161,-6.214181179312144,11.444791215513828,23.439873214300757,19.85729830354167,10.950719584269187,13.059440494605765,22.989678700645904,25.541993156588447,19.83038610847246,16.505301541655456,10.133862203539127,-14.657797350317937,-43.93846423704921,-43.700499986974904,-13.086041001127917,12.593068152833093,11.108440473042272,-0.6279007025725392,2.363951193450708,11.410048090191589,9.146334012666925,6.039103709294874,-0.5014806407536341,-30.73940570622066,-58.979324382174724,-51.9629016132092,-34.22211863724165,-26.88553827594524,-16.209938361709447,-1.398522471187846,16.02284621954296,33.59856203009668,28.355627442393455,11.804462179909759,13.399249233369458,-1.5380640173627889,-54.24626476943161,-87.32198746765532,-80.24843861963706,-76.26213384169776,-89.34285568585592,-101.74497920281273,-103.00307190721708,-104.2744270306645,-114.95866369537362,-110.82508547096674,-68.64634888275461,126.84235307879413,628.013257818925,1019.2823506560562,555.5909233465277,-382.55567611665015,-614.179255834358,-192.1117974785838,-55.09679544893797,-188.98849708333378,-124.4951280600254,-33.58453561554582,-77.55842472420534,-62.379005927866665,-2.2019487516420355,-8.46494788188236,-11.615393843444554,9.595548761158613,6.581961737803016,1.0496942104313423,7.317261017251036,7.078933844750009,1.5157732220847482,-6.364738115335731,-14.30588087552023,-15.808297272987598,-9.512667373288307,5.956447309831221,20.849854305798353,24.934946643452946,31.992081742065373,41.02712320564858,32.06495209936752,29.9756391219775,67.37138134662428,106.81366977914331,103.8684050445395,74.79485660586701,41.358995178146614,4.299085416847565,-27.456949519758297,-56.113766138826335,-90.92505315193699,-106.93091035028758,-87.5821767228681,-62.52088977925297,-43.499849665433004,-18.108541495359457,-5.266728143150814,-10.85061454484292,-2.4986040276629655,16.462310484910997,28.88234617543015,50.635940640290904,54.9364772978915,6.619672609985605,-28.21845521288674,-5.517326702521789,6.684722832059901,-7.861683466294897,-4.195885390191744,-12.721097205128977,-51.45985889804517,-57.761857897668534,-23.271306352575976,0.4575883349927494,6.584298836983493,10.20082204104102,11.312109534237361,12.28699302573331,13.5896268069672,14.174124737854694,8.101953670104685,-19.388459102703088,-54.166154731079274,-62.01203204991516,-49.04571420440031,-43.683618816751256,-44.83949060236366,-36.40232292811736,-15.865227716289784,7.335042524933483,20.629219737675278,16.69525173025304,3.4012437918146574,-2.516395689767819,-2.7201843382521815,-13.861009801340284,-33.745284183759594,-49.336660477650454,-58.852618655880875,-65.64708743763369,-73.6957366532168,-79.23438872895707,-85.26884349795796,-105.2210569071688,-113.66750123758558,-91.75608432188214,14.187971409264605,416.8382806800553,954.0701809496,800.6021827447744,-130.2162991721195,-631.0875924675154,-272.7623659196528,-22.624543885406517,-183.04558943565533,-176.1012043413309,-40.33542015743163,-76.50755673990889,-91.3321666455642,-7.624812933494141,3.5067231804158823,-15.141935794801164,3.5349737070136946,0.8964072220598425,-5.48732172040695,9.192777105583325,9.217617785490846,1.3262122363520517,-5.7809791896784795,-24.908946628965897,-31.236870865981608,-15.496567195974839,-5.0010272351750205,1.947025438860825,13.146000490687499,16.319556716710135,24.90617933502042,57.14288417756827,96.38774254915818,130.56294997779295,150.5638666252301,125.21003350173186,68.52707098711609,38.72544168721795,27.094680030020164,-12.050052889405375,-62.13482201275894,-99.68847042764233,-133.39378033443978,-140.93587962783604,-104.5310284188491,-65.03277866237443,-48.37073593906057,-36.87649266573886,-25.987360968581235,-17.231472464441374,-2.3713311577031924,11.078273697470479,17.146228063015002,22.45631287301531,18.42145195093057,6.635868162889604,11.517348400604696,20.704655591464523,5.426993289322713,-9.450996876965439,0.01927553274414784,6.576458547105195,2.836958198740772,14.01560652456726,33.94573849915804,37.932794489424595,21.986579381944015,-0.6250856163518712,-6.492162900152586,7.685348065030313,7.636634897552746,-21.260154180580397,-48.87080707188535,-55.571790872573786,-51.156759467549485,-47.91303775189886,-51.61094211400751,-55.16637475687075,-43.689392330380024,-19.391328887586464,5.3811233916024115,24.32921733320461,24.24002878660722,3.1913813570798126,-8.62797680638985,-2.775075498187446,-7.87084191827903,-26.76167909461572,-45.12482865396232,-61.85284613225029,-66.21334309469921,-66.04261828291337,-81.59877521039328,-94.58238945261276,-111.96819721231545,-144.10537492872442,-134.2929800499008,-59.0174969505636,199.28177838118387,778.8358940868453,1111.438368235205,459.5064664786215,-480.8601427158211,-530.0261986972082,-100.73385198456339,-90.17645516420183,-221.78366420308214,-137.48872578600967,-108.26712629378468,-141.0241326929779,-62.20964397871662,-7.415305613919763,-28.057576749556603,-17.20670074062688,-5.31345642011493,-16.234837839555286,-0.9850242747475164,17.14445693500211,8.915530215196627,-6.314531324708394,-18.16967701679344,-18.978329727980707,-10.52824381746743,-9.709034503524773,-8.264200357141007,3.211012194796753,9.546513908973663,16.79079705500817,45.91304924261502,84.8884213504073,109.41627902185351,112.22074597718058,94.85199403284292,72.37567273276406,55.85909680418596,20.74777946962918,-42.20121629789962,-86.41864847920631,-89.4806822736277,-85.86745753333305,-85.40170557557629,-69.51517398361045,-50.432927394112745,-40.179970192224566,-24.44376086607749,-9.159282167006001,-9.338813861455517,-9.918103865747172,-2.357185357748506,1.590419178389551,7.007208139191631,17.21462590538446,16.573331637824463,8.127448747101973,6.410198444898752,9.315325065683274,16.816308589392293,24.594653185028342,12.579720849913095,-11.374642459775147,-15.90090282618603,-4.178978814847542,2.763873912435357,9.723351394775547,23.417004350691755,31.783086531860622,30.07272916626751,26.311279147041187,22.01773270704127,21.143901288234076,28.450530267454262,16.099087444020725,-35.364146692260874,-74.06333934895694,-61.8646025143413,-42.12528687651584,-35.62813599154747,-23.829037355092126,-31.80520643187794,-55.37215997017121,-33.95550229277045,7.911915469865335,4.53245665750628,-11.570699160406086,-11.119063369169297,-30.781683105468513,-52.80251847683252,-44.77344322211296,-42.061122780689224,-50.75221744097311,-56.579811036328145,-87.11485094258094,-113.730589929557,-102.39189843803548,-105.65969463158403,-112.45134792156574,-63.99693129539272,109.56674116446672,570.866806555318,1021.0848364387664,651.6952154515468,-317.2575628222485,-622.7798881239871,-197.3168783234462,-62.96357844254146,-231.66053577155546,-149.51653845006243,-25.45873575072737,-78.48099726823477,-67.40085445720551,-0.6888887947681788,-19.930308759237043,-22.725082273257044,17.781440394012073,13.869800961019262,0.10963413506934216,9.88758756271439,3.428675043017818,-10.757904780500203,-7.884921633057614,-6.354486901376182,-13.378749487932398,-13.296158859900721,-8.206628218188573,-7.424925438138729,-2.562045211393512,11.746968853196204,27.819211993504762,48.4063322319552,77.51230949444111,100.18785379281172,103.3006565900351,88.10057239589295,58.614083135902106,23.060015041945487,-8.182073813319283,-33.56531843139808,-55.71579694973088,-71.42913206159533,-73.5029388845249,-60.77344460874615,-40.511320651507724,-21.084612509039957,-11.550204700749415,-13.457446108536459,-10.372439109900288,5.139343866689114,20.630482357409896,33.94779850075166,35.86438691601542,4.3818879336083345,-29.326135485477987,-16.962141851603647,12.967019651648082,25.32912938328923,35.304175878401445,24.154636197000926,-21.346372021710145,-32.58949782352662,7.004098637291349,22.001237099949464,9.532455091526957,11.546232938961085,-7.240489351196786,-54.81475470114859,-62.62780895499129,-27.3648686670591,-4.308778300433872,0.23202476684577888,-0.010462207247343258,-1.1005406639149946,9.35733646075735,21.235552347300775,16.490345817524513,5.433300809668129,-17.63128837342441,-61.31280200701764,-81.53911926949232,-54.99148707390219,-23.944377971773125,-4.100352523321952,18.357907353456437,18.34844918342711,-9.562522444514059,-17.808031829928204,-6.074180524117615,-14.846318389056528,-30.555481092082083,-37.36562657650127,-56.6299043127513,-72.5806605640148,-75.3694254392255,-95.12705979461695,-110.42047003191169,-109.26482861020773,-132.04567075524037,-147.53201901196906,-84.08250626129006,188.98366791519166,752.0694774465014,1050.0800317130152,413.35917577569455,-475.2984342442355,-492.8548319028386,-70.96533586183298,-90.75537388788854,-223.04436583802342,-88.79642022567666,-31.595821444837966,-97.47799929897846,-51.97906629445462,-2.0566235839105076,-22.85401320566366,-0.5488185857034438,31.05897322057478,14.934092476517153,7.7059462614504355,15.870791501719022,13.71277396661434,21.885213862772744,35.807191281884,15.625726560043615,-35.178329635020916,-60.053483142564,-35.96560383946583,-6.645932572252093,9.362926734836941,32.071394005979556,36.3876082859241,6.304283002462251,-0.2534638256261701,40.244876413624596,79.07924968076526,89.3998089463307,68.41589502633458,18.3351754952417,-22.53752322329258,-32.04602036029199,-33.93321641488946,-31.50495199093364,-29.965250241836156,-62.02785655155854,-97.87772425742294,-78.54888409806571,-36.02246796151175,-21.943346136465145,-19.341221568552143,-14.858903740757242,-17.338853990457146,-10.179819363130846,10.566672661944061,21.041667967810582,20.444924149154744,19.855562992177543,17.072261543720558,18.900964565965978,27.36957024444906,23.93133265066335,9.193451137788257,-2.2381911838376976,-18.43255185414711,-35.20555329309006,-26.48894220197674,-4.415708919476451,0.7993884948876371,1.3662060930885902,12.806839285120931,18.761848128710966,14.12055205871942,9.71642283896831,2.138307463397908,-11.076189314212094,-21.604151007600855,-27.911861583924676,-29.85742832590512,-25.53152978255313,-23.25402347041151,-26.194075210450475,-25.448444602234908,-25.84346245006531,-34.67500561427692,-35.21515347382888,-16.53399899753101,8.33111792814857,30.03725025537732,40.27092909830977,29.282902002656826,12.317720372275321,5.953708682662658,4.041982853678008,7.062169946922886,7.618357901252107,-16.586529072787336,-53.02754877409433,-89.17612351699395,-134.25184379096842,-150.75946987882344,-123.06092037562337,-111.73575100276277,-130.826669341445,-126.4931821236147,62.68203877335279,598.0025542510705,1018.6919353312187,557.667308743922,-359.94704481773715,-567.4920864244398,-184.37581454966295,-98.72001268998982,-214.81760651518442,-114.83191673502962,-28.079906746825642,-83.25126227233906,-71.83192760534607,-19.39456631320848,-19.080607224897506,-1.86604389630633,24.846708902699028,13.372651128579163,3.4371165184486188,7.297836970443982,6.206008187582049,12.84164841853967,16.96826917559703,-6.299965629766849,-37.39774131274001,-45.60066203138257,-35.03517526979748,-24.118748206765588,-14.894091130179664,0.7250494904692077,20.360085309664978,34.91324715280628,48.69002651392951,73.01085646405745,98.76670509226454,104.18321378559793,85.30989102545183,48.5548224003359,0.08122674473284075,-38.89821859301101,-53.73663056237584,-58.96021036948816,-60.895726406097836,-52.77810746391497,-45.858283817104095,-41.9844289516745,-27.311730632209958,-14.075456487231644,-9.912708092131485,7.556713667519766,30.983561827799825,32.167347042302815,25.00149414257799,28.461047504518774,25.13495192263566,8.240632693576718,-0.1192071640531176,7.549679142198213,9.248895480116262,-9.629883506151577,-26.069020333971185,-11.926650665486159,15.630168821781455,14.097241238471408,-22.793728625997478,-54.119119006333364,-49.136057915658,-30.94631129382488,-28.598776496005357,-28.80569418704981,-22.47615448429307,-23.148232517019782,-21.41108201892512,-6.471236798749061,8.593221468986798,19.93024980541222,10.104079737209176,-45.752487193794494,-93.19992605512665,-66.2637153791222,-9.392144928071843,22.23681888160955,38.75043203877774,26.946636715256872,-13.334038879544721,-19.673333663780802,1.1150934557105003,-17.582686375621645,-54.85560420540123,-66.80620490462448,-75.62736874674425,-92.36918936483218,-98.42333961657678,-90.73539443825753,-87.43773750476421,-109.08234482451549,-129.7553285977562,-104.11819790131129,51.64613763343769,494.59973660132584,966.5945088046778,706.0543215596506,-213.49508286153517,-626.6844981099105,-256.87342249564745,-27.557536127227674,-148.35896653266695,-114.48196487084934,-5.75367521115794,-54.338863861267576,-69.13021266082168,-5.7099887586888265,-0.9965423265465141,-4.287976630099811,21.30470550475111,16.939907040634886,6.525482983710259,19.34207182205325,23.029399470409707,6.698348332511975,-11.208259472702355,-16.266897075092576,-12.443850991314104,-9.978763775100244,-7.980115246355092,-18.329806354063646,-39.36807909569221,-28.590976985822394,10.792609199509323,33.319265495933465,54.46067497962801,94.14348883449098,118.01763129694432,125.89062059838666,129.3567378504394,81.66783612959573,-13.379800220189127,-70.6973731692937,-72.33184471431332,-65.32156462840233,-55.766903307672145,-49.40367520827233,-72.06654598532987,-93.36200172580908,-73.08674016293678,-37.32970739524856,-10.702641845377105,12.064319174103389,15.994527768881177,2.522024725166755,0.15239820383009217,-4.6465696332412065,-25.035184284052818,-23.21037397962921,-3.6564882099869536,-14.848407523031177,-34.78052925989402,-18.515051184550725,8.090030421647842,20.285018348145798,33.49458784077603,36.499668611581214,14.033573305931943,-5.637902223002044,-4.937141859135025,-1.929053731671985,-8.093518474109295,-22.835347168145965,-38.16462832551297,-36.58263128113964,-22.08062898713554,-17.24803510993432,-20.91194742501575,-23.03998858288761,-29.16899097447036,-30.121094540281042,-4.81118659890452,33.91463957923325,49.3320425314649,32.337895805696064,7.915795974461423,-3.0101781101882743,-4.161432561065727,-13.482783690458051,-40.6273032303914,-62.92177197175145,-62.22846043203275,-72.25877490709021,-94.27709235665289,-84.2251667585974,-90.58364192439524,-151.82635324414284,-169.97431347991255,-73.89571311235461,239.02908517220936,787.4257717315876,943.5514409113373,193.87298290433543,-576.5710776168979,-431.36950955990596,-31.08384866700765,-92.80792486423007,-165.47784162605944,-20.978554640130433,-5.747639626802979,-46.5210444847648,19.699713460028438,12.14546181489914,-53.45441845264547,-22.37603072154422,18.33400687040733,11.170713565264013,22.804999340602663,17.867510295185372,-31.481512971790895,-59.662322254437946,-59.811263564803475,-61.55495498152035,-48.13133688377707,-25.40728768452259,-23.12373045632352,-25.608843239150403,-9.706136549274952,13.28031386642937,38.098960993202795,69.61674413446518,90.09895760460289,88.55492869978978,87.21031317626856,91.82686556725494,75.11677914351775,33.51687289755904,-9.816852666041287,-47.593381691158584,-74.1029880142995,-76.21308077080712,-63.15435482448421,-48.76315984551398,-32.516062666808864,-25.585052627556657,-31.49313366643268,-24.571825086244885,-0.7450127270719307,15.356355668706179,21.2088507087826,25.95484364657542,23.735818360708357,14.717088146524123,9.272337542689666,9.407037627811604,9.640389413164392,3.350255478522151,-8.865535081574983,-10.088185995806763,8.14655152124434,16.749850097471224,-8.397084405190984,-34.37765506809466,-26.691139525244903,-8.814530984018567,-1.5597559649787929,10.190656313382476,18.285657116692025,5.181942657402264,-10.711297718235336,-22.34019398860874,-43.477233767131686,-55.23104644157165,-40.25810824735734,-23.664348605583022,-15.97721185339265,2.157452670780593,22.268445033537795,20.788831473800958,8.053576049733316,-1.3715932124709873,-13.04166294159116,-17.49117239993781,-11.597866739688548,-23.54762893141053,-49.98114825897815,-66.76478807098556,-80.31785120241491,-79.94755347088812,-77.5221973027607,-127.96365512103822,-178.19429932710892,-138.91704902101966,49.73216544745077,536.3854398494415,1033.963246944683,706.7130440536896,-289.98143334793366,-658.8842944813133,-232.32512751578437,-47.54148120866499,-198.2416532159466,-130.63343202100927,-22.713231042445003,-92.25325588419076,-86.11599683065774,-6.538530895065339,-14.026178457052083,-12.70617864647841,24.559780311976763,6.648036046942929,-16.423520506831906,1.1543116979125276,8.196254919007341,5.994303215097272,16.037642696134245,7.153882766186772,-23.395344767741726,-34.69680889020849,-19.860671206280973,-3.1857801252067315,9.266481171681294,21.228825651843504,30.765570057719064,48.27369443832813,83.2428354818171,112.54968609336568,106.20012354348293,71.31612334700705,35.73511068792271,6.365909136991048,-23.80407889641119,-46.95767473326301,-55.31506934859716,-61.54426293703199,-72.29910175594283,-73.19256634193555,-57.03755951719028,-33.893050166760474,-13.934660774197816,-2.161368207756606,0.09163175842978433,-2.888180190382492,-2.7674635253375492,4.996709297393828,12.825462112035677,12.92517859011373,12.24034279756848,11.806862775315704,1.4284768664585505,-6.170780195003123,5.091749581382569,15.141800711957861,13.82529198317213,20.655643210228472,25.770773745221383,12.36152652762663,4.274722048938052,10.117977852483865,14.033158965374412,21.279660015438562,18.177502757699532,-13.645949786848412,-29.32140402203028,-6.48239797666213,8.106372547580179,9.89935327155414,12.510408843468625,-19.60468056533387,-65.31913376342897,-55.9535820461803,-15.537349901927136,-1.7318718451181958,-5.628430951070328,-13.45605405386047,-30.701589744943433,-42.645640694795105,-40.999325585089665,-42.65518418132943,-51.75324626280508,-59.35755738652401,-80.89271616102945,-117.69860234760579,-126.55725496018547,-117.59795426172161,-132.9580554476563,-131.6476129213638,-78.56121457137206,123.73336433102304,645.9833190714319,1061.6259313353803,584.2519441396828,-351.7064795104578,-544.2682209431227,-156.0632342422155,-107.33239112456104,-241.96571703854676,-127.81695105650596,-39.490156785481446,-90.93632987872735,-61.6619572621576,-15.78146085918069,-34.952764054474784,-14.120665352481678,23.475639981119887,18.460748052608032,15.566765475509158,11.70390905478095,-6.850626118457964,-3.4141903017740476,12.120406434424485,13.053222151602768,5.452119031547134,-17.160096255019454,-44.44583374288448,-39.50548849055568,-12.277991460039507,4.50381878934855,18.51427918092326,40.13238440918565,55.7195890295894,67.12515679769544,88.2551945894064,103.33695812623432,84.36006834505716,39.2543275453054,-3.766772092960906,-33.73410060658722,-45.18875805910264,-38.80688169000166,-32.85694577857625,-26.319636788116394,-12.057050802317,-21.954084885324683,-54.142527651780455,-49.6525628260141,-15.486633672099781,-2.519254022844569,5.916159682042788,18.35547563823738,-1.7711222545183496,-27.45398081755253,-13.796487134131516,7.292011403923649,7.345420601335299,-1.1481734762903422,-19.95549732485842,-38.97371279609847,-33.324370305962475,-19.074124751122813,-15.09578186662621,-4.3500690828978605,10.772470476164585,9.091709218307377,3.228884705891417,9.881165708291478,19.314112390732824,32.06886679668593,45.763916368662045,24.033736190158297,-34.76284173348683,-69.78184877144398,-58.97260792690728,-39.93187504584118,-22.681215612860182,6.020793585050148,29.875495987726012,31.11287922801997,23.517394640431508,26.54275841334394,32.319906095761695,19.468605214998327,-8.728100853561203,-38.96664292569587,-66.8833728316278,-77.2030969979401,-80.53144025186747,-110.70897632319117,-143.4992540736066,-156.99995011552923,-173.16227286244563,-166.6500078861517,-102.34030407783882,133.45890418686002,678.173719353816,1043.7327437386098,486.62876782811827,-436.018882986082,-529.9256265143663,-87.0371450675215,-56.18236704852677,-213.09403523526578,-112.35456538147469,-41.13767217334619,-92.18527137769988,-45.270877737248995,8.667232417146561,-17.157520814995546,-9.614993206539548,15.235481151058423,10.737051920148097,23.623075220978244,37.63830690889037,29.293148495684424,22.41347699927318,-1.3132932253292289,-31.63826707620885,-18.18232695263667,3.3039915655563314,-10.20174983946545,-19.505652247621978,-20.326459034932807,-39.09245260428126,-35.29129836381149,9.110725856950634,45.13352875581006,67.338160640029,92.49665449789781,89.40320649578953,52.026543723070475,17.614052833531616,-7.676959880637101,-29.38442565381571,-33.462531053770014,-31.706841769745736,-53.845745119672635,-86.92358875524971,-90.973242916715,-63.295412037787436,-36.353201421575164,-24.38856371646024,-17.955286129970382,-13.77914583853262,-10.358689745739161,-0.8407723024218399,12.882261712802578,22.961003463639514,22.792381217218285,12.340862853766746,7.366097257585006,12.051357703232004,5.050449832416396,-10.788761513891945,-12.069014280548423,-10.044292591755571,-18.050823324849876,-15.601670224655813,-0.048802002600982775,8.758082990725251,11.04618011055429,8.414571030473414,-2.379828941569012,-4.45159763121685,8.696105004285226,19.95601178165959,26.38028156431783,25.090917539361723,-0.21514230730707595,-34.037894750103085,-43.27499695512612,-32.07463052572983,-18.017302659215737,-0.3280457216376642,19.384479737949682,32.0059225552073,33.28417331405271,29.821673708051517,34.366260189860014,37.4318140621454,18.131036220592875,-10.873699317724318,-28.621719839402253,-41.7255505948161,-63.055600731470875,-93.43269790346666,-113.67640740509837,-127.21818510204963,-173.99616516831534,-207.88070257543944,-158.44455186498553,-34.48993729051803,320.36323458951676,902.4506478122702,938.0948356139627,49.30561692850614,-640.0755031097632,-368.13955307033393,-14.913591530728546,-138.21503535997456,-178.48195762617112,-28.149811476022848,-51.193957395647985,-121.48593897598559,-69.32962658980023,-36.9561301260355,-40.684411749240674,-16.485534778973726,-7.450233504690246,-11.137847127695217,-0.6948450467308049,4.478753612721665,8.70882367357845,13.972984199991647,5.0433164104623565,-5.868331814649661,-16.673486193614867,-35.07038323489934,-36.695654106290576,-14.956382243130896,-1.0535411456545312,0.30227786225325426,12.03328726029848,37.47473888188998,66.73114580952777,93.4229420825179,101.93216155235592,79.32934230357776,40.665764794728034,6.755628358085867,-19.20466708552506,-34.57942819321124,-42.120680810293926,-57.468101474187996,-71.34238204743363,-59.5163325863537,-35.27496576341379,-19.748821190287682,-7.125766689795469,-2.8253494113570348,-13.885163032670679,-16.070065648407684,0.6595519146275608,16.91680812663983,25.9530343449236,25.735168090213772,13.31010622729273,3.4739049363586343,-2.3108378377433874,-16.079727717913023,-19.21375301134549,-2.7869158618201384,0.36596928245564087,-10.37422936710947,0.014469119151839571,21.412180159960062,28.041016504577392,35.999770004531285,41.80941841351878,10.79749856009974,-26.728451123618758,-11.384882264840074,26.38016359665749,31.831405714835075,22.465422444242826,10.77280393564731,-22.634873359087468,-57.253383289569705,-73.60581203007492,-83.89898001373874,-70.3088250848235,-28.224453606771533,0.05814921575364451,17.009683976176383,40.305583743444075,33.46446791179561,2.6629336416371103,-3.4924176167801733,-6.179393583251329,-34.28257943634701,-64.135440291565,-86.35778624594535,-99.7828040735117,-102.42461459455308,-111.41897551314369,-119.36948328895272,-123.26527717176866,-138.67901078766627,-135.18179489199642,-67.35472112176858,196.6901591798096,731.599066538886,974.8664632314315,316.7999517765664,-525.2586421215418,-500.15910127469385,-69.4364528515196,-67.93003041681331,-186.25283465526354,-75.18391930202235,-27.661534453833113,-76.31137154203871,-28.927472448290327,15.080324513034498,-8.202515268837942,-7.71406130671588,4.6969933424358885,3.046957456217932,12.105222679192002,18.1427169716156,16.818688768832345,14.280820507564439,-9.742165703723558,-40.82263932921288,-44.79610480893894,-29.40175947427111,-16.99759736970409,-15.734333770811407,-16.322295577729925,0.301523014527147,27.022393318618782,46.06537929022751,69.06741621699011,96.89824016375746,101.43753352875774,84.63884692115846,70.02323837106833,48.2964852372703,10.341371041962248,-19.339631876722052,-32.078822558759065,-40.86943018364338,-33.05147107217002,-7.739260544258139,-8.094378770366024,-35.61194968386985,-45.054525070631854,-50.27705703364259,-76.03100976890866,-73.04223226901925,-32.09403930923981,-17.33630204796713,-19.842035088151825,5.70442993661162,20.351498114951312,0.8305039049308114,-3.2821749331449013,14.619419542243627,25.09600980605194,27.84497457257502,9.918866133464117,-28.79024587442226,-38.75322673500995,-18.157454506127955,-12.199612950871135,-8.057624158497923,12.812147837317248,14.235197757569267,-10.081519644114659,-24.751170890705644,-22.7057297607466,-15.362983330475462,-10.534709031969168,-15.885776710452845,-21.448553800858733,-15.528658949737693,-5.384008456564352,15.029292628963901,52.61749489447183,70.43520853380464,43.08304394944677,8.043717487859347,-11.193877575428742,-33.11587498390607,-45.506751738798584,-38.06814038278898,-51.07668301572677,-86.9057219342339,-107.17438536808302,-115.78349066979207,-117.99488618354788,-113.34191563508355,-124.91695244070323,-134.309517218652,-93.74270963402331,121.14998373627458,638.5982793610117,1005.5797306471183,495.29856153960554,-424.9871458083602,-581.9993980054861,-145.58042963181896,-45.279352538539975,-163.3416654667325,-65.59259742969556,3.2139245862913555,-65.62120627323384,-35.92473025221826,36.004872552715064,17.3683250517295,-12.337960088833997,-21.898267489907372,-36.526101571866526,-31.858998641081005,-19.80816678332255,-15.744523485808939,-0.5990177404383807,8.698195410035321,-7.949900600981525,-25.54578331978823,-21.376995921302328,-2.49260289230121,12.883007266742089,23.956887531253166,41.260693433081286,45.45492566968561,27.367712398224988,35.573919396048666,83.91953767200373,116.67202983603707,113.43636253742864,82.92585524940236,13.090808712140454,-59.849902767217074,-81.43287559351201,-81.00871635836141,-90.0352786145486,-82.03011332924915,-67.09034977109407,-68.14651071745332,-52.73511616355533,-18.877867078987055,-8.961457041201765,-13.17785437368202,-2.7998362619855826,7.282439671082322,5.981202774438512,5.246672732104664,11.83841124490489,24.24358298084733,24.551880081894037,-1.9866074902184554,-27.26968604560376,-23.191459373257317,-9.439058592637384,-5.80255811555097,-2.268449876150569,5.683590510229012,9.47750164631707,7.100426518022798,5.74412419982969,12.172796467199468,19.230769995611716,12.696752268931348,-4.291376035914306,-16.872298975307274,-20.67053288449653,-18.189765247186134,-8.811802646680503,4.263498099598758,8.439257729962996,1.3418106082408823,10.121728735980923,52.031472742342025,86.8503519769144,67.74462752909884,10.654574620951188,-41.897338809739765,-70.90716966644176,-70.72251889974373,-55.2486166857962,-52.01317314875728,-61.672451667290694,-84.14045488846645,-123.41357829054195,-134.24749691273422,-109.57100267628948,-112.66388636775173,-117.24935089436279,-72.00531888919025,61.657227272027114,471.1418521238413,964.7550644083974,726.9258689413916,-211.53593076616608,-618.9112818175863,-233.4794879847214,-55.8971129009424,-232.85897389415283,-178.69563391160565,-34.22152729381722,-76.80067044818962,-78.7878622966025,-8.506590123757459,-24.232929119258742,-30.306638959079812,15.698592701803678,11.25093130195101,-7.159192503991452,11.33204886574006,12.27017453555106,-4.879676159749614,2.511549356708308,16.51045737447465,5.091659244404641,-23.360342039600653,-40.541302840831335,-34.11851234092281,-18.275653059101895,-5.216740210290636,12.673449365220415,39.284412147785105,63.168159998711985,79.31496847308658,93.68098373501756,99.78902349039537,83.45562973499105,49.52844066736875,10.32237588206247,-29.689143665621742,-57.481691875676916,-64.93929373164582,-66.3803893819253,-61.43676937780373,-36.428471055146744,-12.487802189806617,-13.520453819762114,-18.018175265452555,-3.265115920795303,19.534425996421874,31.321665903929386,19.546516085425843,-12.54222255386766,-35.990461609423015,-27.780612416423025,-3.780127171051527,4.291824954854357,-7.200105272169036,-16.95722907579854,-19.170842109720198,-22.356407000236857,-18.790751116297166,-0.9841774337331124,17.246399487106704,23.291684555051773,18.52421462408701,12.898951513079258,15.105917616198262,15.43540975898969,8.33596581687597,11.457638219390212,14.599920151635805,-12.671585994856093,-41.328495506902044,-28.27712321310651,-0.5348065676834564,17.75923208344475,50.74785650341573,73.44421977721282,32.772688902129744,-23.009090203959524,-20.793068943052752,-4.256097235297322,-25.622826962688105,-48.863322768573575,-67.75090455553736,-100.55946158597015,-105.56699537895842,-94.99151440138371,-124.90541645324083,-151.77550555615625,-151.5956972309375,-164.98892024824085,-156.8566446317021,-64.28728627375688,252.12642493658595,827.9576147645671,1008.1567407881346,242.04030786726682,-565.89403988315,-434.88116254249013,-38.38773489527674,-119.45343557200603,-205.48645929972338,-55.006523445550854,-39.276511312233225,-94.36587535626325,-28.37922342423917,0.1912129314344142,-23.77391275006194,9.086252328991426,25.20966270098785,4.093002323517823,11.832268368470135,16.615128976515262,8.175532466220698,21.68957881347513,17.30983061276134,-20.733100955029457,-33.70263967826239,-21.865627767686014,-29.539169087958918,-38.517089109557254,-20.135335043471297,0.41013251071335644,8.638927700465718,28.64442284413026,62.25334444212315,88.71455605035804,105.13244653844583,102.90650088640817,62.96017124148728,5.843858930122359,-29.805851374578474,-44.00562148802515,-48.56768787014326,-44.5949226120096,-45.968678818807206,-51.531763296390196,-36.35678933857301,-8.102529921559576,13.29713242900624,32.421417397062925,27.343601985975752,-17.434483648343736,-41.15123896804487,-13.052072538845156,13.000902008302491,22.773273157310438,31.213303347065615,6.598283635969739,-34.989247611042,-33.268299778142456,-16.64732540777343,-27.751479013194498,-29.34416669638577,-15.771353715536904,-23.506233662232184,-28.16357436003714,-4.254961169137387,14.345487065233993,13.634598274534529,11.980203744973398,10.354993468952816,8.952139439376978,10.755964951829155,3.81111343157864,-9.559516623580599,-13.754569530818602,-18.52130366909835,-33.15734924792253,-34.34012222068405,-12.112218035840318,12.063970792110755,35.99810816072644,63.155334936793736,62.893220605189725,33.28958254467619,17.817826177558768,12.606220149238434,-8.853342579317337,-27.71889171468147,-45.957418295167344,-81.79254626158823,-110.66272655346617,-132.26776073225392,-157.03137097228202,-158.05689770911147,-156.74616473893357,-172.43095603769507,-149.85245595779102,-2.154246105698519,432.0205321961362,988.5445342465954,875.5681947535943,-48.20771198307432,-602.0514414182953,-278.23498819753763,-20.28377427664534,-181.29489896250726,-179.99734223230092,-31.69539720347595,-63.674488660134074,-95.28367634685904,-24.39622705405346,-13.626995462525642,-22.72774365652218,16.269610402893058,21.8661309905664,-3.8347546684281753,-5.142020378215912,1.1771778460723143,3.913456094739084,13.628611325003694,18.875817478177964,10.358694206420232,-3.7537343488650254,-14.32530035376131,-18.33266745108117,-7.383690822005226,21.323909373809272,34.74496992017732,14.866870278570339,11.631158634335115,52.331565334784635,92.44005104387551,109.67250715205975,104.0189367022652,44.650634030151565,-45.819406002533924,-84.66440885384739,-70.89550166567197,-64.81832553056358,-67.008731496184,-60.686537209406296,-61.24932348176864,-58.79613325840963,-33.912959020377,-8.754594017793686,-0.665007024059669,3.420874118696556,4.567244528779689,0.4862305028456335,8.787677614327464,27.86645237095228,33.24131311280141,31.526077845303863,38.789552245777784,27.71775986706913,-15.282893109419593,-44.84357268330251,-37.82312242183853,-24.87932127032733,-20.90474621607772,-17.351982911090374,-13.794332296503445,-7.866094941568139,-0.25934401400360585,2.252501871389777,6.5392351868358105,13.996764934670047,14.179528693500174,13.9211058870632,14.352644278074575,0.1924056030945387,-14.619293352336648,-11.672068770496514,-12.73678306109736,-28.53170240099528,-34.73774056408154,-22.65078301123414,0.17693106329996722,34.73040261368085,66.4146767447819,62.897352226169076,27.437116007252705,1.7504555288041157,-5.206897884472989,-18.682979647766935,-34.94140880277662,-46.56351910631109,-71.29938362637297,-102.78902150774077,-121.59607740586425,-124.10497471232237,-114.57831136191562,-126.13296381311869,-160.06342961601715,-154.31181821982693,-41.641994334861096,335.21366520812904,912.0747776830091,946.0320687789527,87.50591766045264,-593.7830448745445,-340.3195152392175,7.171905254489452,-116.15029779603488,-156.41026997501967,-11.675057443529354,-62.77122415535358,-139.99159007782023,-49.128238929908,1.1363743739877208,-13.031495670237696,19.715139609122105,13.247839060507783,-48.60342549362492,-52.83649194202935,-13.83520169174356,-4.240236313354693,-6.848651531385702,5.0992123651462755,2.861195267596333,-31.427215417380697,-57.39803253549058,-42.93529842197408,-19.288516160344095,-12.898829254873206,-4.6855487312012665,14.143762490256329,36.15354743786325,63.40218355494627,87.30663157862244,94.71343533597145,84.56581369380508,52.77700485134696,8.588717651907235,-22.508163082106194,-41.78947048819557,-58.87896069806793,-60.8131037854792,-51.5628689334797,-47.59227737876937,-39.53630297730946,-25.318010433703662,-18.403323499166152,-10.178012406202917,2.953930982513743,4.636349117463413,1.694687977450231,6.970500638864201,9.299822667232137,10.235400122798753,19.988202376726626,19.560809674531452,-1.4708421300514019,-16.100304500466088,-11.423519972083458,-4.687796730348625,-0.29505834077536064,8.210517169192816,10.067409950215279,-0.8194374030584601,-7.013770758269674,0.20845943355059937,11.03171664287664,21.648774407570208,24.140110637006952,4.4915234076606625,-19.328136467393094,-18.053142595349204,-2.4968026548584286,6.714502719394991,10.161423920271478,4.906547098042039,-6.568195666400763,-7.842041248452398,3.269349337935627,25.302861976092284,52.58686025355591,52.51793364424218,19.488042409905532,-8.410467652006844,-20.85626828236802,-23.742673991411408,-14.081141623626289,-15.757253126266804,-34.56308345105066,-44.24319449047508,-60.43887757064094,-91.96793138427162,-101.45295853357848,-95.8764894771441,-118.54631498480961,-172.12138129320059,-205.94105613893737,-174.99569604480817,-92.26137569095452,161.3488164317696,714.3451705484348,1010.4921031014516,374.8934716863755,-493.35442790402766,-492.1157722795129,-69.66093269864159,-82.85297580764974,-207.51514124700515,-84.68466622059105,-32.63579312284611,-85.86900928446818,-37.9949029757222,4.842968527578201,-18.03296594519548,-6.117703004250895,