ECG,-2.5272588980185984,8.094272350336773,15.616462198235215,9.513009323920015,-7.998125657730209,-15.983305763680146,-6.905634061283692,3.0048835983346582,5.032011043316966,6.319641011123144,9.148485249523338,10.296670171270238,9.832918944530785,6.824121108838358,0.6751670296846886,-4.19036600882689,-7.475003911953731,-15.428689647634389,-25.31334557218552,-27.54035651389723,-26.401698607299586,-31.757117338430827,-37.278516410007,-32.59353809622724,-17.88023026965859,4.456702251113962,25.42679484022856,27.09151148330482,9.961339296046658,-4.85494577974357,-11.863329078916692,-19.98603131050549,-27.95658746128459,-37.26242183157126,-49.64604408638995,-53.82745427430669,-61.03238062417359,-84.50802991920892,-96.20094105615597,-99.69356041277844,-116.65155202985311,-105.79541644026689,-38.22796419080103,179.234017186951,650.7886287479627,916.5617530583678,361.0390514353144,-448.7638730314205,-490.60906189822373,-90.82069873798389,-58.84132928527564,-165.4368790876862,-54.348710500367744,3.4127006295724414,-61.93123891974966,-51.84193947907822,-25.606058380407926,-43.858276409391934,-26.18937471364304,-0.1413095941631468,-2.9595543500857993,4.690944466146583,6.794334865939337,-13.202430112223121,-16.75840265543872,-4.548936815973313,-1.6286170984434762,-0.9218894291103484,0.30373945161272786,-4.652635048875787,-5.117676499860705,6.95956935078377,24.225397631268784,41.52082510068361,58.36508916553352,69.70768310384122,70.99117350229005,67.88621081053974,65.57337685477206,55.16002424464638,30.474385506195308,-3.25008059239799,-46.34745177287179,-86.04997119465986,-87.78016156190233,-57.59897182618721,-41.47240850282859,-41.60962447588943,-32.86743622046639,-23.159805109976418,-16.674788099987598,-1.3732588954173792,12.006425957999097,15.784796355001749,14.990348215003886,-0.80793787369727,-19.128120569791342,-9.414849098911088,5.470275557301376,-2.1252010423242904,-2.9047298420160885,10.28916199448376,5.135289757051609,-7.139353484483748,1.1319350966889892,12.578007375364919,9.439183227688273,2.62842271428213,-2.6390685461183327,-10.180843134050654,-16.606097915365467,-15.331974365839187,-5.362871488923011,1.9840808909928196,-3.6058145443303466,-9.658762166704841,-0.622487949023367,17.347116204076382,34.34341944570322,42.80477285593106,26.101677298928706,-13.641630098658347,-42.28715059436863,-45.139963648183404,-43.52085417273736,-44.890647814504085,-43.209919638948996,-51.52399401995838,-69.87395476325845,-80.13005047197655,-89.37218414623976,-100.08611033974836,-100.36418568143495,-105.26153632725043,-113.73856588267529,-91.99299403214599,56.178514348306294,490.2586528157778,950.3119783253219,696.9377766402723,-199.4342675491439,-619.7217920318365,-284.36376347358686,-62.29781309836986,-158.60499196456354,-105.48337047268406,7.345506875808013,-43.07150389195402,-58.78952645452388,6.570904923352424,11.014446550615236,9.138428080637626,41.30510908382305,27.167462107324862,-18.06039599340438,-31.015240392482188,-17.215100998187303,-2.6584415646478075,3.566168920141994,2.725210060393655,-10.173427467697003,-32.70165980793627,-31.908855533988906,-4.962508114986379,10.074909858794959,19.125881566948095,38.446208379730656,39.88579330876767,31.54906326469959,50.29024482206478,71.60025049351279,66.06289367396985,48.71330541562481,18.682878028688705,-21.25161165498949,-38.95937785005772,-41.44733569080532,-53.488944935597395,-55.1518207474554,-40.94626562394749,-36.15723721703655,-31.565928156726795,-15.193129844267187,-5.093725503470923,2.045317042198514,11.06145911661497,-2.9949320644440043,-28.4370101405896,-26.874996894033643,-12.720754579080293,-9.20475815549795,-1.3250124656997553,7.255109232033208,1.9541458807300156,1.059334506762247,8.10903208882103,4.51360267412442,4.418954026594408,19.528825069593264,22.32020998554217,7.10999304953299,1.1885300127192622,6.879121569510588,10.40647244387323,11.68015971739422,4.4541680390802885,-15.833940923701574,-28.881967790614816,-22.57536897302876,-6.828768777514775,14.922284286109782,28.198805192994655,8.891553910794888,-18.325142919295956,-15.442499102308995,-3.790960503706329,-8.938044691917055,-16.908672166670954,-26.38416899043412,-49.785377014473376,-77.1476332782635,-89.46202535686058,-91.78309525963506,-105.93725205639944,-118.2416780426841,-111.1209522328663,-46.469093117146784,284.9540968183337,855.0200591773597,916.0049597723628,101.83629499688202,-589.6799999727143,-420.68612093276505,-102.00595862895267,-153.7456734337748,-150.58202171601135,-12.766728405748125,-37.13662179825674,-98.59129760815694,-54.156964858667344,-31.091345541003577,-32.38282339107569,-6.651276215263122,-4.275392515595936,-11.732815948462864,-0.007525239686057006,0.6574566794482379,-0.015979173069865737,8.886991049912051,3.8963877543607564,1.5312190585117162,13.867774647443042,7.938733380781228,-13.788059211117325,-16.40774613625412,-1.1225496516531699,14.75662366784212,30.824234586713878,46.71660168121127,59.09929189887013,69.88935476949936,74.74081349511616,62.31655954982587,34.21385219345986,5.2564009450066,-19.348842235800213,-41.36884888628691,-50.36617139446385,-44.3158578302736,-44.32086885654765,-52.32678023992885,-46.00607675495078,-30.23164020325908,-25.226581505636744,-22.823401937410413,-12.019546640482943,-3.6050822389344006,-3.190792764102863,-3.806449213667424,-2.500105862580644,-0.08185498470363672,4.122985986686636,10.45273387198024,13.800737731202354,7.32995017158644,-1.2917349193075682,1.4446206489198774,9.409837803647644,11.945112130149226,12.605495497607043,9.917575286125338,2.144176489511532,2.706381458541124,10.954919903007822,14.205928391407125,19.632896884340987,19.966572344546595,-5.957546120907945,-19.437220430705676,19.467087820111537,50.83212170938986,26.760704837603395,-1.9095242380789053,-18.145636215158405,-53.99189355722585,-74.91869226813621,-56.14566494091375,-51.3949094374669,-77.4600987755525,-102.96240696543109,-115.90977604474207,-113.23419472263657,-114.73706951582527,-126.0104389317758,-103.49466724095261,8.635966363807626,366.27115287103186,923.0978219110831,957.2997713089991,93.52476976584134,-632.4745449878111,-422.42218317181346,-66.95679091435386,-166.11915390931443,-205.32124347098122,-47.15374260436995,-50.700544713990055,-94.36334296033436,-15.218581244367204,6.842280814456231,-25.327381454246147,4.545956607297807,19.04196743686855,-12.799345671735317,-19.307763499899895,-11.39074869823302,-16.223220630318842,-15.463655346202255,-12.269907583040887,-15.328866874037166,-12.792786181049815,-3.744809864103913,2.687691199190553,6.801880008011455,12.939459778190038,22.99637038362967,37.51908705329181,54.77251974889945,70.51050362349697,77.03829388413433,66.85124909277812,44.38570648920384,19.811841127023172,-6.4885567717014565,-31.567413620794845,-45.85830586137116,-53.09945714230827,-56.92153643961912,-47.2970689919322,-28.33183728184997,-14.998099794402838,-7.82601560362534,-6.063861176984307,-8.00770550518906,-4.001214761194317,-2.1320246808207983,-11.386852541621998,-12.576145647576078,-2.928014219184168,-2.0819160617539785,-0.6400207589658693,11.944825564065958,20.95264098737968,28.921931922690785,32.95054574956403,6.475668529449656,-25.350527860857795,-14.890801209243246,10.718453765278875,16.325939834674028,20.316283235880988,17.758103433154336,-4.8371442415786206,-14.03161945709796,-9.806128020116688,-28.058833265023093,-41.89573642152316,-24.57898026046681,-15.735076643003604,-18.010522937979673,0.6576721833344834,10.376801872944299,-7.548252560556342,-12.420638814041432,-6.620985153734068,-16.89447830043038,-25.686245869311147,-35.66513423630245,-63.28061836181819,-82.93212263371339,-89.2602127293492,-100.75834286677642,-112.88114395154234,-126.14802606244292,-131.61110226176186,-101.90926324861044,63.75005936409957,537.3389447852746,1016.9736272077316,715.4261987416571,-219.3993129937809,-589.4920500884057,-209.91673170586583,-29.08007889216373,-169.0480847622502,-115.95406562018553,-9.909632194544145,-70.33636377802395,-73.24923790009615,-3.35895570678996,-18.638783875459374,-39.13464781652597,-11.281292131551893,-9.23806420017271,-14.493240734975974,3.7895696445166482,8.91128426692902,-0.34996394296184086,-5.66439284272661,-16.480301112414693,-29.89802403032193,-29.238175805405604,-15.950995450710263,-6.173692219950959,-6.2729759346181755,-0.8844562727557026,20.015204256332687,41.74080222994908,58.35675816404111,77.42058759188588,84.03417122752526,66.71504927939033,45.78851933144306,27.68031623203826,6.098570183482919,-4.2945255852543855,-15.538498942756032,-52.50610173557432,-71.33916104615393,-41.92542508468453,-25.689228875327245,-42.56336129568685,-41.94569911109669,-34.16701678928576,-45.826188387055005,-38.37802109346687,-5.937164366625062,9.418857856525673,11.026674847780857,12.177475551992828,-3.001930923589722,-22.642367095468913,-23.98441571940772,-18.857045088188826,-15.922653324456855,-10.153214429756638,-10.049205678907366,-14.525478982907646,-8.146609675042683,1.5394514832812334,0.24027310468383511,-1.3296004378208934,2.6257693454041,0.2745415404081628,-3.114303074596167,2.962820784248761,5.419523286576274,-2.2966178336147607,-9.694601827601806,-18.783245210353922,-27.293355726605853,-17.484355156768604,6.766352343597811,27.91134473565885,41.0182293421493,35.701073881282845,12.236933899459533,0.3757099966653228,2.6197587452424775,-6.7768607282421165,-16.147617775728918,-14.226985350286121,-28.135434156835306,-55.53514635508223,-78.75216940411835,-107.65136933549488,-120.70289267000034,-109.87347863398082,-125.0712061932993,-145.29186480955116,-95.1936948795491,121.33275397029277,619.4297393874667,1035.8502123243447,634.389779105494,-293.08713841183777,-570.0147771549132,-173.19413794150276,-40.15397444342308,-181.2598905719304,-110.15736733123526,-8.612387526279605,-57.570751962237004,-46.29627810042329,13.883921803523798,2.1578138046094324,-6.3367156899647625,-2.9099207311786692,-37.523563080275416,-50.42990649306397,-26.586552367775862,-19.92823669538462,-20.807416959818948,-8.136572297906714,-1.9520402490848703,-9.217418535240249,-15.778914501866382,-11.89131236463474,2.876329816542725,23.860261686261488,40.0661374122062,33.276697895784935,14.114042084645126,26.240854654838586,65.78879096619252,82.16135268755696,69.49288139038492,42.737519179230866,-9.711338752072798,-61.982898929150394,-68.67444484230326,-54.10399951287113,-54.13617101379444,-52.186446239842624,-44.81087787833378,-46.51040299789733,-40.560335121382735,-21.780746533534646,-13.571678072016308,-12.86490919236449,-5.06891700826475,0.17167760269522603,1.062266352413733,7.076531802937636,9.589540137608394,5.617633404385979,8.720313646623067,12.135414053869185,1.5996795778072528,-9.409973902622282,-8.442183872006739,-5.504068907351861,-4.580167121284938,-2.625312077504188,-4.397164511725932,-8.153441164707516,-7.9469180137161395,-7.4621865386786,-6.088928972920499,0.11993415006468666,2.712077484024486,-1.9790409077218083,-3.9449782051275655,-1.0937675135129645,2.638159104559209,8.49066549345965,11.865835844437276,8.074453095857363,5.707486245438279,8.890968751537361,12.564212895102283,19.798000855283973,22.533557771893747,-4.743942191082851,-47.56121412931024,-55.12646138556055,-26.93889132410687,0.2849586145739118,27.57407431697207,51.37616911306429,36.12396930985552,1.2621227661410201,1.3080126036375201,22.889040683725128,29.52830796365244,23.39208946896815,-3.8629470597330133,-57.04350995597691,-88.52495221922419,-73.78571502103169,-62.76238493757586,-79.83404953459251,-91.43169786675288,-112.24122252368919,-160.70648126727644,-161.08495339843347,-81.02078334286475,115.15407691052619,577.4081307115921,992.7916475344834,610.3482188637433,-306.1132788632864,-577.7176055786264,-174.71985625796316,-41.532608746474594,-193.45436930816314,-135.54567251181706,-36.19633779467087,-75.57549881797968,-55.230619851189516,6.348360504679917,-11.182959099209633,-28.213984109218487,-16.387691980764536,-16.50196436084368,-5.427235369333875,5.224208701845747,-6.8631025503634255,-12.88941831300287,-13.231154241615272,-17.53733179912545,-8.362432810448686,-0.45556090844399755,-9.458322486314746,-10.142978923830352,1.8400959011063636,9.752873763041823,21.86669947351155,40.71843231141216,53.46648500281269,67.2019653077351,84.46572810177909,81.70844978538466,53.63157817195923,22.20641081721616,-2.1657653329611124,-18.880860237782777,-21.865662251116483,-19.465686006631135,-32.32020223985166,-53.71999016045094,-53.78283723790277,-31.010483506224606,-14.4583202801627,-15.818960023262907,-23.60692306485207,-28.012996746823987,-21.405925143796217,-5.574936194284452,3.896935466662826,6.3199328319395285,9.789748728048114,6.105290202855363,0.4284506459016817,9.83994021680903,22.168919137039214,26.774878262114807,28.82532412181551,10.494629733114943,-22.609163265103355,-24.03523693477217,-1.4456321961782503,6.233853545836324,10.712960818459647,10.526245888580743,-19.221520424958715,-42.885037602765024,-26.964732490735777,-6.693359640835058,-2.2669174031424726,0.5341655649152743,-1.4679869984729201,-5.936793462463576,1.5003190762754008,15.090854659772571,20.23202934632986,7.253516615092436,-18.409266142240224,-28.459464897923706,-15.510395748759088,-4.689501458174169,-0.8541414393115367,4.170407662389626,-1.117171666144385,-15.4810638769769,-16.322251487651922,-0.2290189500589097,19.196542625451535,36.93372356999779,46.29745212515383,31.07854938960987,-4.472293413261587,-24.948426352496938,-15.30186472411163,-7.049981791753881,-18.689025789973755,-30.248406373766205,-39.17137825690038,-55.79697066152296,-61.43706945201208,-57.83008175085443,-72.60418984313804,-85.20487591427062,-82.0241861417406,-96.72345056735568,-114.71061881235039,-88.25204499361926,92.7970611640292,567.6258261092688,960.3538805633783,552.4055143468688,-337.1575343591619,-583.886795639612,-199.34841364429252,-62.52840885621238,-169.58606572461133,-93.86599334566233,-17.19858900748865,-74.94822705353944,-57.91301911974408,4.039227839322026,-3.320334004501575,3.2409803998059594,28.132130528839955,10.651122459728661,1.4310155014754784,18.183433094184142,20.730420908828957,23.68348589314124,24.22701206922904,-11.334871317972834,-45.22570665248917,-33.17910311976031,-9.589749077046333,1.8507271373841476,17.35737490607568,18.830369124971565,1.6779710590877848,15.671252973223762,57.42566740668934,70.21876709690225,59.830246530189314,56.71604809916515,43.199690188365395,13.460958549256265,-9.233088928956949,-22.611844234338335,-31.129730925765585,-36.20122487793043,-50.955596930857624,-66.5612169930835,-56.18690102896605,-30.508253971839423,-16.361383472114554,-10.698934371811708,-7.988889604448392,-13.881720896489597,-16.97956052606203,-6.230827002593038,4.5628994574965756,7.53466047907656,10.85011703970521,12.084336593583762,10.599027512394741,15.977596172223244,18.852437527169144,11.082388619007459,11.83302319793609,21.27395631338397,20.862194678817033,20.791486858807943,19.380529037731115,-9.593109025839453,-39.63776744370429,-28.74336053120636,-6.594185286561485,-7.150624395125769,-10.857873744753427,-9.998310289434599,-17.118958720670186,-23.171519525580525,-21.65910158927341,-20.737205404448513,-18.681206717534046,-14.19693287570951,-12.807095817069275,-10.637803451832552,-5.553269164125187,-6.777433287544479,-16.352068243830967,-25.494567869675624,-27.40227615238254,-16.6461055733963,10.556575765180575,41.344018217438375,49.312923090755774,29.06688037411028,6.988337581693674,4.926373767621396,15.834373572618302,17.742806763419164,-3.101439651662014,-36.19462215830647,-56.09724652255954,-60.241891202168595,-72.4735107906815,-90.2351491277266,-94.93682323500228,-120.6742155650224,-176.19887226711975,-178.48167742463758,-101.00750141452119,102.87485860864456,580.3077826758624,985.3931613250334,582.8722871657787,-317.62507681717375,-565.3922199629436,-168.82505581146472,-36.45547542874557,-170.54825553463576,-115.18276502007464,-32.41299510105934,-72.69673163980808,-48.977366758596816,9.119139288155736,-6.459673135919857,-12.354176057295836,8.838382494974859,5.529433308042854,8.83528789828302,24.310377314359357,21.106062834012135,14.012355678818022,13.540408241593362,12.130090609018765,11.60748498162416,-3.124164581634444,-35.76018090585857,-47.54584554618062,-26.900828885714624,-7.707379565966335,4.840447887361115,29.019422472131197,54.72717228922614,70.47108882234348,81.68412919715904,79.60150067194341,56.47603423536246,25.535319192471597,-5.379613781156876,-32.09530665015946,-43.33109378271252,-42.8309024212452,-40.83946493930367,-36.27582814784081,-34.367538299507444,-36.96258670312426,-29.143961147429124,-13.970606718648783,-9.265895431531465,-7.794367950873554,1.9020730392617398,10.608830372142586,16.921772215461896,29.316577616023025,39.19205358253764,34.034767636942675,18.614480737007618,2.290676217914119,-7.659558283808285,-3.2751043687430297,1.8478110108794539,-18.83242769275308,-46.79746642980823,-41.10896724852479,-17.006368500378976,-5.707658584342276,2.0879899671787534,-2.503436108446458,-36.74511040797516,-56.450937936422015,-34.271377892847,-14.940294196748795,-13.727544694917245,-8.555421175283769,-11.838517754160534,-24.928441136437343,-19.79573382998883,-4.255862249197028,1.9785008944277163,6.580516304656594,7.9269686638514365,0.8060394845460053,-0.629736672392081,3.789346483159086,1.704300043183399,0.03698422693849235,6.310674137808265,13.826821961371774,23.32272302865435,38.50265717059539,40.70389142552815,10.267540361375888,-28.31280944149031,-39.34055111371704,-37.071078604910355,-42.07364520047274,-41.64840843393189,-42.13319885350373,-55.929626191300216,-68.31522370508614,-83.86573584913232,-101.98964335240696,-102.4527707895385,-111.00393124481663,-129.36205242515436,-96.93885928931289,61.25360796775371,468.6424700209462,927.7262021122601,739.1768442062073,-118.9753906642664,-565.0103267755987,-241.2286254383931,-16.2386469633814,-151.3811757437869,-139.76629613331855,-22.175785222164777,-54.859019654533,-64.1430638052449,7.094744013576909,6.001245742434666,-19.738734131970595,-3.8845252161691626,-2.053475412049343,-6.69436793885413,3.6712200248405717,-0.6452066028402381,-10.665263109770343,-8.884358693820209,-10.417737207006155,-11.15126556964055,-0.5468984379597917,6.730471766790048,5.92663004890542,12.075533221733258,27.176073304633448,45.09259576837137,71.17325516969312,93.65244126408948,81.35691997473435,49.39271072818527,43.533674031769294,49.688501444565524,31.277985276169503,5.9531267470747515,-17.32278587083367,-60.706748941732464,-92.01582971207483,-69.34232933961621,-33.624084733360604,-24.193440242456283,-15.825887100495716,-7.368509233771178,-20.870662722075032,-27.394098375358347,-9.013329529014815,-6.4923532102808394,-28.862083317365283,-39.22438042981247,-34.42036289770424,-31.315314526340337,-23.833215997417334,-9.822908628111833,-0.8246056361430476,-1.5022185193381965,-9.417510069914709,-15.10414218868185,-9.387452281494632,0.26396235449795924,3.188001613825108,0.8177413786914212,-4.379373015411179,-10.345743965924605,-10.021279266948994,-2.4998187565256895,3.214296981772481,2.642038854980081,-0.11297165238078222,-3.6060573491620893,-6.905248523141182,-2.6528392956385707,6.4220052265148695,7.240471651676755,4.220891701161572,5.036963742908831,-1.8443967539570707,-12.512181694318919,-8.194921748590144,-1.806385787866958,-10.538684138812263,-19.552559344537976,-20.84179196423835,-18.979622029037376,-3.5798592815351635,23.67732171426871,39.045668105608435,32.51383914920595,14.313534179618562,0.42736791529731244,-3.6654818288749107,-9.239888938188844,-19.681071646311306,-29.499649650277238,-40.28201213304384,-50.12028556915268,-63.258523133926595,-81.70087321520026,-87.31511024036884,-90.79553225716725,-105.07959311537931,-97.33304598699192,-28.195443480063744,242.38523803839647,746.0890009615931,890.304014060305,205.86550067235885,-508.48588727064964,-402.98625696099356,-48.917748449200175,-95.28605288001104,-161.73689273087615,-37.918526301601595,-31.851755812601937,-93.48239264658908,-45.214927264612356,-10.566964594206784,-23.723278519510757,3.7450242045122497,30.867823940745172,23.301392282662665,4.881230284976519,-25.860562419293938,-40.123451830870636,-19.87001768746469,-8.724444531286148,-13.95226450793828,-12.872119914538667,-16.781358696697193,-20.660174324891205,-4.11137324883896,17.88180938050404,32.59342481349431,48.96798363682322,63.6504114633065,71.46994901755855,77.12113570889491,79.73458105635055,74.81615408742682,51.45786822497296,1.2180117655266995,-48.556978575167484,-62.943239278934136,-54.10011023414303,-48.16673870285935,-40.598701881140656,-27.91984912282532,-24.118995905225304,-26.203167269636666,-19.935758783146582,-14.158308422722204,-19.71775620371317,-21.92641993841829,-14.556554012983089,-13.202682369916221,-15.439794836986053,-8.978805751808197,-4.355993407749816,-6.444346252517056,-3.070005758375647,-0.24346527307642596,-5.63585855284548,-5.215574613392619,0.9725279481351734,0.10999240626721907,0.8688707767139938,8.362511883319385,10.54357834571929,10.746665650964752,15.98020199755016,19.383696655209697,22.46808931532845,21.2042276400715,-3.0161052584168218,-35.08099199611968,-38.3899507319756,-18.59856472623671,-4.099638955391523,-2.9712325741078303,-15.575296253234828,-32.93693905620029,-32.80321586308436,-17.146047163954577,-7.756846229606886,-2.3412076531808985,2.8169492017366267,-14.705868944323761,-47.86707334378416,-47.84652873158563,-7.307511920647649,27.547472983107188,31.444511882660393,15.332786800411785,-5.359035478240564,-18.5732104732222,-20.140244922874675,-18.8825226507358,-25.185882800966617,-36.29450578080918,-48.430364075890814,-71.33347214566895,-90.98550419428176,-83.85668730296071,-87.1818012641169,-118.87221636462301,-118.66356561374204,-22.02531406653452,300.2741156720559,796.6583723831016,833.6267719474415,84.42726574652903,-547.5867402782504,-358.1324507301541,-29.052436369467106,-103.56828457015307,-150.98905497338473,-27.07970988634161,-27.498662907828063,-70.41069754834638,-18.467911216539726,-0.7762792808024983,-17.50794272247602,8.65518650381805,18.54620279637269,0.6742540086070115,1.2638671311891256,0.15668741400248942,-7.530904972195998,-1.093221557955721,0.40270986406197284,-7.809341825376705,-6.13491820153989,-2.975313264495111,-3.0983576219898428,10.183216685523782,27.65923303968103,29.90592014954514,31.291297295340055,48.51533886437348,72.61880203892974,93.95548518999867,106.31175593074633,102.09386755080828,81.2925586365482,35.01088306570387,-39.653925939151115,-96.67699475952443,-99.01550826978959,-79.5426332810487,-64.56017324499341,-42.06252669779248,-31.78519342449033,-50.60503359165115,-56.94913525044176,-31.992874974625323,-9.075322693999329,3.499302913715834,13.706735807895921,7.705537068068619,-9.178729638028496,-14.202497405630979,-11.962456119332927,-10.16645557275891,-1.5983701493434843,4.168825157395986,-2.247536830746636,-4.111389308355221,0.7391199512928424,-6.545475925244528,-17.790649781148925,-17.314007344328957,-19.724183845746317,-28.91914047044177,-24.925520048533027,-12.077647027459232,-6.681898784750704,-4.018736485002357,-3.8278462443649595,-10.921012226580096,-12.29673364992577,-3.7129149254809644,2.367229083936582,5.285659574677167,4.913317977732422,-4.582510690575797,-10.735890464604598,-3.472370607781804,1.8226626022563277,-3.847148437725428,-12.686358617291022,-21.239550267192307,-22.884791452139282,-5.038709619107939,26.249588396460446,45.63496690722371,38.99579824911339,18.097386873039852,0.5765820418133205,-6.438318507214375,-5.9386503319349,-17.60916143769387,-49.19440089206776,-67.79676904710134,-68.09129423314678,-81.76165239656953,-89.75527990733536,-80.92008159640537,-92.3875823660256,-100.87271825745668,-59.67780639347483,123.31552068073583,573.9410188907685,908.9369105431184,456.98070928648605,-372.64083993217525,-504.38758001881996,-109.47302693677373,-54.3727724039461,-196.21248649192387,-105.27084827421177,-25.05817483163611,-74.67679735402363,-43.37219261871865,7.0850462521776905,-20.181919471822024,-17.09384598712217,13.65539615853841,8.906754406646476,11.65711949018215,22.285490754589578,7.3970963400512435,-2.2649176913780256,-1.9020797491037023,-16.59768104569618,-22.795178333481214,-8.794838039111518,-8.019687058664823,-19.248169686284246,-10.592650880480608,12.194793178289324,30.67096330225681,51.35252630103845,67.76213422290388,63.787806740301804,58.509069634789924,65.56288692282847,57.19947402882494,27.073374902413025,1.462941216257271,-21.00889486541228,-49.45358957982154,-64.29930541848428,-58.75700553905813,-47.80207413732995,-34.9512612100941,-25.560357603003734,-26.363964258379333,-20.793726950277836,-1.5349845741614407,13.376785849640928,22.605947153353814,31.856306533194306,28.14156421094725,13.715286912078003,2.854693085762179,-10.620711053900363,-23.21430684444192,-19.635830508904636,-14.921774632562256,-20.353910651941693,-15.07223704490175,0.7990822601870882,8.157888928549088,9.756059808769649,0.6397242252606503,-29.40984600496642,-48.04161661204884,-30.251964951867073,-11.538714685432137,-15.01581027822363,-14.35644678449989,-4.620387167776286,-5.154570790740664,-3.5135766674057827,10.871921586417768,16.119855120585637,14.611781121126503,22.04768552121282,11.606949514123098,-23.050267930781615,-35.29895750901662,-20.18948374607676,-8.922977255815239,6.7978246832463345,27.658719200618464,24.05711038308128,1.157336433365419,-18.862694389545346,-33.94915725992381,-37.005231605948694,-29.305096041100757,-34.08935617021241,-53.03773159819194,-62.969625941175984,-63.6422615547486,-74.14922982449004,-83.83713326601604,-82.24452933379449,-100.6290272410602,-125.98918363953797,-101.09013002905333,20.05099997849402,367.7115436478808,839.8503481644602,769.8924055923343,-34.61966065920598,-580.153865531995,-317.357726519886,-19.580991096825905,-105.92650439518127,-122.28431943466558,-16.38109310020883,-44.434159210960566,-65.45671324521774,3.5126640102497717,13.382765857913832,-0.9637465307169428,24.554062209951297,15.769336322880866,-15.040381437015789,-11.2517312996205,-2.6579776110573716,-4.730578587108209,-3.9755685969802217,-10.287313769287874,-15.698966582483841,-5.466358252842143,6.129087808572347,14.858926610267337,27.584706424321077,26.476997438068913,7.091886787409409,4.918871684835171,32.66569521799801,59.129326072108896,68.44529057171924,68.76080119164499,56.57963585126303,29.977148458215254,3.5696224011475524,-15.664714712111536,-30.54831209516654,-39.38818529964072,-44.339175062224534,-45.42062563954819,-30.957418412467604,-10.703606065839292,-13.316321027067817,-24.301313982334744,-9.97295486651198,7.3630370263073655,-0.6171734910603348,-7.243858791026895,3.54472439185816,12.64384763824641,18.147126986292502,20.41891996095934,10.791727914782744,4.60271700337117,10.347869095682267,11.830676272492852,9.334271350326514,0.6850971261996328,-27.960214503603023,-51.137041505404774,-43.26857950323323,-31.220945950665513,-27.229738882673217,-12.995631983590616,-4.883077828016702,-20.224796626841446,-30.010243720704413,-18.964720547616743,-9.620650145232318,-9.094273396329779,-9.785871944101903,-17.625826348502624,-28.0012849834359,-20.817825987332352,4.293040221405988,33.406476029180226,52.69939148291476,39.53545851562149,-2.184807198852596,-27.530469096062234,-23.65085185205443,-23.415167461266563,-35.682401236494485,-44.24324174895213,-53.246785232271876,-74.88483982613573,-90.85556531412198,-82.56442300367948,-80.68858202186169,-95.001527805222,-89.11489313326054,-44.647880922805925,183.46565740033716,695.7050938823636,928.0740592080783,289.1480506987838,-517.4867309844083,-506.214207376329,-115.08923418614364,-92.28939413619804,-152.4835448951655,-28.340682596295558,-4.877237790755061,-64.93089455639577,-19.46514608211905,13.086873474345367,-10.87463808625678,12.310177678665994,34.098934091911275,9.551897659997097,-5.506628836565447,-9.65457246644728,-13.299047657414825,-1.832085124582646,1.0023866448257324,-8.701485682060664,-4.238964248093228,3.0302831462783146,5.007093289921144,16.902812911564165,29.722190995065123,39.64374096958887,53.42443566069952,49.01277505686762,32.291129933868326,45.99198109365292,71.11203960347252,60.93796480058816,32.09640930376462,7.592898353382559,-18.712234683150378,-34.367174630400086,-35.886269210074275,-39.45959185297007,-31.411871682599006,-13.14664745313887,-25.028631804556497,-53.78216256358251,-50.26434544150754,-26.815665956676114,-12.868008399841793,-3.1689427365534684,-3.255159390675974,-17.053246678506575,-18.21284332334925,-1.7886000396434323,7.2789025901960525,3.4854410967673584,-1.56620533524492,-2.5607512312673233,0.17181660320055947,3.5209654125917615,7.403986619706954,14.592584654474985,22.36532409118824,25.923666021132053,21.069645845452957,5.376669938399685,-12.15766724234184,-17.970127353367715,-13.19961981643135,-13.196429927397272,-26.566156008865956,-38.24771713655616,-30.637871845773,-16.545430304552298,-16.094828312153513,-23.126476504927428,-26.218900839412463,-21.65517393970824,-0.012745917070482449,34.1348179100076,50.60403746697149,33.227399095489595,-1.1585725440739019,-29.58062135184661,-39.39910858785536,-35.75149941997127,-41.647954784836486,-58.04484306416771,-63.877401768345266,-73.40282631008495,-97.95636516259515,-106.56038283328563,-107.3165044092856,-118.55890337888643,-105.03963029110744,-22.47750542840751,278.3680021438075,814.6391594754006,941.6501180904592,192.05159241534076,-550.5181353032277,-415.21852128350747,-52.8327561533052,-126.91702970977262,-191.13510536778517,-37.96563125970913,-18.71980262778709,-64.73206088240856,3.818230737684983,14.71106528219417,-46.819144620446,-30.40517272794051,5.27752119752218,-5.770298146206134,-10.323445389949127,-12.301439372429773,-25.521773617317734,-19.386119138214738,-10.584066663543702,-19.815896080182963,-17.915067049134855,-2.2223168018952446,2.480947823189547,5.11795081161649,18.57381771043168,33.58014151816815,50.3375797445141,72.03893468326827,88.06092493148677,91.00494732157509,75.88279982490606,41.64494612741087,8.106763228898824,-9.679484315706404,-24.997343034052896,-48.061067390152935,-67.36099766590449,-70.37988563445444,-58.422207371314286,-40.77919670643548,-22.625451960136463,-9.618067307357604,-10.11278599326145,-12.94400610917124,-1.497997038192806,8.68765817961414,1.548845086889738,-7.57811012709548,-10.52747396171843,-13.5672182053064,-11.297833587232525,-3.351843643571728,3.7780474053626047,13.031497868561809,16.439389731723097,5.05822510139706,-0.7381547739435375,11.31642526732167,20.50620050127875,15.038714251958982,2.401212094056136,-11.64517981491172,-19.19421151500712,-14.554356815307084,-3.841619841714964,6.847140711499874,12.522187688010181,7.900866393494873,4.405638335818715,15.888576733318835,25.234842120830272,15.312431290580651,9.426332784202607,19.425555350973774,14.156341869837549,-4.278507606952777,1.15095095106828,10.735812481477,-10.41255487778993,-32.419236919145725,-38.4651295072266,-62.18994449659363,-94.04388724047598,-93.73404486380349,-82.7375425415018,-97.7908139114429,-110.19744137708672,-102.40866050850099,-116.48675878198333,-138.7663504262994,-114.9782531840259,-2.9519414169056404,360.3434988624855,904.7428534183895,905.0871623139251,66.23945968547193,-594.6085079920249,-393.7134442488828,-75.66758424549101,-146.22971860637625,-166.19749754895804,-41.754545710564045,-50.751436694632474,-77.63148060885105,-11.079228721301028,9.063425366530563,-5.126720750861324,14.886611436276931,16.55645371229837,3.241353074705126,4.8146469770241165,-4.541834470648438,-12.856456905856357,-6.343676639488088,-14.813536895032279,-28.024025083520385,-19.03389243717928,-5.680724250751938,1.2712607253671724,10.818084760491779,15.292855989012525,17.398981738056214,34.30658674052396,57.63360780698113,74.3128624087831,87.77105126838019,85.8104429246917,56.47327425467603,20.957175144531327,-4.397778402734467,-25.225919170708302,-39.224123722155184,-47.352669914469004,-57.21259957747999,-55.31884295024332,-35.04219098836744,-18.547455309880345,-10.702943167142864,0.48460344275291156,5.998543331709328,4.483625323804114,12.033586745960683,17.714476187369698,9.737299227307624,10.129872598805614,14.388450449584862,-8.55039852601184,-32.409556173379784,-17.74502954538486,3.8786959337618763,5.444489481385698,9.92662851718416,6.343079817378605,-23.608153332504425,-33.58060531643588,-5.621737346428773,9.26128211505599,3.580533847348603,8.135923323506288,14.862185697168195,16.864896480084056,17.40567333558118,-5.412224559076897,-37.894247607866326,-35.48866507493746,-19.596373364667613,-28.295440572308507,-36.73155142444405,-26.908035442842305,-14.82779063515847,4.7865220198372995,36.25640485965993,57.18350713146976,52.423212830841095,25.48262162931404,-4.654126678288577,-17.867477775925106,-23.572130995822576,-41.517305768125155,-65.50321652412326,-77.69929204606974,-81.8402088120118,-97.12453787086588,-110.4000907079555,-105.34199783309963,-120.49250914581691,-152.74531490714344,-131.65469901737492,11.804101731190173,414.21455743370154,934.3416006009504,840.6864419781938,-36.42818352416931,-602.0576302832958,-308.6904521242843,-17.821224332605354,-136.9539432481492,-150.8899008632124,-30.220667090546627,-61.898434162482886,-83.54997646688118,-6.179340729983458,7.119788340305014,-8.524242557655711,16.69017594553369,14.903173953868041,-6.081628005574387,-5.988965359654174,-7.748528964550701,-9.429307907347035,-6.717608628230147,-18.364411374753068,-27.59725996222245,-18.202748372577858,-7.354444597231486,0.2555504965741928,10.51871198906207,18.07280648319222,26.477638590635188,48.36793673488911,78.70598966057918,102.02228311052289,116.60683420350847,113.06942217715292,67.66378776720832,5.7423105781617885,-18.503769282099668,-26.663040503681685,-60.43088093911075,-82.18610291421749,-72.53623196200115,-74.38792609409968,-76.42054342021827,-45.93456622164782,-18.90004207918161,-12.852076057320005,-0.1357273766482976,4.456605310536833,-13.855619597838384,-22.31089486940237,-14.880351484254918,-11.329706644030114,-6.055741759765128,-1.019465147853328,-6.660070255707817,-8.044911574667456,-1.2025124392752993,-0.8445505489670264,0.22622782377676565,7.361372365002844,5.504212657527253,-2.493619201163841,-3.625284811138724,-2.7520795917418814,-1.5933116179521694,4.503253763911269,6.998074695322201,1.0486825229152004,-2.681660340277495,0.8059246511532492,6.14865599724744,11.82505045180682,17.450533534764038,13.374748848666236,-6.463179261701605,-26.500984762139215,-29.26509830882173,-19.02447761622515,-1.8905179357480657,23.369741165241678,41.462627990919245,32.843395385706955,8.882240281730065,-0.1595136366239771,10.644894081254677,12.180735070625083,-8.352169477577316,-28.291661541612847,-44.04682853548847,-66.36705273451662,-79.57056356513677,-87.00206043558084,-106.25646404699799,-120.53391238771115,-130.4578043365132,-141.51565269781656,-116.84895315132398,9.545047898978567,383.7535924945788,905.0659726702929,884.6087368682447,71.57494211715631,-543.1599887964863,-327.2679151280038,-32.99794796953388,-146.09115303182105,-208.7928825194357,-98.56570370657475,-83.27643073121968,-88.64399492242188,-27.85100928211198,-10.865029183839546,-15.821896008540005,4.653149369195697,3.494491374688554,-1.0504857641644776,17.557768267942865,23.284256221278127,6.022047431737278,-21.082790153609714,-40.31468667181583,-31.791996577876333,-19.718015912808056,-24.80408744692333,-19.462991823568537,-2.0348833759222646,5.411650274442312,15.460919689454645,35.56912542583063,52.58561732040087,70.27802275777611,85.3042637234978,79.46834454617425,56.598245665879105,26.228398212288727,-9.737244442329382,-34.58161431503442,-41.67978615024086,-48.06927841038008,-51.5445956139523,-41.117806099847506,-31.41845133110079,-26.922968855774357,-12.873322727451383,-1.496359993120274,-9.174764441950403,-15.592778675699318,-9.069867436701951,-6.578568199795758,-4.206351960085404,8.511020195039045,9.625000087995558,-6.971838156071906,-12.117865709611786,-2.7320170836354967,3.402636690497091,10.576637911240066,15.276363749189365,2.744214113780257,-8.249088182575708,1.1561693287147818,9.974557383482367,8.475191304654782,13.560304429570769,18.491127173901173,9.746342325248492,8.64135023513008,27.967801089177122,35.38932975229759,7.89703770285666,-28.744165694006252,-42.5173141109779,-32.867270546484214,-14.832701254073442,0.6694539195369273,6.888385038062453,0.6591169079407706,-12.421043888234596,-16.0910643462045,-1.8521244305652784,13.60937708031176,20.15322704969955,34.76291307432827,46.81682411436327,18.472874070855003,-25.190348621698863,-25.82874662247538,-4.586298963412911,-11.078338167814586,-27.798890024868957,-36.83126908536469,-61.78262799929442,-85.22659304186863,-75.14038822682853,-71.53698402163451,-96.11928689007054,-106.43252053028476,-119.36145248719706,-152.9722788424803,-139.11890486857254,-43.212609204415756,232.95233158894774,753.4459676316071,965.8104696578459,308.1610216321275,-492.87588863324214,-464.72909777711686,-79.80631260897717,-85.94218647050401,-174.58930269551848,-67.09850347238871,-42.66891111065323,-92.41089543560318,-41.38560082985347,-0.8341548523761908,-17.369653098629993,-3.8795250933306438,10.169702868800966,1.6217630864390262,6.6714110757530936,6.5892966493514695,-7.610305668771963,-7.598998991444946,-0.8805973158816924,-5.792489716693595,-13.889886133432595,-11.189753944870226,3.4016569165853117,16.60064823039957,21.99526320605846,29.096396018800757,42.44371644537428,62.248216105358445,86.1201574451954,95.32259288893614,78.93703782354791,52.37908267730808,25.341709440804955,-2.8171245751352982,-21.230743848436255,-29.11510051806325,-46.5242119992616,-72.09208026538558,-75.70169714797603,-50.362609141852374,-23.488641178827923,-6.6775914997119,9.30988975725036,9.247946709142708,-19.103685397731645,-36.1679540909808,-18.553621419470836,-4.6962703138634865,-6.25129721718301,2.2016342906085544,1.6263122008682735,-21.207660025618615,-21.4339880770443,5.185909571258579,12.038865836567542,3.2060071676652235,1.1468006805336692,-8.60518003653105,-14.314141068624787,9.69191227255703,27.860624672939622,6.887243396126944,-17.384682798213532,-18.24196210908145,-17.543821220361473,-16.160021967588627,7.344366001296317,30.552478244243765,16.09516219362499,-11.892594136471493,-8.827120728092495,5.835385721116175,-6.7723938017600105,-25.211079998699304,-16.168225608521325,1.0943517442849728,4.946076630181112,9.9152376706032,14.833772464631156,-0.004386692253397939,-19.028723379493286,-23.803777904596394,-31.407022469481895,-41.532227756288336,-43.37553371033218,-56.10974144714096,-71.04759411474784,-63.32506724385314,-63.59773960191187,-93.87542896855683,-127.46393101845614,-142.44534921543902,-127.6991525894912,-36.914991022063106,295.92957850277185,861.8040748888943,993.4060662675645,218.06659828033628,-571.488412560357,-462.17157091378795,-89.26948763625472,-149.6866154784996,-210.5171627432901,-58.72327742430347,-44.86331074458957,-87.42091914156603,-4.7887589997540765,17.82615663398362,-30.99874706614189,-3.470337051363561,28.84431266044168,11.299930768045986,13.828668576899647,26.862754386016267,18.91086502796609,8.267498487182332,-7.351899307394548,-24.46098560974177,-21.03801187826221,-7.132617019185758,-0.963846189992084,-3.876404174622574,-11.71059294498977,-1.4209771552142243,39.75649022043925,79.88487148165115,106.73295734526891,134.9754568573247,124.8757463601794,54.86342876543593,3.009840736381367,-4.201637302056738,-37.047209657044824,-85.94638726539164,-89.38492151722521,-74.90571889336064,-74.10615666632793,-62.820134970918446,-46.27452178318289,-36.130546494674235,-17.500823052928105,-6.827063837013746,-14.84693639481007,-9.97474538034148,3.3878720334443937,-3.0511440786565736,-13.47360543865841,-12.395414642184932,-3.0829753311391155,20.717205788866995,33.463220029109856,8.779529705062604,-2.8804381369810663,26.014030841819267,31.568876319661058,3.263102116651112,1.4672120441954546,9.628565283401063,-9.928355988905661,-5.621728895582749,32.72649493986613,25.9602969965757,-13.055223181621681,-8.354019674307658,0.49680965085303086,-26.756247045465994,-20.917071269197287,11.5668176049432,-8.366356093752081,-38.30895432907394,-26.057120872357338,-28.65609498043663,-46.298133081880664,-19.05094303545461,27.534165336543783,44.20398667727163,22.529095686042726,-27.11278596406584,-46.56855076796319,-13.265552708897527,-5.092042529430797,-31.970059796891803,-27.932565906129746,-28.520514567021205,-78.1665000938872,-114.39303646821836,-106.73182886946122,-98.37846951216012,-116.10556428505183,-142.2048280210014,-132.56606715272608,-59.82142944853122,201.53911080497613,775.5140535981612,1134.2664475729296,525.6862368780947,-460.5473526392395,-575.8132266251623,-99.13625991255755,-48.031688470003736,-233.53054032812344,-150.98174271912768,-69.13418412812472,-124.63307123743927,-86.18747878681677,-19.55915494661862,-34.80399186127238,-19.017570726341088,17.61370068765534,-4.874446515003399,-19.481518491914315,9.874821924180868,17.907534917724824,-10.695516541604963,-28.614530399273452,-8.333267242276719,19.13700380495105,6.078420698409045,-19.379854258339556,-0.2347848293560073,26.691716680960216,17.767117295152858,25.191218324667034,62.46047271726963,72.02566098692773,75.70356285517533,108.56578578201027,103.6802696899705,39.569070716126866,-10.129235971309235,-36.01253709448534,-72.69851179737289,-92.36356381590359,-74.91709531582009,-56.818147750186135,-55.41455743548787,-47.09844271857103,-18.70819410938449,6.857183078253577,2.627262284403388,-16.882600879567182,-21.455815424591922,-17.233953228821797,-14.29605366976682,5.17817128975156,33.33483037353905,31.47818799951021,4.959702717733784,-3.136793750003143,14.348991761969458,29.981756651741172,25.108792480629177,3.5716628582390717,-7.544971579501007,4.731302615837857,5.412094389430912,-16.18272034638663,-6.173158283436956,36.91799713310479,34.985618124038055,-14.930486411332174,-27.389024741619814,11.705625836860907,37.53342363541162,26.446676112661955,1.4317088409304422,-22.363732386826936,-38.24681366002619,-42.11174841801799,-32.42112397411563,-11.13057772036041,4.5824247968988345,1.3645364114729794,-9.474858714846253,-14.6336421799753,-11.041563160952244,-7.221341254895684,-23.90861813243943,-57.0213725027169,-73.82793106791998,-66.5505906969278,-62.02021135730539,-78.98883957907316,-98.9761475932667,-110.15824205014938,-140.97524229035724,-168.78068175922922,-127.24341660293703,35.4990283055032,457.63003050624366,1000.7957436536885,910.0351832063684,-1.605420317811408,-619.2361196828798,-362.31418838763113,-66.43275530726457,-146.4757582209437,-144.7606599455907,-46.29726386281817,-74.08340905603416,-74.4942025591532,-30.88071063630706,-52.704618625684645,-20.80661422614196,49.48621262644452,-0.15365472224117127,-74.0110550936405,-33.48516319784783,46.93189145730128,71.26013970778514,34.385748991319204,-17.671955977313374,-29.95446943964462,-15.064317010655786,-16.842187065896283,-17.584851063284177,7.281920551126451,32.16579404417831,41.49420649257161,52.83340621135468,69.92422796558309,81.12912433710179,92.23128747513007,106.04650573225129,87.53769827476553,17.689667308207635,-43.695681812477744,-44.14697496663024,-31.595760775836926,-52.35117303172139,-68.23793989762157,-59.03606595105877,-53.135924189891156,-50.85158795092957,-41.72247749544202,-19.79166100577295,20.36087556172785,29.594240051232894,-7.261969967418723,3.191570251058339,58.50380942718657,51.07971576272223,14.897816948427346,11.38110668570103,-26.485022336814524,-72.88917999419405,-29.27588206213516,36.35683135289631,44.42097485934446,41.183724339376234,27.90243135155364,-13.979033481305223,-32.11468350735256,-26.346185534356245,-25.27497360789553,0.3653938838726525,25.98477586208381,5.067358303860145,-12.51504444296462,-10.331326815235293,-31.341407773650083,-31.24510534723042,8.687282183491561,-3.623075783548206,-55.617050425171676,-37.690920110501715,24.84461875220127,41.44443384324198,17.363454979122494,-14.130204943555768,-34.05099149322737,-19.513794108242664,-1.5245050266688445,-22.851104931739545,-47.58191338747397,-49.184690397973064,-75.02703808644213,-123.04871092890369,-112.11168201648462,-59.74813381657634,-87.04404843845072,-155.4725408971625,-128.66138389069948,-36.2310498688645,217.06753579672633,785.6822493568509,1040.8991496528533,301.20128078151606,-566.2547739592085,-465.15205036873107,-29.134764749429642,-90.75089398876347,-200.2647584684869,-50.937601393053335,-22.212222022353544,-102.01110353032934,-63.0916329560942,-21.05311925075397,-37.144015934885985,-21.90396643478634,1.0486367083290231,3.150138540303068,12.509382027429364,26.71514595281767,32.54954973839407,16.91056333205746,-9.517156165522138,-6.900136428864631,6.135041809725026,-13.298342186439257,-32.14315169577775,-9.226089646910884,34.92299838272514,68.90422499775617,71.11387391574031,41.70536223973026,45.96328744458239,115.6244892093556,137.0990547788741,51.43750864421999,-1.848828724068749,24.622557810779227,-1.7790201552808114,-75.82930077626202,-95.09900809319348,-90.95268693966388,-91.84805032643337,-79.99377767425737,-88.00056366272102,-70.10897627259985,10.59481760006676,24.990815955209243,-29.619779615951884,-9.172150381392136,25.13639221105582,-13.279934616118322,-22.594891896370108,2.7009225426362713,-7.087086414865645,5.376253460445336,24.7264196471504,-24.329489354256722,-45.39915325945324,17.14696200848359,42.873793657258915,15.859051677102803,23.009333555808276,34.42204404577303,-5.494017865917517,-46.15411171716514,-19.45500216306311,46.50720867422666,48.96889199936709,-11.785421251107689,-11.00449017150006,32.359576323307124,-14.577135536558735,-86.06583156453377,-59.845358999601466,-6.264492938855335,17.931623372809216,35.04686091330764,5.091926856885795,-18.360434229015564,58.80881020291321,90.97059403797945,-3.01635864887872,-19.665056002881514,30.236863410302107,-64.25210862516953,-168.0031669986417,-98.80224333238463,-37.73958783467769,-84.24570918156058,-128.041898406695,-169.40073991643033,-173.2072311007544,-83.54353438771973,64.09382870849635,464.14619511063097,1003.8535010978298,797.3968662434747,-171.95325536529214,-581.0908828228786,-181.79792793866207,-22.14017897656107,-185.37892098529602,-118.82144141158034,-40.70295098647952,-133.63612496852008,-96.9029883033238,14.233826484551049,-20.404971012170627,-69.91259676052542,-30.409350125638678,-2.981661289559419,-25.92236923462314,-32.343831515886265,16.415030211991187,45.77906590142214,-8.79730694179067,-50.109901462069544,-14.21013558340238,-3.1662681724888238,-42.81669218730416,-38.69106845045855,8.223969704497907,30.857576324800853,28.85912984520838,31.924837386986425,59.36542678816281,102.96782841108723,105.08367105239881,56.96567941496648,35.63191952719875,44.36286306553021,9.053285598290138,-55.08078942950811,-84.97323959039113,-81.05883908955617,-61.717649722134695,-42.90164477713607,-38.57613461599762,-24.98117836881931,-5.717757472309938,-25.237657021264837,-49.12318653212796,-12.237027905130432,40.53111327212743,39.36288753442088,12.213706583297057,1.8288393868262585,-7.114054492739452,-15.737136214920199,-4.772852296198944,4.994543282110941,6.502088213143862,19.273637621550115,13.482410565710676,-13.164232409362679,-5.416222844904557,8.003320282424543,-6.36454327064462,12.235057485054934,35.28437864601562,-2.6319895358057543,-14.625749372485076,22.401781775126,3.30926903129915,-22.390435548111782,29.867958910987397,54.679466059388346,4.33110185870175,-11.704206490895785,9.320229155917579,-9.218483239867748,-15.261780888142043,36.1020493756046,33.23064410732912,-58.22591932994635,-85.16003222477006,-9.155733072989078,30.16557137591166,4.227280702880252,-22.621029797163057,-73.72015494168794,-137.4549161466106,-129.41780720994643,-98.53095482580754,-144.28482866734603,-182.6221350093394,-131.4641358170319,-36.83601019723223,260.1606669588728,821.6073636157885,939.6533254928222,158.11779253303098,-543.4378078001453,-353.70011476840386,-29.256869403311093,-157.26375798202773,-201.24864190712066,-16.690586231802385,-21.448864871564055,-112.31246904137643,-47.09761750735318,6.612153732765314,-29.017829858399104,-27.47414360680719,7.978325671235547,9.341196680421344,-22.61010502544714,-42.66137335905223,-4.731762314423348,46.566986950440366,28.41571001140968,-20.708502070828157,-21.226890297939626,3.5123799384507124,6.7557056431251725,-1.3255759905047384,-4.825216913918213,1.1049932521576231,25.349247370676732,59.55369441278642,83.1310357859803,87.60326309093969,74.70295915950138,55.69703621220591,41.78640303562511,23.20302228482931,-13.94093934050589,-59.503853515271466,-85.65634843224662,-70.99827138795341,-27.824412768313856,-2.1837847630750264,-17.253493370930507,-32.33382493828892,-8.749214510227734,12.602714597109712,-7.743046982038296,-17.243652055265514,5.338019431167407,-9.242971022566218,-39.805300698886,4.822698574697965,63.42082584352927,29.551748253073093,-31.95850188115262,-33.93315036976048,-21.4364076212755,-27.039480980277247,-5.203621715101932,29.937602818621173,15.842895327703772,-14.029128916765366,-6.2039377903807775,-13.309126695589397,-34.81753604044351,22.69707254442327,90.65432353385124,40.00793749655243,-32.45698177386778,-35.1310057041979,-56.080734341621046,-76.63087303782073,-16.410670869046317,31.307119060986807,22.7550467552055,36.37443711384251,26.51722922025859,-36.5826527004362,-35.446978149969276,14.900865995908717,-9.926263964297018,-68.056237647917,-66.15129246020828,-39.49396014656281,-51.914713431945486,-93.55122649087231,-112.07915575100604,-101.68828781728739,-101.1280662969627,-104.85883954836308,-38.11809625808094,269.39144131480043,804.7258993992482,926.4033610133672,178.31830435737,-581.4878957649485,-454.16879526494847,-40.236966617807866,-65.41424132863334,-160.87433081658267,-61.907908709883266,-45.979610123303544,-82.17304403098429,-30.908015914445155,-21.9754780169025,-47.11418959200322,-5.119618380434497,22.907495428909186,8.15024201061701,13.590033044983013,12.539252243048878,-4.430896114222058,-5.905830582635861,-21.918334344485906,-42.76197483682462,-17.74018915906457,2.3325190743088093,-33.23338729134586,-50.74893855611127,1.6961815463098926,59.82587556340534,67.1942577823197,51.46090412711788,58.85649453370575,90.60322413206929,111.01765505016012,90.63796346464059,34.33884891822967,-26.716736408423166,-59.14676119224166,-44.70564281724023,-3.776832742803874,3.002811112923208,-48.38023621035799,-95.14298545115867,-84.47936951067847,-51.3499867328666,-36.21384047442077,-24.988678364895446,-11.092341812358384,-15.575531014472542,-30.492850551540485,-26.66171276216746,-8.586513192377058,5.673090984070427,17.090183012709872,13.04665095293423,-14.249325633231763,-21.708971304522635,7.48258987088156,21.837104834832424,9.06770620832582,6.275641885786648,8.31465283268213,-3.6122956116799214,-12.01087074104719,-0.9408230854359385,18.98042730568123,16.67250311003366,-17.267314352540325,-35.62487182149191,-17.298092701559185,-1.4462097832651999,16.06822350851037,52.29263982952308,53.736364975009636,11.7041112977161,-5.894021734383465,-0.17434630529122486,-11.462201512682658,-25.899591119010193,-39.024396905333816,-54.96297213216683,-54.682098210905,-60.538997705601886,-84.01446022055835,-86.68212068576018,-93.55601495692852,-134.1327687413403,-147.98081592939366,-26.34065313775605,395.5145331674593,941.410131348613,839.5884216833257,-49.26714811409899,-602.2523747710748,-311.948384987277,-49.17863151139405,-171.9442750823974,-161.27769860470886,-24.373570727428074,-54.44991305194659,-81.69865688483347,-13.888967740222586,-7.870586742399055,-29.86337069189362,-1.9169539967373401,21.20672895484682,19.662106501507726,8.966481629130307,-0.12462967862321594,9.537287374453975,11.5989208624164,-2.9004051674285334,0.8260564946749995,-0.6975863588115487,-30.95344096559466,-40.99213361496581,-13.776348428848948,23.610858004041685,57.270468217156136,57.55708980373925,24.44573231097088,20.251765370943378,52.44229615553453,64.06988307514524,44.106697852121144,13.556825888176945,-21.819711282495856,-50.00737750108385,-59.97750040620295,-55.02561615696168,-42.84805617637695,-38.84560957459428,-44.727679818639544,-38.67440127234122,-23.023574942316912,-17.78138614626706,-8.75959525566332,13.384425880362798,14.743427180169595,-9.142296074027488,-13.99940036318512,3.7749509299582815,9.249948329841317,6.588731322450707,11.360883709502737,7.919622604539542,-1.2762578074703055,6.39000989138441,21.088623930800384,24.845854523013507,21.887551108172154,10.704777159406131,-9.385802537116136,-22.053734975293715,-23.437659085635374,-19.099645239316786,-6.7228496222190435,-3.023698979446344,-22.575669448380463,-31.53730722842071,-4.894158935796881,25.291449848329247,33.792086976038135,28.638806584617324,13.564945721359237,-2.016268653750555,-4.11192646384143,-11.95046764368197,-38.840553969518844,-48.370704588429284,-38.54498795191003,-67.5465765977548,-115.60108122527157,-112.6315283992542,-102.17868924846388,-124.65007536263337,-116.7935882206724,-35.66224323734204,263.08599258610184,824.7934621096556,981.6002641307258,218.09040215731224,-544.6212200150005,-396.57194173191624,-31.65654406248684,-125.46088351119506,-192.45992649120666,-36.062643216642826,-28.60315704991315,-80.54760026232238,-13.395875492845208,-14.54167837788465,-79.38787699965894,-51.2220939370815,-9.306037838630532,-15.492235721810523,-5.507888334832106,-1.7050506004186836,-27.92120948396328,-26.990769767563727,2.616549747812144,16.71862156835314,14.906799941944554,-2.9805417605626836,-38.98781295816153,-42.21753981117125,5.600691003830217,34.52150249607216,31.082843697919532,52.41812809308735,65.77611043634441,29.460784043388745,24.304474966078995,75.4187785416036,85.34896790544812,35.79245513725124,-20.616477164646867,-74.81746186085047,-92.62089420784271,-49.27906830871757,-26.636845327067142,-65.823259111627,-79.80207792396958,-25.97307636721815,24.346165152272015,14.435141669807546,-22.070083766449052,-28.521229002697446,-13.983279314682822,-8.718663834965646,11.101306804514646,51.75416130018287,55.079590878011885,1.8600499160514614,-35.45686883910726,5.025765530228662,53.924353538643715,9.497394573375464,-50.78999009279527,-23.77530082901434,-10.538818961596633,-49.82408971277188,-10.27412582010212,54.56857693838395,12.98126361758217,-26.73660844490519,4.887512013586594,-3.856927600684859,-28.881481503428457,22.82298032376166,66.71530813906847,22.171036012408504,-28.406902620576936,-9.559037538863695,30.722581651754194,16.404860483891873,-45.42783933849162,-85.9028088408343,-81.09117781964514,-83.36954986151522,-125.13797223011561,-157.9136082556163,-136.5969134653733,-89.60946100690717,-66.81132956339457,6.665815572652491,371.2405513540216,921.8062205712528,903.6860761194857,83.43495139172589,-531.2883531162593,-353.03668493900443,-91.87101745574058,-155.99075250834443,-176.91384980417484,-106.59496762941845,-91.20787967848118,-32.58161532941847,17.033401356824328,-28.232468274897016,-29.901006975444794,33.83125993963559,59.25267293805795,39.014788352137955,-10.945358369408147,-46.55073174784138,-38.88060399763893,-54.74787459372231,-64.77789504887195,-0.3297825950745583,22.20654655234714,-39.48017187177639,-32.26786732398855,36.621260306225885,33.14471496267937,3.4246264632814043,33.64992243954455,68.63956601149589,65.8577312169795,55.57614977128637,42.60903064239556,21.62402943964313,3.412136662688927,-16.594984529171974,-30.09296305610695,-21.162463052620506,-24.25731838289411,-56.80865804622099,-64.1412535868833,-42.16468931454085,-47.49261576701592,-50.184185771005986,-2.682335497616089,23.551472053782167,-20.098680213152136,-51.53709970883409,-12.339288590010952,45.954910167561124,51.764669267910755,6.053160397501747,-11.586927208274814,26.342436579864817,31.53759570016796,-18.226369748609383,-24.773227310973517,22.63560975710601,38.16222811930265,14.26897387989445,-2.5577644752328537,-2.373281271282267,7.688323274344149,7.221624933380205,-13.90612543797584,-22.69580043901768,-27.547310728877775,-67.08929138465773,-66.31463911392105,37.87244105489347,105.33315088634933,38.42509974017408,-20.882023582350033,3.564677822761082,-5.339249080030582,-57.66417973372067,-42.05523718639168,10.907922137794095,-13.562193800038052,-89.62192338001853,-103.59500360616386,-74.33012467311966,-118.56218801873776,-178.18316980890535,-122.41782551397702,-20.17377392149234,202.51119798303415,726.101103429858,973.2026914897672,283.97599366310135,-526.5776505804998,-420.22186386111133,-7.0531675091700805,-75.43096621291953,-186.79823716844854,-56.82451530727951,-41.643709930118305,-94.32576171632743,-27.761627081940567,-16.893641351604476,-57.173113804286594,4.29000488647738,45.33985625197873,-10.684125367745168,-36.70364737142208,-8.670753851546202,20.409919253616145,33.369541474388484,7.627671321744557,-9.761438081674978,24.110886027479218,9.130584818895258,-70.78707118632968,-63.40321748019694,26.781505630766663,50.09913787011497,22.77035120949246,36.2373107436932,55.25305021588906,51.273438244384316,63.908847506492826,64.49534048647264,16.490795482495436,-17.58702758347974,-13.460652406390556,-34.64812830917884,-70.37128904465425,-59.937741363249586,-33.17189198680473,-29.51935416177914,-23.622756921439574,-21.84337057304467,-43.424893846609066,-42.95571017700602,-5.673990548628904,13.941199648610578,6.758244450953642,0.4153600782325739,-7.002103234636754,1.3841050387618625,33.28467728342666,29.71309792813667,-10.44699631419859,-8.347083654316847,23.73994186016548,23.11708960855233,9.872109077704858,1.2226668705261652,-16.156175048472416,-12.908734789771923,2.9140175319240083,-20.992151867743857,-52.80294181486283,-37.71736334473089,-3.8028634988615186,15.755350016400982,30.130648150327982,40.578445920548916,32.6218139975209,-0.48995905037234166,-40.01662766774153,-51.39064925358701,-34.165056042953665,-25.34271617955028,-40.69799541698736,-66.4977037307359,-92.47281179279074,-101.25654511650708,-86.0568733280676,-86.53738128445836,-111.97763960173059,-116.66352246213286,-32.560440635025145,312.6533891716747,850.6647333036032,869.9350434351556,61.86494626825731,-577.2646027090053,-357.43781476294566,-27.8561931857191,-106.71439388533544,-143.11107014127973,-33.36319547386424,-50.19234736266106,-70.93315538855872,-4.524360746734272,-0.26133245293729956,-9.001233676466946,39.10652308585428,40.67236567400529,-0.5073989180357117,-9.255780848156277,-12.099523865374763,-22.82513178114542,-20.08998864340233,-18.229557935171872,-15.992750455632196,-3.7394761977863835,1.0080211200044333,9.740866385642244,39.205057772802654,48.97072713955893,24.142685759311377,20.317819640998998,50.358066060951415,63.892238417690436,54.891972498633685,53.11757529080137,43.77291895679704,9.62333640552054,-15.913618836234761,-19.310226855834834,-37.45982719376265,-73.63345301375391,-88.41757412171955,-76.82040387793324,-62.41850833600755,-49.807004633639295,-35.60478010939125,-22.522644994727496,-10.803322576121445,4.081403465087538,21.499004436502105,19.562087706227306,-11.614624518047858,-28.616023148395932,-5.005993051412037,15.28170797011534,5.489420387821244,-7.450588819676877,-9.612237016951916,-5.98682775195611,2.626464340806983,10.369120619520277,11.98134980854358,0.5540512147436942,-25.074642938783576,-36.03936354645367,-20.62068749734824,-5.063134467685286,17.540580116444442,51.65368406097046,42.43068620872855,-5.626442344274796,-18.03606435647709,-6.234193415923994,-15.122167136985338,-19.15928695359994,-23.713521187806343,-59.96600069316845,-87.3144148435059,-82.27818457798014,-81.46150477396624,-94.98063298477608,-109.11165088738,-115.03197014623291,-98.03243305672864,59.104959093409775,528.7613083670783,968.4584995359432,616.7695338426207,-293.7834096141648,-590.4237912471907,-186.2131678008588,-20.596488687002125,-156.00206081274735,-93.77705106639674,2.484756658917945,-65.01911401636386,-61.651708843509944,15.555087127751667,-0.09557289116277445,-21.520285630287297,20.91891290969119,38.59150516775362,21.69722778645913,23.60605781276565,32.87200504566425,17.071019303770594,-11.126230684982417,-20.29182412943939,-17.859250153032892,-25.06501373591773,-28.53748997399356,-21.03723274461379,-10.579333370697514,17.37813427202976,52.15992770918024,55.12927713600002,46.5910949825753,63.56615042537965,79.60061273198816,71.89125712319226,51.41498491496982,7.401615019553134,-52.1161951029836,-76.45751189202298,-63.30336842807739,-55.76091236084517,-56.7382265074949,-52.53859741255222,-51.49578714878577,-47.8224618891804,-30.20978337427158,-13.27733619357759,-6.974608311260173,-3.3055642306654747,-0.7190350406203869,-0.040790751535563885,1.2722015677207992,6.153067194289627,24.60363150850558,46.15577157820641,31.261813912169465,-12.925392384154133,-28.61934669644595,-14.9224330660958,-14.335002974299224,-16.553533018213322,-7.776348729980398,-15.991349196898504,-28.346660025951152,-15.14306554129246,-6.804712165954108,-7.605424653468765,20.572416519801774,39.66877773223065,5.754306686946286,-23.719713022626095,-14.154978420255809,-12.848667967568522,-36.11825060349031,-57.30070188133375,-66.4074462366496,-72.97384454540412,-82.6364423313392,-83.29903162271287,-84.52408682418795,-104.37554331995804,-110.45805021322133,-78.22179412278395,100.78422698766741,599.8879166006225,1006.6753599961627,552.2210928656441,-364.96090284381705,-564.2328570920661,-153.93367616559868,-47.6420273090708,-160.32133631299834,-65.9812347499053,4.512303694808054,-69.875247752208,-66.14847725675396,-18.323868439326006,-34.00866902529302,-29.247986070196678,12.825861702641193,22.23090111338947,-3.587361232991352,-28.308326767714966,-25.657218554922416,-8.423027454525343,-5.686421799366331,-3.6424505430326732,4.881339480620013,-3.18691913675253,-13.510253138560262,-2.284910979001053,12.83153987335528,17.888011699971948,23.498028510664366,36.28989451870085,48.98987909664248,51.09576039272131,51.052408381433494,58.34891986522151,49.441837157195195,17.26751721811976,-4.11792068078166,-15.283998837850037,-38.117310276994715,-46.53790772978908,-34.57230033136965,-47.446125982727345,-71.59024535146088,-55.04591629543616,-26.03394623670644,-30.284072951619986,-34.24870753706027,-8.96019149584533,5.71947699489931,-10.13713407040727,-17.013980118246657,-1.021465018538846,6.323383606403271,3.6495472075063375,10.166137524228095,8.055158760924217,-9.22086767165993,-7.698876853651084,13.33576023990669,21.459984618741125,11.462789926029487,-7.136368221352445,-21.62383371857394,-16.44857672161836,-1.6536527212560843,16.044509463391815,43.735040017663366,44.96296519282809,-2.4258275608530937,-36.441763771670814,-22.5616086306187,-11.493540933049246,-33.39751806920021,-62.17565702092002,-80.44305123521445,-98.14661682687519,-104.47210099025355,-84.95606878502407,-87.66584632879477,-122.81026636856627,-116.2708468536922,-44.62361967400615,213.27173584239182,755.7691682859039,984.9157542683874,300.41560406388624,-499.63718779810597,-435.4104056710099,-77.3907926350816,-137.00083323818967,-205.67278275234472,-65.76693653380707,-53.081772094908914,-94.8188108239433,-23.722014009915494,-5.087418871648033,-39.022237552198426,-7.662064121231152,14.615339272712543,5.648990031960521,21.522063135966885,19.089896817343742,-0.962295179838144,13.601573077231063,13.433454314220786,-26.432997301033488,-27.246849960631096,12.00425772102633,11.494897685994161,-12.108525180838292,6.17010912292114,39.1471705386155,46.19794146610751,56.194673306321306,73.65286978227364,62.33477652399442,37.28648926708519,29.652340314427168,19.288088391005807,-9.14257707911024,-36.21321449948344,-51.30378164691494,-51.363076017416745,-32.83508121330723,-10.442618980645367,1.4475103780104543,3.6333774232471683,-5.1249359347902725,-19.476899973424466,-25.377542456778006,-19.948904622110355,-2.6890760755066037,16.219576500869465,6.404542995353371,-21.85190124289007,-22.279590539634846,-7.382558217223638,-14.077436043160716,-22.128596388877405,-16.353020299308806,-16.321831749234953,-14.946760214787073,-4.531203753163155,-4.124502401957578,-10.923185062565864,-14.619059226850801,-22.46904130123735,-21.58609009664419,4.287557920444645,36.9285825874298,55.333375741120314,52.221706641464024,20.318601646490762,-24.188139076081903,-42.7268207380087,-38.09892590784865,-47.46296084165534,-58.57379158142005,-51.91168762180557,-73.59763377142266,-127.70661948127214,-149.89366993431005,-139.9301766622609,-132.1311403184667,-106.26187914001957,68.36095079896384,557.9354413460234,1007.5895686547035,646.3529582624443,-275.39584266611416,-567.5638197189593,-175.47120325852615,-49.580577150645,-202.95569416298372,-128.98237942022473,-24.625983493910454,-80.82051610731037,-63.54974673525775,7.8400213780458685,-8.35576398972104,-14.621834895430103,14.535861778719527,2.8899980077022427,-11.739909561952766,-1.731162511983955,1.2239545181363178,2.899155473361354,3.0662278610451774,-9.060807110381768,-10.446743138806319,6.300639273769179,18.936713061698043,17.755912173716197,12.032032232669206,21.186488655712004,47.536013454559516,68.585287468324,83.2441722941977,99.69513411589132,94.41875164051436,59.183777820343906,15.243453982241423,-32.83100849238742,-68.52592151754111,-67.44010218309296,-62.61493264214954,-77.83561481269913,-69.92022625753364,-35.31526272313279,-18.953727177546284,-12.840262481751644,2.905578817367962,8.37871516509812,4.41660210530973,7.301017129429303,9.067637212590673,7.828953004552309,4.290264776158391,-9.195146686894887,-12.322688848512968,5.5652334689408045,9.329992646533888,0.7338360987291779,12.867704434587624,10.76876768962685,-28.960395359282465,-35.57341994635574,4.490894436367957,13.256580531271311,-3.2957587502373933,2.155736588644661,-12.194471131620965,-47.58761951310197,-27.916963362679866,17.1608623756627,10.475974932150915,-14.004493833914992,-23.64815420776366,-44.943966017264074,-57.20083793463199,-46.83390101974056,-51.08571406043229,-62.70878062674751,-68.51498673520564,-91.68815687002976,-117.72055670786858,-129.02833747653432,-131.19740021654061,-113.00397518154438,-22.683794911921126,322.3602995792295,873.397306610675,902.3820355788775,77.13116502031109,-568.9662699644678,-326.1132289560679,-1.1037777331731178,-121.08708909162092,-166.79835925151016,-32.073838294570386,-43.64009500194793,-67.6409642911101,18.19021869163042,31.87477055617994,-7.963019596132279,-1.9878126755478247,-17.058422066407346,-45.974219632859686,-29.293643893499762,-13.232416581590302,-19.144515727214916,-15.020872490067193,-11.421080744730192,-13.65333656040669,-0.8831457378152865,13.368973822208696,8.191763595453455,2.6383456738274145,15.95251044300162,33.56594832890505,44.58366232020054,60.07564224007416,74.29449418134229,67.73156283693584,50.46342342592445,38.538691711155764,18.958735306536422,-8.935873790197803,-23.56186093976161,-31.865389996661154,-46.32597162675417,-43.25514009464996,-17.517257457411375,0.2960060638032953,10.92275327940033,25.562968815932596,13.532297202846205,-27.280186535529197,-39.83949444908762,-11.984694442113206,10.425797714613605,15.221746484050914,10.840344522283814,-16.20526688743356,-50.48333204957697,-53.30276692790983,-34.91615992640761,-24.451586121579243,-18.16608021425393,-15.371255775082005,-21.176885366072266,-16.638575481753847,-1.3928801756140814,-6.236072198571485,-25.60179766332883,-25.95424904941036,-15.378829703218397,-14.627415818729371,-2.1287211791326097,31.853034963370376,46.45902016339503,24.734728319999633,1.0408844958145886,-8.234315049798345,-19.26923283874273,-34.95853852457674,-38.74011711717625,-32.10069232405088,-42.763117307006894,-68.93093959796936,-91.49388173911257,-134.1873747957174,-172.51866156418504,-141.3190508184721,-50.89390983774314,227.4357202931075,773.5043383118684,941.047947304527,201.92412105954088,-546.4126443695178,-399.8359284837366,-27.804479301418162,-103.51448751322918,-179.42425997488542,-45.60260455041366,-27.934241283764536,-68.48955887174304,-14.545466692982739,2.0326840318582526,-21.948606770607718,-1.192769197800441,7.541048834684678,-2.3534886386834457,16.124603652166396,22.84798844041194,-2.4197846324963703,-14.350168886053678,-3.6780676267023527,4.101084714419217,7.106768781181017,12.407436640279087,7.655532756574836,-2.9390016785785367,9.925688483830616,37.12811059072899,49.06458336142116,57.28965387649446,69.03439425637983,69.7733174966474,69.97431173351632,65.85109185483083,33.35391526062399,-4.304053708444494,-26.550987325256802,-56.5611485151306,-77.10266515265315,-55.210445140656944,-27.828895657246335,-27.018192952313502,-24.377647106700454,-12.46499183133238,-15.396370092816689,-21.456642589194633,-2.4167473663463435,27.091822668638997,33.55080146187261,21.291732159050618,11.152997283355162,-2.8381042812654993,-21.525240594695795,-20.22358854241616,2.937020972213733,19.10436519120086,14.392936424128,3.2561011265089093,0.1984649016095794,-9.320740786302416,-39.64460467411339,-57.16163820696754,-38.30907346857393,-23.03953811800184,-23.479118189445828,2.0713792602198726,36.78186027084106,25.944691612810765,-10.479589807538066,-24.879731602908606,-26.499323124418545,-39.64203497105048,-54.75804964542179,-54.28823783884677,-52.079330359266834,-68.91601437148856,-87.6783431053882,-101.70682559252661,-125.36254698526349,-128.25343957105596,-86.79331706481871,83.76581180703596,553.2660600101984,981.2575947179281,603.6952782977069,-308.8316060249408,-578.9601322728681,-172.01786662949053,-24.175194138298288,-166.0109130768017,-114.11325489459793,-24.065582025721,-72.57496247075416,-62.17235181882381,1.2169445574171789,-8.14247698456003,-21.810645598681223,-0.772101158972978,0.6919869771978568,-12.96695877838194,-8.531254783369747,15.7701710974705,25.179213276499176,-5.422223555202504,-26.869897817962546,2.1984530883337072,30.0731447099612,13.76496950456178,-7.193244977491277,3.926387731214575,22.943134541765616,29.206361727346255,52.78650616773119,102.21319352791917,120.52968116855129,78.5066396957765,24.177732055033093,-0.049791688846829274,-4.363073305150058,-10.109150428655537,-23.773801606430407,-44.80521094168204,-60.96553458957378,-50.95701948126715,-28.512417878689888,-37.491676628482566,-61.3971958464723,-44.4463573632664,-13.681102652806093,-16.975887220131714,-10.996778794734436,22.67844350000508,20.507721346544088,-9.199465573176367,-2.7757054213812484,9.710717198293882,-17.98888006790935,-39.67055956221575,-19.65353318913805,6.088978218832908,11.809476424704844,5.306126667683083,-0.2381392168104739,9.921592691059255,20.140986075397393,-1.981188675078954,-28.19602678926851,-19.864064238154665,-12.096703050838704,-19.653068522843537,1.2624163964830721,31.614287383984475,16.003652404956384,-26.043897406023156,-48.113771159162795,-46.443983601540346,-51.166134285789205,-79.60236226062825,-91.37504787633898,-67.32568817616416,-65.4464153778593,-106.83155936752762,-152.24663149047078,-167.62780124807168,-129.84974757841417,-12.609361261620393,321.7157813909155,861.0641753961888,947.3022194525163,164.38967107649967,-544.9433119774556,-358.6299580747052,-7.0819037455136105,-117.79767108003827,-196.1154292770106,-63.57279318955025,-59.5428481167222,-79.6391363571764,23.430398117896928,54.52822622222321,-1.5398351772940764,-16.285673229227903,-12.44853818179216,-1.998496879071463,26.779736809650913,24.10258915649582,-11.678444539121799,-42.27470413001609,-51.91536304328511,-28.940850418677627,2.4455648482080683,4.878309791601531,-10.951743411134782,-30.20931960940927,-41.68341727235019,-10.204796156465601,50.28289944063633,71.4076915096364,52.4996356295334,52.563634741859836,61.53494504944316,31.956389936075674,-2.266045352125283,2.2787254328965676,-3.61841913081539,-55.24368908574354,-97.12898868655114,-86.81524105985183,-47.28580976379068,-12.363934191638833,5.866328817524831,11.876038112000037,12.78413324279479,19.863209667240092,32.38520862045654,14.594711068104406,-25.524078986267018,-15.451898154114634,26.11991176468196,11.900684067437194,-27.5242343527284,-22.762210350258343,-6.227540339590529,-14.445266295447851,-29.362475294961627,-31.938855628045093,-12.801174181620816,3.6239893704368917,-16.25911201358233,-36.127615453818144,-14.217334355978913,14.884053043140849,15.324675270526273,1.986633092641032,-2.658238742020341,2.478966079656656,3.626225753553028,-3.1002169156708277,-17.282459873728826,-47.96483970664969,-76.88727479028297,-77.59176603766267,-70.49443169906102,-83.52104676751397,-114.58408022373256,-132.37312600533366,-122.38973057974697,-124.21003594433678,27.269887042981054,612.6556070449817,1133.645069181253,665.1502935850303,-337.92352176575343,-552.4407669424002,-109.64945277080014,-23.618621922613663,-192.37131563286718,-110.99918916162103,-34.18675879875859,-130.75998177223426,-110.47662965431994,3.925268291073074,-7.1036548484501125,-35.999120027571195,25.031299718244775,24.7591390621913,-68.90723249222111,-88.1866547569361,-16.248921694136314,18.571130317595454,2.8725610858755495,-10.300735472852377,-27.95202514231388,-30.651004593703007,21.522417852122917,55.2460383126865,-2.898022840495031,-38.38945137526924,50.88076728897022,131.43327154201606,97.4011057882282,60.3661800990711,66.62276717768299,23.730935780437058,-39.67035076945097,-28.61315616176497,3.9135728683054527,-29.893697550668755,-78.9193623646154,-62.974530635931345,-33.682125268699295,-58.39699739244125,-63.61966697560569,-9.063798037842258,1.9000073300971039,-33.22624690072583,-12.23091344095142,26.161966470716063,15.85043273480559,7.209731483277684,6.412285750359562,-17.401651340949826,-21.745320573957024,0.66795545734856,2.74065515717664,-14.307067267572478,-30.639913938366632,-28.697994415982926,5.612938216954207,20.915043084099793,-17.805686498761172,-28.77429544463242,23.709356789521223,27.882887499150318,-46.12208987504276,-55.73731862752328,24.89089553685106,35.25393810256165,-43.67127568519735,-67.08450145373888,-35.45082411776197,-49.495836674160174,-81.59050918588484,-71.8982281248434,-67.98245977271577,-109.66591092110451,-137.902092758372,-116.65255694592261,-20.119838509364826,333.1620936747303,854.4724793267224,805.1444041322901,-42.47975732655539,-622.2085005803922,-325.22144622051263,8.129851095492004,-105.76700551730892,-149.43325426694275,-29.364398432066388,-48.47737334378192,-50.87652715007533,52.343096694520675,25.52054243358296,-50.67151547041613,11.639292409679939,47.90780322714151,-18.400950115083944,-16.20096291408608,20.960696391076418,-33.11530860827709,-68.83249337562145,-12.67232281966835,15.370647372049428,-9.79555298613113,-10.684270180297606,5.85878244365469,16.391102081761403,26.12312591452529,24.075336087630454,34.6906344029709,76.62240409488446,96.48822647798224,74.25126866439835,45.46910797328076,18.67416081109311,0.000874179404141584,-11.757233371563839,-44.4629706618615,-73.6861013597298,-66.11004987253939,-56.74263154144137,-45.253317161196065,-7.416476175532516,1.908891460597765,-20.780082513332818,1.1805720226189642,25.80073722066202,-19.146632428160288,-48.45606354683905,-4.091111169423687,22.6365048387343,-0.4350027262782703,-3.2788496543347723,20.894140147050404,27.730314591972068,17.83157520929706,11.266469016949195,11.446603903417586,14.278056653494364,10.532506879831068,-5.706232121942158,-32.52905585928413,-63.67320722109659,-79.58907585868924,-64.4271753488108,-28.6406151971613,11.536501304336523,40.64704087546227,43.83168585010067,29.97544232035873,5.677412284143127,-34.26804083184158,-59.21060158422345,-52.3604102455991,-57.6697023167957,-87.65219345954924,-103.5145389668177,-90.46294775571988,-75.6930039061873,-103.88757943888983,-159.97767019380532,-158.7377091645867,4.244830368260011,460.88960284231297,987.6503495815107,824.9812214444071,-79.05664169592336,-566.7546471741766,-232.41853341822844,-14.625849842308703,-178.70140007560167,-161.5860377852792,-46.2878269007748,-98.10084245661827,-86.0147800862508,2.734499204875725,-9.115274567232547,-10.697921523630828,23.212878962050127,-9.367283314968413,-20.78442999235781,14.95075917129747,-2.3566325612195307,-25.68126027212834,6.756293093853577,27.91969489959913,7.162076583646735,-14.87146645503836,-18.80481015701241,-8.83150354378494,16.848587815325637,54.20365243081072,67.69018203606811,47.09883547896288,43.917991441229006,63.53630368688228,62.741368088609974,52.923659344399404,34.59198327463,-18.15074313633697,-51.40103936812314,-35.08179769994215,-34.78347800520804,-42.641653408582464,-7.270976507717645,7.8794292920093625,-43.667636119854876,-72.63068234578222,-27.084161567002162,8.80776904923962,-17.418704700419838,-25.024401239158223,24.137343394596073,31.148957093271314,-20.71845381694304,-16.021991398827915,37.27569651921163,30.13199976302885,-10.10491027715479,1.3325907244301842,34.01183067171951,25.613704314959726,-9.92521046210942,-28.67897828234619,-29.73474411274871,-38.49888558489424,-46.70300834061722,-29.96256138112153,0.3708682140090396,10.913934655379345,-7.19174112731325,-11.572117544277322,22.898793670476515,29.114883240883206,-20.477188439374466,-45.36012037095618,-45.21443555728776,-80.17345820156343,-104.22415484687644,-90.61946589591764,-93.38561759866279,-108.04992593012557,-119.54718963490292,-148.72526802527102,-139.52015245001627,88.06166601950358,637.5625068330303,1050.087703287163,601.3641773639324,-342.48168518617933,-598.1665449754398,-165.49377230544218,4.919190444487199,-142.3391674692377,-135.2564798931971,-64.0382696796054,-66.91461155429141,-32.73232332293378,-9.279878946084278,-39.60962694647423,-37.2143398169619,-10.524921217071043,12.126041438607382,35.57876097533706,27.60038818710742,11.154078284237762,14.380120893442841,2.5288098142497195,0.33579343429857866,17.538005167739918,-12.693679718224391,-46.457680707202414,-13.702657935886895,12.866980314877917,10.496981579448155,36.17360394370172,48.143395388893026,30.720290438934015,51.94584591341629,80.02461821747802,53.762016940012984,2.6903800141376673,-45.500735449639414,-60.65630919395251,-20.885353661085755,-0.8681273373749399,-28.265011978378165,-24.114602440667966,-5.616022455101884,-35.70950626333386,-59.16067143435183,-38.5378958549728,-28.604945462907093,-37.23329846885681,-20.225962087803353,16.506870542177655,20.52198420255824,-10.924811546392153,-7.265859054930854,36.87339078185896,36.25651366003207,3.318613220830481,17.574469976685794,30.364273477376788,-10.625309150230875,-15.711164309050229,36.42084487390758,33.25404460724274,-27.928131741499467,-55.06861394699778,-57.47868879790572,-60.021242187052266,-24.887407621922552,17.153861722960634,20.123025510227983,22.925660093858873,11.770233558381662,-40.97000973629476,-40.44255780515371,1.9326707013695383,-58.38604606919429,-137.56564003797342,-87.50224319337028,-47.832514045996064,-111.80380568976256,-136.39445874820785,-105.47690388693371,-110.63953073582951,-121.97272904436245,-10.156776777480815,426.4471206180946,979.7844577643416,816.831227304513,-111.80383831599522,-582.9026607785204,-212.89644309990877,14.661839825872281,-166.29131578796046,-176.7606794258332,-63.477940196835405,-100.6337636995362,-96.85550858578725,-1.4239898847316432,14.333088029827657,-9.497162384629476,-5.540047431521964,0.06136267760416292,21.6424888899382,29.1880342346538,-6.787181091320356,-8.732401223585875,27.202607399593816,8.172850116692068,-38.2800813061779,-27.108663259398092,-1.4178127076665614,-16.764553552067948,-11.23986253700017,42.623156532841136,66.18953062427055,46.30381197004385,50.348607319299816,73.75665308142129,69.32633516515085,42.90258625380192,18.210147637119917,2.0048106794220004,-15.974871810776754,-47.61769614078972,-61.67812910609576,-29.930139571663858,8.510066141807258,19.669584778504174,12.213768964021106,-8.97448458496314,-29.33212848601678,-34.658105931319895,-29.54529487233677,2.182909508150793,33.63918305700537,-7.014443610903511,-52.00741695453459,-1.8685608262933382,31.312811759456793,-21.92867674189913,-13.530754160338967,51.634037120129,11.519910594918262,-59.40296212448813,-21.040190680758304,25.392373115033273,-8.956598674956044,-39.8158244749387,-26.23988488003399,-12.70603464072773,-17.912525091718894,-26.805693807000498,-12.214130198263316,18.747149007954814,23.592943448088935,18.623821786720434,34.55609083018452,16.784152159930976,-48.25782010189907,-70.09406308079495,-41.12031283067547,-38.31279484848479,-54.76396935831761,-68.23129183527521,-98.95232472468221,-108.08726801436215,-92.29586998946836,-122.2130737629664,-151.4038732379808,-70.33733059661023,213.34532030403642,716.9360463654816,947.2541395946103,337.8215781794867,-478.9536424491417,-476.58271645970785,-54.36818282400725,-56.03828678795431,-190.99200424594596,-71.60505880567706,-11.741142982994688,-84.43901546439882,-53.35404070001884,4.974818360368323,-7.760768482413358,0.6111673758402425,17.003681108598993,-4.233536842513878,-10.884596980178404,-0.7207342072950373,1.008557105867128,14.973140180803904,19.231258191877593,-8.905655780025675,-9.332155275963569,35.10346048934631,49.30850675129289,24.01366933994334,27.430339763512677,54.17279069855142,45.89074939753355,19.779918751924022,26.997419829336987,48.92345577491397,45.19596890258654,25.728971389918026,5.394052457197849,-23.128630919440464,-48.11571755524193,-52.19885056682796,-36.87397302686339,-0.9097347097853197,27.89835969457568,-7.517512930943397,-73.74356226975223,-71.50095443293668,-15.773937260241585,7.319353823882345,0.14568751829907,-1.3135013550813373,7.296542845725006,34.821393637012946,47.27524164265713,7.139177149873252,-15.289970307679345,10.339263282644906,-3.712256585995064,-43.03809242906931,-31.948258938338196,-24.728988727806193,-37.437375986218356,4.854432619795327,44.560611329573206,7.50831622343776,-22.85255797864179,-14.863315391948788,-35.707694744511244,-54.76143584062987,-26.42734076881132,-10.079639373075995,-16.64546201260885,16.12431207358264,52.35750738751314,19.96932937483679,-26.118898963397715,-26.746660649436976,-33.15226697481387,-61.34753414061707,-73.97484129394311,-81.8317415642411,-79.18151562791223,-71.50822434417786,-115.38507878401566,-151.14939594974052,-90.33944810020067,91.00130621357192,515.7092896658221,929.1848511224198,581.2776859202075,-320.0170413009629,-569.5584613991887,-129.71084254311245,4.254355607253881,-150.48135914119564,-63.54177951295937,33.56892005477543,-48.734050302042554,-55.90707095432911,-11.492958491686615,-24.35623012843617,16.391334688716995,51.03782917397388,-16.432166285463275,-38.54263967829601,14.59662902806416,0.39490326086005645,-38.43221721389522,-2.1382436579373865,23.32057392998687,-20.835113072319828,-42.49968969194304,-10.102211649603785,11.576919055311414,17.230263420991133,32.95559266659215,36.890548006066524,32.08666484528507,59.27055266120007,96.00871230024568,79.14782098045747,24.05749338890437,-4.608561283330642,-18.371289132487156,-58.164212487869285,-78.2054758796622,-44.67030205818408,-26.251220325447612,-43.610599046666465,-30.078427771286425,3.932367045720092,-5.319920066736952,-33.11125754259707,-24.052756576631857,2.6612014633469627,3.885702237511353,-7.68874350662149,5.366440212813586,27.102621032767406,12.737893862050605,-22.406181691981633,-28.78378218386389,-10.010478759957003,-1.4931971493787888,-5.145579264232987,-0.7904316641452453,9.96881422658856,2.2210695733275685,-27.34744286248155,-39.03706105228486,-13.130268933471077,7.4622541632382084,-4.430193323565909,-12.547389428014284,4.607181766307308,23.223550997386894,27.28451203550452,13.094402977614541,-9.006277818815061,-5.405662386451402,8.399394671183652,-23.23962376056508,-67.81108870497971,-66.48614361726668,-62.63179169111902,-77.44887998766514,-70.17587380102314,-81.13091623814803,-120.39823010219183,-111.4787819474927,-49.075721546939434,200.80294640764552,737.1812348668872,912.7309325673993,177.25707160920092,-566.3229896738177,-403.40238233307946,-18.1406951331985,-81.53844335590098,-136.0374202893559,-6.467393493917939,-36.71276478336682,-106.754101399035,-21.06599817959821,34.81279606400251,2.7297619454338324,-8.826670539648763,-18.214622177466577,-39.92095027069991,-34.94938489840055,-14.667711200555058,1.2713986006382996,7.180072615874254,-0.37356640359669413,-8.065076365128691,-9.714229597032796,-5.1846406014226005,10.13863068862036,21.131902403985393,17.42886189663207,18.430270185624096,33.23033892568727,48.80003955616069,56.72422548453969,55.77068672063311,50.60565355772276,47.665368713083886,31.314265486099536,-15.968678742642396,-54.814536720127634,-38.44024981535257,-17.66302495105257,-52.82045417740127,-79.25347770331942,-38.4532308034818,-0.7432180013929042,-8.819676515464565,-3.6865956433811116,32.05551196191231,45.500722167000596,14.376920393595377,-17.97974486126333,-4.289181102740817,17.511925481518116,-9.417141490759365,-26.34573822196007,11.54261865797389,15.287137890581445,-30.513712569487733,-27.562661190254,4.749069096370108,-8.361022616357808,-22.396941345918147,-2.8214230150491417,-0.49905340308900037,-20.706254471424554,-23.996466455905317,-11.781849145987657,-5.014494733623289,-0.3770851251569849,24.45592867623266,54.69989298504214,26.790095905220383,-41.98474309561958,-46.53242003758491,-3.7584490405067976,-16.196380716667253,-46.35311610738643,-28.02586850455617,-15.234308953384812,-29.409601578511726,-51.72979878134669,-117.06897817553582,-188.95685179508683,-139.37254925334844,154.91732366433803,649.0238849586486,819.5416485972313,218.9161933867289,-488.8143328423828,-431.15995280222216,-46.13787534034318,-43.22215757931739,-115.62330707530694,6.242430905243083,-1.1322866223154193,-107.48633589880153,-58.10266315150255,-5.195194797836617,-43.12110668130583,-13.895180532859907,31.761063565947154,-10.83621642577798,-29.228048952799174,11.504432213631674,12.904982003561017,-6.116915863974227,5.822629987449368,10.118552901013782,0.767557396352549,6.292086152152445,9.544428709228535,6.595093475633903,14.83867892513168,25.77418210064376,44.40030399385905,68.94327128190541,58.50535374136426,35.52344388285538,57.56257604222244,63.329071564250356,-6.613386563157443,-56.22642019448379,-36.07018604972762,-35.56522565608816,-51.49727000545096,-18.81168882973119,-9.898552847954146,-59.07074340571983,-49.97921293507228,14.885007634454224,23.65500341352577,9.63327540659237,23.18410153820315,0.5762658470630129,-37.69411329951185,-16.182787295358096,7.874171881197853,-11.525116418398548,-5.8924939354666215,22.5402272206957,4.111089556863677,-21.620329853447142,9.934847315506152,38.80026559765675,11.473966576081196,-7.6118105725171095,6.349727637037336,-12.462298724080917,-50.46593824157577,-35.41888061459196,10.903243962624916,35.717276411627395,38.96941040633034,15.159570619913307,-28.880869424470347,-45.81022475036029,-38.309572074183585,-45.88146393777468,-49.61584824099974,-46.53662915544335,-86.02822867039745,-119.44584532182007,-69.99039342895745,-30.340743398613903,-77.40701156457402,-115.9227316013839,-52.33263456017164,225.61807341898046,674.78882411891,709.5992065403956,31.49218604460623,-512.8169078283856,-306.9597181164642,-16.236159546440764,-106.27650632700158,-141.60704321672543,-6.8590068646875295,-1.5900947287784746,-47.988175984407285,3.126068861831948,27.37177869851853,-6.265880398155679,-3.1896028774591016,17.01937694265627,2.3341772586853136,-20.887285126916687,-20.54659673560958,-13.88436811728592,-18.00505905654501,-7.942912990311856,26.376736728602655,43.61100153987259,19.251853502658115,-11.85718785269539,-8.54791768599965,15.390965763790346,24.22026957100157,30.91971465328112,51.7885141121935,57.58435928395486,50.30665421573381,57.59234687864583,51.55879298914411,13.426549075367827,-21.843730225828644,-44.29950627044013,-56.80799719000194,-40.56162787402362,-12.044450411111224,-1.636810074484666,-0.6758226126495526,-9.485117520918456,-30.83210636128093,-23.696851266779,12.173915311264587,11.950791928728071,-14.411165313911367,-2.0714122276900344,16.044692594101154,-9.052897220699144,-20.862719961165528,10.581169429663138,26.902989454342084,10.676495356364065,-10.624542642549908,-26.168081737973285,-21.996860687120055,-7.246505275645923,-10.97934090528861,-15.529757279225812,-8.503654442809015,-21.140609475032576,-42.18543674174376,-29.02886642780337,7.839840542051613,20.90647078497605,-7.876491928624542,-36.98612600149524,-34.27261191774987,-37.55851358583541,-55.289326136055905,-47.63999232345539,-37.34750316575142,-50.17698478629575,-64.8465781805357,-89.40929438951078,-108.74727993167876,-70.97460204659404,87.62683351743408,445.60489133574947,726.9492491709036,386.9156375189455,-312.0062918698318,-473.2670845438338,-132.6077129302866,-9.231312390701934,-98.35533093559727,-59.617333697966096,-7.742758260223738,-37.63704222935574,-26.794083966335847,6.032101951716259,1.56939559723061,-5.516723816278072,-2.8001071119292105,2.222901457945625,2.8528458778963914,-2.898999263591792,6.0046476994367515,13.440573161720437,-1.3521100005769973,-0.33705905559562055,19.804519928459364,23.09231599643477,23.58161172578037,32.06993833597749,29.16874733733671,25.195404441552224,28.024318235244348,21.057242942386587,11.450148006088451,13.101081617852245,16.59868049784571,15.343810726523287,8.252019426214865,-10.740160097859935,-29.82388447070116,-24.152239203943605,-1.519828817871839,0.9873862698046558,-23.761258094729875,-39.71720383863386,-21.757119561993015,9.745151071526449,19.153003852991613,3.986187384828911,-7.765649577189947,-5.651442551729342,-5.2887808696140635,-0.4905348245355112,36.53219835222302,77.28915746462576,48.12341975816546,-31.189815458335573,-63.52586801077646,-51.397226688920554,-52.56386452406255,-34.72630503131033,9.833990139291634,4.496943031571327,-36.84992439428624,-39.60256201115655,-22.107828741202873,-11.662396376851248,4.934882990535186,1.8702158433109624,-16.626846926402223,-4.941980111430132,-4.398070245322405,-47.31844749709938,-57.46984287593477,-35.443536756295096,-60.1503323719907,-91.75703937410123,-77.93211294642366,-71.2512349740895,-86.82004747272663,-59.01578680388093,140.60544657241797,538.2987851011715,689.3721862857242,184.79668041935236,-408.29005925958984,-355.6157709241947,-32.11437397817517,-28.72819565366816,-108.22570181378386,-27.273518640355398,9.175575019676259,-21.60482806664296,-4.110532337563882,5.984872792767064,7.744146985521079,28.035946967647416,-11.585030009009436,-66.48417837452924,-30.025987816455547,14.633866216150409,-12.349704056167138,-29.346332681694697,-3.6991245518905846,4.7153130465395225,-1.8869827077482393,8.981212107945687,13.644969751813754,-0.9287057431142625,3.3753805068166702,32.036705196716966,42.04534872564337,32.76293785516816,37.09380285161549,42.1538060078076,34.02797616866079,37.68997434441861,40.509312136102665,14.613419807058664,-6.735820310221731,-10.097277053394578,-30.643436158001457,-47.04357448114929,-28.009816679181426,-12.258764196201913,-9.515048952154142,8.371278859837732,10.32823018919649,-21.63578961992368,-41.45812192404898,-42.76547045317331,-43.167466585521424,-22.19511696123881,4.963963911338777,1.7008833522108588,-2.920723098832614,13.747763391577283,20.0663777541683,12.750367644487834,8.069187180604242,-4.749854149221363,-21.48256889691913,-27.909421014744503,-32.36408478934429,-26.775020986509407,2.454177920617834,20.41153237898255,-3.182843024349488,-33.20042848775729,-37.06898336355573,-36.33296361434893,-42.96735424683405,-43.923862744399514,-50.86322540172412,-65.94858803511684,-70.09019218875689,-76.15614382639214,-84.40914087499418,-71.8784207352183,7.906538734907997,305.89951064514776,708.7005439217156,588.578649323571,-143.12720438035228,-543.4166329864247,-244.74437390846606,-12.873061223318803,-117.94812010195598,-105.59486546644195,6.002790149496384,-21.440481793251436,-39.249125465596876,8.404542567127761,-6.023986371279822,-24.691723218538755,4.524066986927528,9.582160720523785,0.6489674747121459,8.200394871854428,2.636878096291465,-6.642543254599024,-0.9933414025266265,1.207551857724992,0.7431681581096612,7.2839891302238176,11.076840831322496,9.992925809685211,12.324613418483997,22.834716138141076,37.55861723060454,44.729044853398506,47.05828848199393,54.84835704678967,55.053415241857394,37.51903057657586,18.941836219551497,8.738774456431601,-0.23041149958552598,-16.34599631844551,-45.05102351228299,-67.55372201758779,-58.69385930727799,-35.13381505421087,-18.89023890808135,-5.251897272873137,-8.429698390371964,-34.660682898878505,-40.11264721408881,-13.598148982373155,2.8167738477149804,5.948163847003737,13.30969495653768,7.674475467315657,-9.285870946891592,-11.432008697996736,-5.27762623074171,-2.3824857357576352,4.02773100045456,5.194865792490605,-3.057062893962687,-2.7668213075773114,7.135921067667753,20.486476623336927,44.35242932945874,60.14437311598518,36.67614162791576,-12.991037598538824,-58.486138468236526,-88.660775447871,-91.35591210834787,-76.33041599765212,-81.91407424473454,-100.72598374132296,-102.63604154449443,-103.03028869963622,-108.14312669245325,-99.77446916719416,3.772490485296032,371.68589290053524,787.6888143330456,571.526549050823,-213.07863176492054,-546.6540501023885,-205.4422396270474,-7.623278645388439,-123.18513281938387,-95.03890254317268,5.297671032976993,-31.214816318132833,-37.01987660722328,15.096034366848816,-3.2165385464760483,-21.65118910184889,8.562969247840247,12.990988593877056,3.798207008153165,14.735922442716324,8.055611663492718,-18.645163052335494,-24.55651391668951,-5.996615019396684,8.705252954156947,7.007298864024454,4.443891838494563,11.519665983519374,18.97541487240292,25.56455727537835,36.185492996407376,44.9547551740319,49.86247763541802,50.24003022998487,39.839320478878925,26.731743749541327,17.11905416562851,-2.6887174012573887,-27.12117414725444,-37.17897938433592,-44.096131308026294,-53.2864869600537,-44.90590557964727,-27.356963413355995,-20.130041235349296,-13.599068013996433,-7.824340954668983,-9.810745231756886,-2.3350597917504503,12.360852607307766,15.406221859347575,19.922654144179877,29.465855735747464,24.34884783088272,14.11237163724402,5.570049827519773,-11.907811183968263,-12.430039775261275,10.154823798295867,3.163103441060038,-31.819932637870657,-40.15419534731033,-28.854279188158145,-20.926059000334913,5.718945416806554,35.21187923957623,19.11983900180077,-16.75643603167704,-19.68476241174873,-12.933754753712085,-26.591931642301414,-37.87029377441317,-53.393713473999085,-90.7446116174164,-112.1604416754871,-112.98412086913628,-122.10779301522098,-118.08663963637294,-45.99022304503123,243.47469276487834,734.4193724987778,803.8032974351507,87.30929692370061,-535.0611352820682,-348.784344406395,-36.71300577562091,-129.66306553338535,-169.94814213126176,-32.28529055486132,-33.151283302945956,-68.70262843530466,-7.907796631804336,-5.003136543230191,-35.82388787277868,-1.8072712932456199,16.639314164256255,-0.33144338856302014,3.5471131835476175,4.175727263503919,-8.4299268988063,-4.792494857647456,3.563506048375809,2.8533957208947553,3.783050486196428,7.203066784037043,9.095214117747803,15.33975886946416,30.248078955046978,44.52336544551175,50.81583962400781,59.028828289364284,67.19004486489152,57.47749406055335,38.06297573233655,23.633910881381375,3.1650372100002313,-22.45314785652871,-40.59179323092003,-56.01704815473599,-58.15357939282516,-37.84190188815625,-33.63474991287816,-54.136061206790046,-48.50996709716968,-22.138981199112038,-21.167933826891478,-23.582148650394345,-3.895022802547869,6.960439899004298,8.902977924686219,22.06890156428814,16.38983473294982,-14.992724453488659,-24.05519641498907,-6.547876209150714,1.7153498378759968,2.9248457285236444,11.102760432474142,12.684711892197733,1.2119662026391111,-7.280293760412822,-5.563608521092858,-4.731421138503325,-9.089667952278608,-7.0196103894861555,8.788200565559755,27.687399991091887,26.598948181657082,0.5987817748061985,-18.87636641199611,-22.442771483519174,-40.255488670741556,-61.814225822769686,-65.16212530113572,-77.35416841915413,-93.88230198556404,-100.78885241103772,-132.90666940774696,-161.282892052611,-121.47434226548259,68.03762974633102,543.6313471306613,966.4705093172031,581.2428677381354,-330.87968339191957,-580.3626280655146,-162.0100187171702,-28.088588379726517,-167.44599519838872,-96.06672510650674,-12.24332534762003,-73.80602596094784,-52.97738101162416,16.869205805013657,7.040219301048939,11.169361446207219,34.89245223009652,3.798293637358407,-17.795867298545435,9.409030381820397,21.01822517032139,8.390927225717956,6.080704590257229,-2.7370665316319425,-26.814696740891932,-29.140638447299875,-14.448963398477842,-19.659776279776572,-20.535680406022404,6.108824209989505,19.38744461116139,17.60004680832564,40.100075369502825,62.998764781832676,53.91143833507745,33.57376466001079,8.917024985620667,-23.675286039676855,-41.911172303351336,-46.000038825663616,-51.952186898525056,-47.08447661077,-31.13174773217797,-25.96694809761269,-25.182262616004486,-15.739406126713163,-8.486337875319375,-3.853480558654679,6.456738893164441,10.96896557474124,5.751991890841573,6.918555692607343,11.9230422772502,4.978201370031564,-4.291291958928656,-1.1907028397806032,2.310201534695481,-2.4911764445774485,-2.150862185043256,5.892518642570585,11.2690627718662,15.798310734782074,17.479795538327274,5.155495831160616,-11.142823321425407,-14.450529020728151,-8.85080359733692,0.30079316076675644,6.302230102281858,-7.475033652648612,-27.751037822383577,-24.16982975490931,-6.648757306062855,11.580378332214634,40.51362523900184,54.35789619706229,27.269407144913455,-2.8356625496716523,-12.142449819939264,-20.981653037463722,-28.02899856495494,-35.260260582337544,-54.865687569870985,-64.76732444620966,-64.43382159657244,-76.57782529807078,-85.75260816220471,-95.728266315967,-125.93635516229139,-140.21458766904578,-30.690080422734297,378.17666604769505,915.1874882339289,824.656692031087,-50.93294968728124,-625.6309779687356,-354.0447911008864,-62.4230267278575,-160.26771200097573,-168.02253088147862,-46.72421734036068,-66.58422461233165,-84.69152517368622,-13.276899004501608,-0.5367704624538803,-18.582281837754415,3.554470985432598,9.578258455335618,-1.6504229087216231,3.791913686803685,6.739403587467997,3.5242622546026823,4.096606699823003,1.75412649464043,-0.2778872605811631,3.15876994036759,5.503466477112289,2.273727501260831,-0.1779205244415616,10.38706500262183,30.495044367070697,44.01082946165097,52.62455490165164,64.07244681455978,68.58560134163275,57.42013026438033,33.835649608028476,3.083320690057854,-27.423424875977965,-49.93036848537419,-59.79831108968766,-54.04081946746172,-37.97906268703363,-25.42113189870278,-23.259711263142073,-23.886367107976966,-16.480219306063574,-2.9294429375068445,7.449119611715441,14.372199522821763,18.20967991498067,14.000607726718073,7.687747950908522,6.012769315520622,2.940276159798137,2.194975972594693,10.798257844694543,13.701065415546434,3.979840434621356,-1.3944670751047266,0.9326238546033268,5.422093572165199,18.661626198190984,30.416377862066447,23.063240039400952,15.359850371463818,22.807216305398384,19.611005972887476,-2.3988075225379397,-21.686532242216035,-41.777219675627215,-62.50116084000588,-53.56068624126589,-22.772341326316912,-8.87901863534104,-9.00699398953028,-12.921220026227477,-32.20026045443328,-46.58227735484596,-31.710585596097566,-13.671263906269278,-11.945083574497886,-11.209592547127343,-10.578493504572236,-12.7116503927968,-3.761170111330536,9.344808668175613,9.497116234788807,7.472668919591284,11.292030041495668,6.775336870692722,-5.438258227099315,-11.594139063885553,-13.895626324268694,-18.04029279815756,-23.683809679560248,-31.993756967214527,-31.668480384392026,-9.19706430524175,19.551967111451226,34.4299459032623,38.155104978258464,29.30938454428091,6.728852317335491,-5.908190380630563,0.5076318178828378,-0.4259564678739043,-13.919078329112443,-17.953210355114898,-22.648244705831075,-44.4331355383916,-58.72373244192486,-64.34825476670966,-86.04937875958763,-97.9989142677887,-97.23886965004905,-124.70237899772252,-140.93298197634482,-76.16095989991531,164.86082539477079,661.6039828108136,977.2571515467159,475.73243258873686,-361.49375542970483,-483.4682921811272,-109.51511005033751,-62.740245373658766,-176.8712250755491,-77.77433994624826,-14.499302456616917,-65.50541351423514,-28.932020359404053,21.375958442925867,-1.9288288625652363,-11.03056663989234,-13.63196181980759,-32.69113943876197,-15.466036148463292,13.546104031587143,18.812476425473875,30.77269208848361,31.12730729684795,-9.458746520669719,-37.67165516515028,-20.39330754985202,-0.443155252647796,2.0113308532613043,1.2738665837963872,-11.78759626447243,-30.337852828674677,-14.218764250473875,28.53752773576296,51.239281913909025,56.08340841226551,59.885402434111484,37.854602501738995,-9.050923404547376,-34.653025973185635,-35.674341065266205,-45.505437725436614,-58.298823169586974,-56.14791397160424,-49.62264675975473,-40.58927664661662,-23.668828432138312,-13.928318897332584,-13.157364063607023,-6.221549066262865,0.271428571753642,0.6147438273643697,5.169974277930906,5.799898299584002,-3.652830417375892,-3.2787450245459038,6.349268417833783,3.3886154421053316,-6.080839596152525,-4.945398772504063,3.1992495265615104,9.608278093233329,9.0012313464821,1.1089248794338458,-4.08564043094546,-4.020206006426247,-4.26588107485935,1.769721503952645,13.175740057878476,9.38596765283158,-8.876840342954836,-15.966110939453712,-7.966455292175749,-1.7046462248194287,0.17235157851031446,4.337759453054984,5.95362597591083,-1.5578869998052647,-6.187313205683141,8.918578382392173,28.90112812117321,19.831346167460232,-13.759779493624446,-32.90430403228688,-27.325594759921763,-18.02141593638374,-10.12323863435177,0.0865163129614217,-0.010355020594495556,-10.052837208757552,-9.461173560476366,-5.310503578455691,-15.84032809284494,-15.516547433417244,14.228512088274886,34.09706348040825,23.959811585770026,15.145696779313326,17.53398011381503,19.03691625094989,20.882429542510984,12.420770915814487,-10.739755039599252,-24.094705984913354,-27.981572341678024,-38.71341387808868,-49.54297061412639,-71.05263311121675,-111.2803674824114,-142.17499716133554,-156.75920408272253,-154.35042179397408,-118.15732704949404,13.693481121415573,411.90776562525315,912.9159692452372,773.1864882900616,-100.20571528336824,-606.8421575424056,-303.4691036238122,-49.8097420242814,-166.9136279594861,-156.32241794231942,-29.64639755464603,-47.40943812419815,-54.77996603254576,6.4329111301625375,-3.098480398318678,-25.16452319259491,4.8788048788936305,16.558699664277636,6.21229711049919,6.906031913515445,0.11756495963695102,-18.31752886159495,-27.17000587315586,-18.474232499000536,-9.060076416669034,-15.505648498120621,-18.51238718504854,-2.4092186721396533,11.112045966509928,15.843840559952081,29.724302951796446,52.00872293873257,75.0660218702931,97.84630259448448,105.38271416157116,80.88904070719619,35.2853917422133,-3.9456994313887668,-25.941493448067554,-40.17187383833736,-52.733280463412086,-61.15534082220233,-64.9750016876082,-60.4832299049,-42.94704001367804,-21.61120923019783,-8.952266635211696,-5.142646782283862,-5.65614410048107,-4.798647048500233,1.8806977182932165,8.913526531251735,10.346234298152343,6.40672871151266,-3.206463461455212,-10.725308138925726,-6.032296745137336,2.3499320960730103,5.66551649011053,7.063005500541343,0.4198953419938558,-12.360599986167495,-9.872620522620801,6.405194714195121,16.893574796519825,20.012240176097443,13.935087070838046,-2.7897480033338944,-10.254085713979645,-2.4473456895022663,3.2351589943042214,2.4512378386628217,-5.919039750221781,-24.49504458138368,-34.15919811837711,-24.059424620252635,-12.067009430701141,-5.910528115356984,-0.967227507476327,-3.6031704752217877,-13.142208859583478,-14.375276016098628,-3.3823013964302753,4.480164595952836,-3.6853766240780885,-17.017124195342355,-18.682934776737397,-17.030357815057307,-22.71230694962312,-23.000739427109835,-13.356208563072485,-3.92960902092344,8.927997388612749,26.19174181245242,34.343264088793305,29.830532630834107,16.545906371200907,3.451642572816067,4.098885463034075,2.5760488808428654,-22.96527695149965,-51.660039660835835,-65.28387755510992,-72.63284446298363,-76.91212242385373,-86.4799503104563,-102.07617476829503,-112.21837840087404,-127.4424185971847,-135.13896261484,-97.38737145375404,66.94704766605489,514.4613132137887,992.0643593749089,739.7854248521293,-171.70558019567747,-586.2969395616858,-241.0232858731262,-47.13555676672165,-182.52581390727428,-142.83145830726357,-28.280524657217725,-66.35152825413614,-61.73135717914906,6.712986490774657,-7.75587951031509,-28.773360188427368,-1.1210562330984857,3.3680178471719673,-3.2857697841421487,14.033901911772979,23.21865418005801,4.997603544890979,-18.501887097150565,-20.217211775612547,-5.1650625373868895,2.872559975485305,8.757472138145584,15.152638072460643,3.361396554535812,-7.947697515386988,14.015324457113515,54.73096002244077,87.64063422691011,103.44091652233357,98.67118352398984,86.19142780729362,74.28110316545937,45.02040068328214,-1.479258716105997,-39.54951610911362,-65.56884598522949,-87.77500641851046,-93.95799249024871,-74.96814327807009,-47.480619637433534,-33.231267553488244,-35.732558592789914,-41.88897994007728,-36.75327114652244,-17.78727936964694,-0.6090064222742555,0.5688836247162428,-2.487622280862663,3.261379648433376,2.674398464165588,-10.953965587642248,-16.742077878049564,-10.665275465854997,-5.693627521998014,-0.544187206780105,1.3636716562915137,-6.561968293024897,-8.65803032543543,0.23516794583054423,4.774379702603616,9.221001937309994,16.886678269011014,11.964170402549186,2.2139393934243774,0.38947792612301235,-8.384185151296883,-17.009557259801547,-5.869267043758025,-2.4767939035672626,-24.092698075162517,-33.04430123879552,-17.838214818273112,-7.4572766358502065,-4.241671127559556,-0.5933039798687396,-6.6988003430115235,-15.49170531889658,-12.343922073754705,-5.863586282079497,-0.6432702855329326,7.972015991200758,8.127933880318022,-3.0071553668917295,-5.796787907480319,0.6972754081326387,3.2630688800725185,6.941454585211756,10.89616216242808,2.3879116180103654,-6.756823449942244,-1.8541922338423436,4.784862450365205,8.834522493315392,12.848998085173818,0.10075528781087684,-19.229381715788854,-8.517984200915542,17.841131648172908,26.36921631989774,27.24018464526928,18.652533987153838,-11.701918898243513,-27.268081018449966,-14.457985905957774,-13.003762538265297,-23.64053064901228,-30.02267971330408,-48.0348032137755,-72.48969914387159,-85.98305866993601,-88.20133169395064,-82.26456212778515,-92.71973612833001,-124.31496580240159,-126.00993108873703,17.681180040925796,473.6229601335918,994.8815413542541,798.9246572616566,-120.14955214057497,-599.9964085472739,-270.95512298441184,-38.0660457507605,-159.96560329961065,-129.7062855256983,-16.571607361248326,-67.26500344037999,-81.76651384297062,-15.438199165825544,-28.610746872774236,-55.89655696927807,-28.670081454972312,-14.932301909838728,-16.516606529986632,-11.27150381053007,-15.400855608771849,-17.239679650630567,-9.466194967930385,-6.521045194692604,-9.587304020747478,-18.20044500270815,-24.84699802632775,-15.452125524423382,-0.5731414077605845,8.004326759453834,21.439290811489663,40.91971522119752,54.52640504705178,65.12132419744947,79.03850334004868,86.13951467810233,73.07618327151567,40.71487650443239,0.5859960787127294,-35.08774274131558,-55.5275755133351,-56.236865513377595,-45.841586673455666,-34.9446598727388,-25.173075672070524,-21.02113350379144,-28.897395800996488,-36.81849637301729,-26.242487248099454,-4.865080154324758,0.8097632171599312,-13.954078702372524,-23.659977470780365,-14.049470617313574,-1.4457048742349459,3.809225367440289,7.415554823382906,4.946515475675993,-1.7408232424665924,4.262491765302551,16.744986880113338,20.92317848515226,26.799969744760617,33.0545481144581,23.188719229442235,7.264140775355134,-2.97315440075609,-14.271673583467678,-19.25416305832523,-13.43724901542798,-14.464396290376438,-20.666161869798696,-13.878353534776393,0.06919222608465514,6.962775299698841,8.610603880857212,9.838025920001028,6.902655140468363,-4.513185583513168,-15.001110867953816,-12.16362889723823,-4.765199723447461,-5.44619536218624,-8.283839776309247,-7.246340508387571,-3.5922570082422967,2.728723262846469,8.321229942634272,11.06373330902538,8.72275366846969,-5.483236957009227,-18.02215276936909,-9.720291503103294,1.131839546781043,-1.4958565806586819,-0.028472360525023888,3.083686193534872,-7.96318881070165,-18.43664941784369,-22.485569827711338,-27.81811920077648,-11.786874747621347,26.88568983661834,41.78062605006695,27.68008074536149,20.146902105856597,16.024385297877586,2.4582137980987917,-3.8832049446547225,-1.5704260879604202,-12.579076498852125,-42.533527344892065,-68.15145988830423,-71.0146466260082,-75.2019476309045,-96.24322173469523,-113.00550268940373,-140.85216276882306,-178.17503496184656,-153.12896912138623,-6.118679800235668,380.9902687593561,942.2752762566963,989.4603305759108,166.38419112786443,-532.9313400287803,-334.3422791763671,2.7039328402820075,-118.53961750953503,-201.69701854563237,-70.28460274952968,-62.01391309104265,-113.34430996533666,-67.53526565128013,-41.84425907683381,-53.31150064262152,-37.31365973056147,-25.411185541753603,-16.733330146763315,2.9565816745894367,6.24991264177752,-0.039461578545726184,-7.001304722046381,-22.972721468525176,-26.287663794072657,-11.86928356366873,-5.055326804698563,-6.749316574529026,-9.012478920166902,-10.497357447723648,2.4517005071892415,29.177233157720423,49.66412314216622,65.1536082525422,82.44845049759255,83.90291545605555,63.13768988719893,38.16876712492111,11.551370669542623,-21.177489289328317,-44.89377924652419,-55.167625077064024,-63.101483476090976,-60.62936763855673,-43.22550795083552,-30.093053464364075,-23.36613770275422,-13.163106712637564,-10.077276368792722,-12.221256563305918,-1.1862558525299072,10.948570568156406,8.257601089966386,6.4775673285375515,8.864480566592409,1.387709806449391,-5.844782897357744,-3.1041783038594115,-1.8547780604587172,-1.042536086551885,4.434985083866184,1.818949404279984,-8.379564737084616,-9.994448384584532,-5.372084137499124,-2.513274783104364,3.066040194252893,7.233948053852566,0.8217032522541707,-6.101439880772701,-2.1717393160481677,5.107678554138996,12.346934391832928,22.990606649775195,24.72692159960944,16.340457339196263,19.455453144325432,23.82574698526588,7.769368650422868,-1.705286907233523,2.81040642490251,-17.321237023584057,-40.88264238260126,-22.29954059463171,6.026524493927325,14.35841032174513,14.468981412054772,-13.373692575216243,-57.710069362095545,-53.53323219211539,-17.343862744932558,-9.835824855784185,-11.99838263671442,-4.465932696064275,-13.032400817464943,-21.770758185909973,-8.167867005334397,0.24888298913220908,-7.088525025240317,-14.447201931226175,-20.4166826225418,-12.002793270454736,19.68857419222663,44.17762034559616,44.6910125706947,36.74920322421658,23.411269317032414,4.835958034121224,-9.509099529141116,-20.09315618070744,-30.8725785594598,-45.16795731492529,-61.45886354650976,-73.08282327414172,-88.95467940696079,-102.68967987562979,-98.59994403310053,-110.68620411519659,-137.98605166076652,-113.26449316029485,36.41668022806334,451.676582706845,969.8006915824378,842.133320330571,-52.542631641459565,-585.3015823290692,-279.0880674059702,-37.015020682008874,-192.34550341455213,-191.01257917911727,-51.53279218575368,-79.24739367886782,-96.84920718646913,-20.4514345851646,-11.522358493256618,-23.980944733344252,7.17738604997599,13.5898953592637,9.046203343941539,21.27295899563598,15.9393004080878,7.8238382727287785,7.9606051139515195,-13.471056129790862,-33.4377823537778,-22.11343791698902,-10.266069203640708,-11.424784970347849,-0.8366041296903228,21.380077523798324,40.406401272838814,51.2282493853147,44.029596024046874,29.256095334357475,39.88644773641026,65.83334736853726,68.38449104827306,48.479547312033816,14.080686565405616,-41.251746493545,-83.29330745063773,-78.4017561258357,-58.2561852308212,-48.70578863254268,-37.24431871502979,-34.20808572227862,-44.78462541261535,-38.008756764912356,-14.564817250229673,-2.618327971803982,2.2701332046697225,6.723126115156016,0.9268780855578509,-3.720333986072788,4.312477464142585,11.143901551133723,11.222763878146225,11.045262830236762,7.529955641504538,2.7415275613310843,7.608024349457054,17.817671172440882,16.667653176326947,1.177609003924982,-13.547606658714345,-16.544260303207672,-12.738841996055971,-7.705247473474845,-0.7905524929475893,3.745773569430491,1.0072754194854727,-4.059726046450708,-4.588222763718072,-0.5550018141064326,3.032579121452122,2.654334826840679,1.3856525410627754,0.9498742323785996,-1.2810971816185222,0.30115641425619444,8.22687304317103,8.639742592083442,2.7178431495230964,8.497771567986032,16.72961351188716,13.694492299195042,16.99282780081204,23.154910217950352,4.193458256963667,-19.187404972402994,-13.805530776699053,-2.7100587064790895,-4.635690246014999,-1.0050950859162513,3.1197866003277976,-7.0388286766811445,-14.120828009118677,-9.311653043933765,-4.826378321052592,1.3138955398003573,13.436868779055288,27.80820693476037,43.8968996165469,43.557136489637145,6.24040224567425,-38.32806194566152,-47.801253139500254,-34.422326819397696,-29.665549112988895,-31.99794154727433,-32.50495019637433,-45.35263765971173,-73.67353255492907,-86.5403281237213,-82.96303071864352,-98.31705304394237,-119.47213664885797,-112.01202103758911,9.209052514936161,415.2266564200512,868.4686015477774,652.3334391986513,-171.5907747574646,-549.2626039619906,-228.265917083442,-28.326716952812276,-143.74733074639443,-128.03939502190167,-33.81816267352055,-66.08944244433835,-75.47697982211974,-23.76631500495442,-20.16240583224519,-17.449356314934736,11.675658319033642,8.55148022466269,-5.304936340106519,-0.16124252254646976,-0.9754281278119041,-5.747268610810602,-2.6267995634566708,-4.051559088206829,-10.133988400304117,-12.316660613031083,-12.371173111359276,-7.105271682805308,7.694407915641733,23.669369862982037,36.12307339471754,49.34557726344517,61.29821897226026,73.83112482255191,93.91156852708173,102.41513853564689,72.4681627916089,19.519496957266355,-19.320934215250297,-34.66823955422791,-44.32614628135859,-62.39664055046463,-76.0418906291731,-67.75178691180253,-52.53276253019613,-46.61037548052147,-36.68896003310675,-21.433978729849663,-13.771085710534088,-3.964857319272962,10.024268911231655,7.878663835136805,-5.061162981513755,-6.400183819676764,1.5599964294082524,8.01868879266118,11.80321083290669,10.312924491263313,3.2254721639394077,-1.803604079044245,0.27448438025894606,7.229449449770569,15.002563830887171,18.105833321281782,10.614981090882075,-0.48792955771516877,0.33781051505995796,10.591750709222481,19.698337026838452,27.571709006087563,21.61074989954536,-6.760513210774073,-27.40191084443064,-25.465431248302778,-22.52869489938299,-13.983847411628602,1.9758050365082838,-11.962122476540447,-43.87836008757923,-39.6269545705507,-14.58930368901844,-9.520799762866316,-10.057730719622585,-5.769464987167771,-9.189049658017584,-9.272536254665578,-0.8696778609083333,1.666582714482172,3.1571051431407735,5.914522467785677,-2.6229705750645973,-9.382519857215396,0.5629376110965822,10.135282255403363,12.251440840289508,15.417112213766114,9.69388182438942,-4.93100461860119,-2.1769596802041624,23.983113508190055,46.64043258275605,41.3021607762955,14.387962494784297,-2.3391049764394936,-2.9557624484963103,-18.984391978597635,-47.11659897704274,-51.14709516371568,-45.74428529028846,-58.660981562345995,-64.58768812194357,-58.98813705344104,-69.7377745895614,-82.8878340160575,-91.51898909808489,-108.58365078872794,-110.36750467060384,-61.513864002359895,173.1593880896837,664.4710147974345,880.4729020559885,277.1303296567513,-480.0533388403675,-461.02452733709015,-85.27359651184383,-75.68758954603823,-152.58608387250172,-30.65112356630663,8.59420293647706,-60.764979643353435,-44.09247506038639,-10.68525400765055,-20.435203879062282,-1.2954712148364855,26.539568932582355,19.119770313445542,-9.147644190743772,-41.330745669522415,-49.94923604867807,-32.75341835792888,-25.788495450457965,-27.992149281293713,-25.217233068613993,-26.527369798614234,-19.37476623744786,1.6019363386691694,11.089786351213432,16.311629145607846,33.243726120657485,40.20462203749665,41.02176121061457,61.036229350598134,78.55387952816446,73.9674058945715,62.18367297258692,34.56035269858926,-11.47103898098162,-37.16380504087195,-36.651592305583506,-39.70386085380365,-44.549846651062516,-41.68678225326635,-39.36481672865216,-32.34256859184286,-12.85048585473686,7.120202238369912,12.733608808563796,0.8316138896006109,-15.328524772280245,-20.87759309154324,-22.331148354420666,-25.037680431013705,-16.85502093029383,-2.4172888133201074,-0.13166977264743096,-3.966384244529598,0.24513003620279505,5.914610257636241,5.859024896747405,6.467553910256002,7.648789103481843,1.8427679282213558,-4.188603363296556,0.17001834078168065,4.429841564799085,-0.8224968719178483,-1.5297245123376983,4.602015343433235,-1.1689054077162377,-11.452467345422765,-3.3800971671311775,10.10501209017083,7.862684768602749,0.6082668318259448,-2.5093492971201394,-6.426137475721886,-3.9575285883472153,4.821141945352119,4.616907187466132,1.3466716427093168,4.35011934670887,-0.7888421502818765,-8.042100401160596,8.862568188357102,38.00832829462998,51.946640538864905,49.98884092325593,27.69615833783967,-16.89203602065501,-47.16585468019906,-43.20136773182089,-37.82505697858009,-43.37638836164698,-49.06962593062973,-77.7204246802243,-115.39964409441541,-107.11708587714993,-90.76863761551189,-109.40813865374443,-101.66965654998032,-33.91343107987532,194.872782094949,676.4987208142476,893.759178686886,277.98131876274124,-488.20887309104637,-459.05439876172983,-91.17328039150581,-95.88496948355494,-154.86140435713142,-20.956354547809767,11.417625290254009,-34.19400998855494,1.45155706283448,-3.078868952607614,-43.995738478690015,-17.62502315802977,-1.3065638759209666,-20.83443876320614,-13.684702268134792,-13.831022372209052,-32.21274737503356,-23.409849346782675,-9.932989469328438,-13.585058301348312,-12.164015245053967,-12.414089548552791,-18.642553796157944,-8.040462650488541,13.634141825631716,27.673627626574586,39.550145706948285,51.23572028959754,56.290501250546775,64.17539050404697,79.82755185885905,81.79919686679905,55.260582528850435,16.037806391972772,-17.931604799468175,-42.448362764275444,-53.227272128599886,-52.63312007767816,-50.869764029402575,-45.92063008288946,-36.925059983297395,-34.69978175852583,-32.69089951253298,-20.61365476454494,-13.659584264543659,-13.576929167064755,-2.504758350570028,7.749982530113952,4.581909456492983,8.037004032394037,17.42835187226503,16.42600634332713,20.574568782295795,27.702848915069996,8.18838510150007,-15.863971937282491,-7.957816232255038,7.792117667546794,11.504458173248462,17.09029858922205,8.235653504654316,-24.131193598218132,-36.85467769663887,-18.826617524805393,-6.200938950614402,-0.04042267242665076,10.065603634963422,3.480058697835588,-12.974678925291368,-7.373614854373042,10.57929107184405,18.490771085577364,18.659077977643115,2.8307809938443427,-32.00899796830456,-51.19799991293623,-41.45563530879219,-32.531998455574694,-26.588183357092788,-2.6700134073625676,21.662706366767317,23.903907948849422,21.755406968005605,24.871391139878533,14.09384159263682,-7.134253071983103,-19.863536337409702,-34.557325720465215,-55.128555616955126,-59.592745342212616,-61.43890002269607,-80.5332535552234,-90.90530981069196,-101.60881167059762,-133.25433951038437,-131.93884359206515,-56.1558431426168,190.63352640550798,692.7204412943415,960.4426609609452,386.28470320096176,-428.90701047281516,-464.03823060038553,-69.85562152293494,-55.61521707098628,-182.70143788029483,-94.91271718659895,-47.65164023117868,-89.42416316098469,-37.303668727903855,12.39843429289333,-9.439262454226462,-3.4740452021270887,15.231163887296027,8.161280515895513,12.319143342498489,13.966170379637889,-2.79851343004105,-8.530237147232043,-8.278747954555294,-10.523778406443107,-0.9875547194577763,6.007141430339033,8.358100901961286,28.156389115425043,37.90658598458125,18.123639755855667,19.141821343084775,49.1990922783968,63.13877202463381,74.04464137290832,90.79156563369318,62.162105468044096,2.3721090838081276,-23.924270945527752,-32.964503862354206,-56.51952349660458,-70.01368567123124,-74.85550328899076,-90.79710634296735,-92.8239920895446,-71.21430779434515,-52.474725704076036,-34.25907341911494,-11.448382095018054,-10.751958761129742,-26.51733743096682,-21.678259335019938,-4.138513037759363,0.6909853667322174,5.932735138254824,14.285568032452277,1.8246481375392776,-16.386147537463103,-7.919155279943035,10.00584269887049,11.682706178865068,6.669642801356604,0.3719000215821904,