ECG,-7.77251321466097,-17.542215283067556,-41.68787001674482,-53.77159860748255,-69.20293169616974,-97.4265417945205,-98.43203104406314,-108.70032913013371,-143.22441349626314,-71.74359791765758,139.3716982289601,442.7410139832569,800.4924476884194,774.5792390541435,0.3459058876687493,-755.3529921785646,-633.6807054521598,-168.8830055673773,-88.81476220443868,-117.06949866748099,-7.78485876639148,11.624732563496764,-28.442928412159034,9.160922612066065,22.121962481596295,-6.844251026687614,2.512691547125213,12.594924757272263,-3.2204270020524763,-10.71762284536527,-13.71947615677271,-18.841679951830024,-14.977214305831845,-6.905050437012208,2.6469082324103628,15.774444203636293,27.117080657251652,39.19402241244834,59.84781590600627,84.50395999622891,102.06809461910396,110.64677656225327,114.48892081575994,108.5085698389545,81.391674335702,34.82981020004824,-14.71269011390157,-54.20879701641215,-84.11034752473523,-104.8855749954337,-106.67682400764552,-89.64631290891376,-72.85025288090529,-64.14121913502068,-53.28442912785355,-37.66534752553492,-20.77983531907418,-4.0153145444446,3.9643045175491025,1.204037688954088,0.9612547926913138,3.7941915221166767,0.8498386354084104,-1.7056493749339054,-1.3591131161561911,-5.769056197548551,-9.4338529019683,-7.824146319124161,-8.683905236289924,-10.137864913691864,-9.815194858812873,-13.510787318037863,-12.805482921548904,-1.9936946109720992,3.207101151820833,-0.8420317433556299,-4.890247144680501,-12.72184542808785,-21.574869790430746,-18.411692769624906,-7.3560837789471325,-2.5012048270118576,-13.164939143718133,-36.50207753605416,-46.20321572109386,-23.32964731259279,12.389790056273196,32.45017082347812,28.79686163461816,16.55302281886584,16.587212171678594,16.567929363474924,-5.198166837031533,-28.93847992050069,-33.93137100390041,-32.7471061540726,-41.136540192443974,-61.26254929463957,-73.34422443702194,-75.39459401230661,-99.7783501234661,-119.42235317084945,-108.86630492846847,-127.44415923973688,-118.61960438181868,46.5900355886084,340.6569157271469,723.2525758661579,952.7736658466391,464.4251562915869,-511.30355066387597,-833.5445839234311,-369.79601314825237,-84.79060810879247,-139.38378921110058,-65.46577130942575,29.549049718013478,-20.89955536157798,-19.96782896754186,28.488602283383486,6.6531092392252145,-5.031717845785627,18.613644912920154,10.940385286155907,-7.7026213233780405,-12.198137156350166,-17.829269925372138,-17.946726439400678,-8.242945142838341,1.4117533387500671,8.895889975248341,17.02786412942546,33.012690811615855,56.94418503817439,77.28757279202662,92.03801906047964,105.33729035832059,114.50233486179835,117.24051601331516,109.48622504225683,83.42124963022194,38.190632528382814,-19.74762608486524,-76.35351765710516,-110.54188876189357,-115.79932648491572,-107.2336656995449,-96.28714534905728,-82.25005434036804,-65.72554598088,-46.980123634652216,-24.195871586772267,-7.604520607393233,-10.99086783284649,-23.364867165318547,-21.836057869061484,-8.809111350897545,-1.6593786898653384,-1.6441847606729638,-1.4991520888503445,-0.5127902856572035,1.2019777394540228,3.078128152761334,1.4216017207697682,-4.07403030923653,-10.095288114274542,-14.12678778953778,-14.174493961766206,-11.006064641291857,-8.598030789049439,-8.64077743082634,-10.618016465877524,-13.942391094256909,-15.716641999561354,-14.898527521013563,-15.94008405745262,-20.424817471175345,-22.84056752412157,-13.565386145043622,13.47393837722413,42.190338066010966,46.38833514197893,32.814374989617136,25.028267037543223,16.191631904717326,-8.14267707271471,-33.86158445950851,-42.481046954109694,-45.156079696969115,-62.52282396113537,-79.39069523801282,-81.55690442955454,-96.11340879982467,-111.78412862860988,-104.69185829663715,-124.88632144354933,-140.12057244592995,-28.262850712534103,224.71363802775102,628.367007607746,1000.3767785646552,703.4645539246832,-287.4934112798247,-830.337904647426,-449.8371229676907,-65.66841479544891,-111.92308086131797,-111.43669750602699,-9.453692231482378,-36.20559891031864,-51.55192718943857,7.111573276677186,6.053435431434973,-12.98574866221862,6.9837021530660905,5.727226151428766,-9.002500321025853,-5.048854506671753,-9.239448053791289,-20.71218200748538,-18.051061157806032,-9.613224433366884,-0.1592030649580387,16.946352404455332,38.32247169460353,58.15304434982305,77.08053345107213,97.0774438269534,112.20910559857775,113.84139926598868,106.74759057942137,94.81894799014026,65.31856511143354,18.007293277584996,-28.3422206007221,-69.70963797668622,-105.66369208440923,-118.61635265186267,-107.18872355782746,-91.93144189443143,-77.86197287976732,-60.81884291536115,-47.00325494577142,-36.982027337342075,-24.413001528442223,-11.55067380257982,-3.682665857608253,-0.8782331225843087,-0.013495565683495414,1.824739751574608,3.6689912477707765,4.234443827348176,4.805380928111379,3.6624731977241467,0.1297310845978341,-0.8670477806764261,0.5068980904685603,-0.787578081378836,-2.7770347371752706,-2.507515730969903,-4.720130506780592,-11.226656953747899,-14.821012308484898,-12.51033444870617,-11.178779489533039,-12.972547749545633,-11.15114514252442,-5.767555449923247,-3.9010542055642397,-5.6746730605710916,-7.691882684024003,-9.869044087018748,-11.182978024765156,-9.815911643148485,-2.2541581969472997,14.674688255584023,29.302045549350133,26.70021478010839,17.09037803258276,12.238265009160692,-3.7572090138575867,-32.33334601444544,-45.958425188573024,-49.947744253887336,-66.24028851205617,-75.81070070017684,-79.01669819180151,-100.75366997482668,-109.72070973505046,-105.96625950814789,-132.6467361258851,-106.54562588862856,62.36474305908615,353.36353013146027,746.618573743105,916.6165988712376,344.5884204925484,-548.1595155642834,-704.9393723252825,-232.2720373304852,-44.58471885450818,-150.09300126314074,-96.52305540175703,-10.01072845743802,-41.16480419851552,-32.69063912978447,7.354822144499558,-5.102211495129364,-7.471425055362612,7.541129709844337,-4.405086692554647,-13.974130234870987,-10.31887225361497,-15.037086891755997,-14.603174751818054,-3.869387815389326,0.8387114138732095,4.9066904089997365,18.5975256352174,37.52259557977307,58.57859715984633,77.65255268833492,88.68639053554773,97.6911810035572,107.51923065037052,103.43328496812921,80.22338994176124,48.57865847140707,9.325393185497582,-35.689708287831664,-68.89715691211234,-83.06105435468416,-86.91711780860076,-84.9641340484527,-78.88694650938596,-69.19296154392923,-52.87533021273502,-34.26844507378352,-21.405019311843525,-16.513535876147472,-20.459234728959878,-26.57896868175323,-22.160992439026117,-10.12942940470976,-2.504104970893671,0.18385135481182147,0.6030726947451193,-2.364820253851967,-5.821272702462068,-4.787254920984488,0.952714393891597,4.247617631798008,-1.8922530880308983,-10.092239970781534,-8.510156696253329,-2.0449670638477535,-2.045706397825654,-8.562422708178092,-15.507591050947543,-17.282573906045013,-13.187670375806949,-11.48568407479624,-15.839512223151633,-19.706627409214747,-23.721225793007843,-27.286712215141467,-11.963949995697131,24.89449128913022,51.29521789225375,46.935911944218404,26.852032587793687,9.820098420540901,-6.138934295692236,-29.14979357018879,-46.38518458317168,-49.69838542189405,-60.62618224826199,-75.24908583293146,-75.01208353192999,-83.3083095730953,-95.77897114906615,-96.95453388609702,-126.69024529931534,-126.48581921321214,17.70816784326574,281.4321868754426,648.5626961232899,921.5704922729561,528.3353061519692,-415.59827193026996,-811.7633432747109,-394.56623862201025,-74.10364261538379,-120.87025488523274,-87.58089685612902,0.3604161837353672,-28.009929860737728,-19.77179830175515,31.91637787382135,14.289405569432114,-5.482901155928728,7.866632762646003,2.0681383510977893,-3.9872017713454024,2.141394371844428,-9.574709881086253,-28.23655016830792,-31.28957273789586,-21.80725488316459,-5.51028574856018,11.051267036711756,24.916649951938766,45.208256464648215,73.53445525566984,97.05270841981712,112.67729693504147,128.51275672204991,134.43997983390844,111.4214394875357,67.8672921924531,22.145194764432183,-26.129551430510894,-73.56328637583752,-104.1526453757326,-113.50922978992996,-107.20178929864218,-88.9910680068348,-67.21371957665181,-52.665502423603414,-45.92354261065155,-37.61522431616305,-23.237821016990466,-10.548377422584885,-4.870070893561849,-0.381954202610725,5.161134463508695,7.065425365821344,6.950851558746923,9.433807717549223,10.86706714881824,6.458252888369996,0.6911222814902693,-2.4334458609339364,-7.101614467640175,-10.145852996435956,-5.454394962416192,-8.71125748037145,-29.711742454653503,-41.47846633683865,-30.08938135372361,-20.585715103328614,-24.027162623292256,-26.169401993049014,-18.05959953037261,3.9021979709497305,31.366884594371122,40.86303151027319,27.408160604166675,10.295746471179434,-1.3730493456505997,-16.86141268285196,-35.42774698353965,-45.28367822574072,-59.07651910867773,-82.98742349556653,-85.10276968882782,-80.84306054255593,-105.12463544375638,-109.38611987973411,-98.1181464058397,-125.75178011327773,-84.07997958285115,119.99608139438769,452.55935010137443,874.3523820260612,951.0658377221589,168.29830762932244,-782.1124929604524,-785.9336414823053,-242.87093063119335,-97.02261441584889,-147.7530274144774,-21.919857732724182,28.777135657123523,-26.23054189990383,3.7814586242770485,23.398338522759133,-10.425272391737673,4.426585772180655,19.648084133874352,-9.81791125127555,-20.81297347284732,-14.957430924166744,-24.387117770878397,-30.69111965403594,-24.19883540335529,-9.146872505235041,13.92328210244999,33.422739869122566,48.42301784416955,71.0845498050958,97.29963265404932,119.17752826902425,138.54268638457756,147.36687667683947,133.66581802245213,98.99474973342149,46.59449339586077,-16.134038052949634,-67.14574142048012,-97.29149827322199,-115.7521257987944,-117.64190958533288,-99.40676600708866,-81.72732428347672,-71.7389353544836,-54.474113825933166,-34.607516453082795,-26.775736453518853,-22.042594312195572,-8.848495010338148,3.0536743588815867,3.530534509869554,0.9159622013247066,5.527079168607401,12.240796296099383,14.631415841420594,15.557035838425762,10.726615881154073,-4.469559921451207,-14.055356101249524,-7.64386157993653,-1.373456274761871,-5.640296189396803,-12.92345761485167,-18.279942605267543,-21.93462521213899,-29.221298321471828,-41.52741938130538,-36.91221582402237,-3.167411926186503,29.63666199083739,36.62010669642957,27.03374752512783,12.04573985408735,-5.229613168581896,-23.7349431523614,-38.76628868982819,-43.4970351137984,-55.85437171242529,-82.90721042680427,-92.13163918580776,-97.74613642934351,-124.15466790355758,-126.1196875873,-124.82822116895572,-152.56950973475432,-86.22664389126656,134.00115056560816,491.6573839763817,958.0430756443619,1000.2752179764423,124.48343797274765,-805.7713818677053,-718.8935204318328,-188.71427605829945,-103.2384031938107,-155.9075459409263,-32.30496817960477,-3.16956270216987,-48.21154566505899,-0.923813643986918,19.236195593715887,-10.680077501392649,2.9691025400476914,10.94440694129518,-9.419612508403805,-8.200684208956641,-4.174081039978889,-12.800354381521146,-10.570639695256453,-4.928011403963664,-2.1954412448633516,12.757579842712161,36.69653723915618,58.925026113214216,78.54059159103782,90.76392002943109,93.8573802370394,98.26710983928749,106.51759056058008,102.62498070974776,72.50259873285854,21.49656360529543,-31.29541164283544,-69.36764057218427,-89.46872137544752,-96.8548521106014,-94.44577445100927,-82.98459834100987,-65.99642166098931,-47.925019445872664,-32.57328693070703,-25.691832536832596,-29.133107741803354,-30.852627377409398,-19.515679194987506,-6.272155083693981,-3.89041201309972,-2.5876685642286787,3.7689543414063387,5.116816830180969,2.5411881711654836,3.8417451054604967,5.414931999975682,5.290662281362254,3.462164576821799,-4.131219307737529,-10.876357313061678,-8.056289140909465,-1.692608056973759,-0.07503933220781533,-5.60853627038475,-13.106407871153248,-14.75501447090955,-18.829122958563126,-27.844339656606568,-20.974842493732588,-0.8583647834850794,11.8836787598053,24.503952880973777,34.67707582664492,17.49703677672239,-17.67528683290243,-39.03092711552621,-42.8622190997049,-51.3367585715771,-70.54510153058999,-78.21596842407845,-84.49504699024534,-111.93490588510673,-123.54556884644828,-124.26376128158824,-149.31070485647749,-101.41653761136057,93.80687153401965,420.0084464302187,861.7622698113131,991.445802634323,268.2661900862845,-678.4573718560761,-732.1685035861783,-211.9648958425485,-66.99932979293709,-161.03641921951538,-75.69408156025986,-7.384583810088458,-42.93995530388776,-19.028169909722948,10.017206343073738,-9.959484543671703,-1.6450093975562385,13.891083388442569,-2.2822761314937043,-12.50667926059947,-12.055382004435256,-15.525587118467872,-10.961810407561568,0.4269042133309906,7.299213251605187,10.012157305333709,16.94639508920529,38.0032753465415,68.64525546476207,91.43530990877663,98.71564348823179,97.97703833565102,98.2466805378705,93.39927966598786,68.76276396828031,26.45813297895178,-19.819314931326467,-62.24786221742375,-92.07177939191152,-102.5626793445344,-98.70770440435716,-86.23447174745645,-69.3787883026861,-55.830868343059976,-45.85843256263743,-33.69263787743127,-20.808149769821753,-11.379176770100447,-5.802278105539326,-3.497247522630232,-2.2674126666806274,-0.0833583492401182,2.1713553302251825,4.095653561546609,4.173225351343596,-0.288378513689743,-4.284832197007081,-1.2859482916795297,3.643692127956287,4.859597764821528,4.045160621541129,-0.779520443527467,-6.770609993021427,-2.2883439474672294,4.378492304736458,-4.741571015380298,-17.250555734826694,-15.812008657338643,-11.54088125703484,-14.396462799562695,-19.684249650858288,-22.618228723231148,-16.21569597921757,-1.948358193528069,12.099951828469134,29.844039672128694,40.131216353428016,19.396564576665284,-16.050408819760154,-36.2114369601408,-43.127816051670145,-49.44305903771513,-61.92101166989164,-74.45854006753666,-82.43209722431298,-98.8185460360076,-106.40322693017399,-98.74446058052132,-119.86702246819024,-111.06518355110123,32.427481886201235,297.9262999189566,687.701486836665,968.9515854534253,534.3952804888197,-450.4410591268393,-835.1172654465732,-391.65364339501707,-74.18681296413072,-133.98596878099156,-101.01899161096917,-9.342277373703979,-39.84259727618649,-38.07081852792505,10.871814974438088,-0.1000105119508845,-10.857467187077606,4.777428412669972,-4.7362639048399195,-16.654675933761556,-11.352628873554282,-10.272807096038314,-11.266612730436071,-10.684884744442687,-9.97083683621199,1.3074008297998923,19.698611770341124,34.173486923704814,50.20909038784532,74.26006007642738,98.18181902398423,110.93351022420575,114.57100854269382,114.49861234805026,99.92429758189908,61.232080234024316,12.109856205905892,-30.889160570105187,-66.4988641261134,-95.4353107623185,-110.53563532405775,-105.69503346840027,-88.60038554153009,-73.24726222384331,-60.24645317943342,-44.96431556156496,-31.115190775242947,-17.71104815583042,-3.0461454105071404,1.916553921379336,-3.321889118388807,-2.95516763671505,4.155777391632043,8.539559041256524,10.940253173339478,11.083684312426971,6.85525703517397,6.387563289776416,10.969388029478587,8.45872280070758,-0.5725444966182263,-6.258228514516386,-12.981270629116349,-21.614811525335487,-19.967464701636352,-15.871423909623168,-25.808822008798813,-35.738865030214825,-28.71798958841476,-10.12634942776249,15.772049823729006,37.094404633716515,35.996140712613425,25.26427637796678,16.494604339774263,-6.271425622946733,-34.34491937697413,-42.74715210632344,-39.568941218494956,-46.283326982022274,-69.28008973004412,-90.46913764914711,-95.63845918438003,-108.6867115470172,-121.81064708069023,-111.41359833273549,-129.84110358042471,-145.65196943257016,-19.536580420865974,256.0014506173359,656.0591978924725,1010.0233024140975,704.5113078982338,-313.4714508526587,-896.525192315866,-514.8546578451537,-97.47822292272161,-123.11373082651903,-108.80862779479897,9.056573957870924,-12.032841455534466,-27.06705488651957,30.25097558859965,18.86481850162397,-12.164757628378565,3.3157053648181876,0.7435565300748479,-16.479870709266013,-14.263996393101767,-15.865052822507655,-22.207559903911154,-17.625601177924274,-9.456094795013183,1.2463441988799318,19.02943583396947,38.86212314182238,57.09663165769535,76.12003106183379,97.5313360446078,115.53244131381366,123.22657214863997,120.45934080722665,103.19168163936264,65.08842925209613,15.533062759780526,-28.837981955431072,-62.81541267466049,-87.2489443021479,-99.45552723193262,-95.56657332877408,-78.56644261310288,-62.4226015141473,-57.18610817683219,-53.333885367581075,-39.794963274997656,-25.27205650103745,-19.26202442034299,-13.168963815367093,-2.2171200928639934,3.0655550493494452,2.1309327342481197,5.528908555543641,11.632068156623045,15.282394166900815,16.781755913549418,7.791728978785127,-12.660575909636844,-23.48205281717909,-17.174431345377187,-10.354475896303896,-10.229823706601936,-12.532350551858913,-14.559854806120708,-12.366102980348156,-9.300406023124985,-13.000962687108697,-18.98796918269292,-23.164644872646477,-22.920198001806376,-1.8374495039823024,36.295400657977794,54.7353660636179,44.47869672379515,29.466606746472582,14.411822670474514,-4.906633988217772,-20.028250890535197,-29.337645825945323,-41.99131092898317,-64.1500819609153,-82.1050017069865,-82.97400107911454,-94.73271724690575,-119.07451475137862,-119.16837396805548,-136.4283291128795,-173.14951547215674,-95.00181988022622,132.82889988874035,499.48136008230534,958.7710585634293,950.2363221254452,58.11114298924517,-798.6011771209437,-647.5726758583626,-128.7176750846416,-78.00458775822035,-159.9136622019703,-54.393725927911234,-14.840254961800511,-46.82603968992542,-5.050010337081643,15.027222911847023,-9.31657260850389,1.1759903253388604,10.139255660772815,-2.078467771670063,1.7442002385518869,-0.02366758823801085,-22.34118094055674,-32.24606029151089,-22.770352160205697,-9.459098919104601,5.074615947686379,21.693733747454186,40.341192614868646,60.099793509012414,76.93400472656734,91.96867925415742,105.97716174105585,108.8481159328226,94.59835938628106,68.59890791591688,32.30536584526139,-11.444896312982536,-48.82208601424232,-73.09958914210506,-88.49801238580848,-92.58189561371532,-80.62441389721589,-60.22455338381294,-47.384397816501064,-47.86887243622506,-46.514501591089875,-31.181083607698714,-14.795649784332447,-8.196621108240777,-3.178283164460389,1.7369628767273966,1.836768568166061,3.461289138341005,5.966420037027021,-0.6562337555559523,-8.182286453561272,-4.180076985350148,-0.8999415348301198,-8.724526494149124,-12.713693233354004,-5.9552364066852395,-2.9689416074370882,-6.897950069518869,-7.892246823621889,-5.748909870315302,-2.9514806960021325,-0.20789091137450555,-2.758620165583789,-7.940960272708923,-10.277192694515948,-15.700838533711355,-20.641333318007035,-13.815872960093007,-0.6433203065394402,16.800636897885497,37.26662972882247,35.314944341960256,8.136578307543349,-11.727579212359846,-19.178329906094852,-27.66098613633848,-39.05328669943161,-54.88359953718809,-64.57232134815087,-73.19802008954369,-103.30726271471106,-127.22325464790136,-136.58957889677262,-158.37599580700578,-114.59497921064869,67.65768830461883,381.0028020309827,807.4722477505272,949.3886909308779,276.92190399905815,-652.6338988650052,-738.745294886897,-216.84807685373613,-38.20002222849063,-138.7046526020839,-76.93126362226415,-5.553560705808039,-39.30437379757991,-21.86759977487548,14.15734063603825,-1.6290283658985878,-2.2507648962426305,10.12945182468385,-1.3691552521969559,-6.11336528840163,0.3351069485923759,-3.377860398455456,-4.143959910820308,4.302223232182721,3.9655753309802115,-2.201393322014688,8.366248313111345,32.23217704094565,47.31588726710358,57.448831297866484,75.883057740592,92.29520051280184,96.89255235102588,92.85855729708156,75.55204097356969,39.11032347612361,-7.49011371744621,-47.86144827768467,-72.74042754161141,-85.23182657892536,-89.82819481124118,-85.38026566744442,-74.34031079580564,-60.80458315993679,-44.81898158232352,-30.13752743596602,-20.20644431924038,-11.90139919024898,-5.430386643585543,-2.2944576414170754,1.4477060891998619,5.312362025462399,4.9287532860066285,2.332502022274058,1.6371235295329782,3.929132116093397,7.77981910784446,8.588996744336466,5.278194480417141,3.396564471429988,3.4261242500649676,-1.7951543007415118,-12.584968242401747,-18.74986388135078,-15.776597065478088,-12.469201882268358,-14.965447718714257,-16.93446723389383,-13.754850318313302,-10.52708671515338,-10.965272766014415,-12.064540738205269,-10.311472773299009,-5.927046110251075,-1.8466769372875227,-0.2157530134689516,-2.195928359076497,-9.019911759127506,-17.763233791643376,-23.247464371904226,-22.520660288015208,-7.944043333184609,21.01782517595398,38.76468502715927,30.50496316246012,21.042169331463718,22.633420273517753,13.10775220236858,-14.298221518854666,-38.86172491824455,-44.994034077012614,-45.462639569040455,-62.23190496473888,-80.173919622044,-84.30101759728556,-97.37490336779827,-106.25486166393763,-98.48942903396623,-115.8150523695989,-105.28504100590354,32.34291738531432,293.2442594584495,672.1559272139167,910.3769336431658,444.06982849261124,-489.5944545427762,-791.0706497585518,-328.639375631497,-38.268465509274264,-114.81062900882924,-87.92204419371933,1.9429743635376298,-26.475177216079857,-27.967816619864294,18.12606928004983,11.219309866712912,1.8264738989243945,13.103869799866143,-0.9714077664109366,-13.94725468349205,-5.6675534752346755,-2.8689132314201258,-3.45714604721538,0.5337333240334035,-0.5511743626096752,0.5414507481996047,15.746044297488673,35.6822708496917,45.95209062472567,49.037001288807076,57.968002865941216,73.15501894691582,83.61621052768237,87.80510229068102,85.18352410546767,63.309262474912536,21.425853281472484,-21.202058139288035,-52.61306740753452,-72.6307967359931,-81.09546994682091,-83.35725505219284,-83.51795769586349,-73.92367230998116,-53.24897144411506,-32.79202931527028,-18.56606205203959,-10.62147298398586,-8.009265976611779,-5.448545919699935,0.2782949126254959,7.881919169173421,15.004683974286582,14.589053090322608,4.426139874108962,-4.495559256308233,-6.077367603393073,-5.2010313644409045,-5.184235608984048,-8.828147226239542,-15.304978349060763,-14.485938436575292,-4.434341628861972,2.3391797743751663,-0.7315189352002811,-7.5833780844081,-11.310642843695128,-11.881250996845433,-12.315094979120865,-11.683639860960422,-10.291915288208026,-11.63981404190488,-13.017496734157676,-11.825965832624243,-10.552531118926819,-9.418682441445071,-14.885157322205544,-25.980959550951937,-14.352584721913281,21.802321196535765,38.63445414528027,27.349310152458408,15.962054449553545,2.4238650815976825,-21.59827925634506,-37.96822103400746,-37.71349458440383,-40.2451405255289,-60.28418573080856,-75.96328933296056,-75.92997704273998,-86.86019051953699,-94.1849896495121,-85.87355159631315,-113.02745072325854,-118.40924199017311,21.84697252094992,296.951251240695,668.9170407080991,891.7447861688136,431.13131568441196,-494.18233843522574,-806.5454582961386,-355.1293731929651,-52.85849729088375,-102.82309670462374,-64.65403039141846,13.765818231685671,-20.64674579121531,-14.947449251557021,28.751521227670594,10.931430397593811,-1.0607731451812619,13.144761000841381,1.7422541418591369,-8.988779777080927,-3.218372612463847,-6.701091977733649,-10.105638433982758,-3.3554347205335935,-0.49956856562320606,-0.13911867111250764,10.862273121448709,30.84188769641202,47.872562335073184,60.438328973485994,76.37176667372373,92.56499386707685,99.32624428558304,96.36768862062844,83.23654044658551,53.73513154918275,11.483186694200787,-28.79708711474768,-58.12069877704344,-77.7662769241434,-89.0922240822611,-89.69069961520243,-78.68796250151917,-60.34806455242656,-42.46533292323919,-28.87880711425069,-16.791172978104356,-6.498965649136757,-0.37773936604754255,6.186158685140496,11.27402538628485,2.5016019279280286,-13.76269802614783,-15.318414894825803,-3.6938634369166685,1.4446133950579778,-1.3475370263717146,-1.8396154436971557,-1.654225639248022,-4.749328716306039,-6.548017558852248,-5.912532609152109,-7.1076830511143,-10.479916284513013,-16.540441407148794,-25.036517977975933,-26.562016075124657,-17.790763357180637,-11.950635348268563,-14.394702242043522,-15.267511069823374,-12.744797627789808,-12.014023015652668,-11.317630628404888,-10.420459602255864,-12.54192131706506,-16.366803902142717,-21.735601620355496,-23.960942693484885,-7.492683527257018,24.907492111482647,44.70481407792337,40.76125533976938,30.237641260824162,19.669353985247817,-3.4501574954306147,-31.729547087334463,-41.22598300778563,-46.86646478145313,-71.14041434495427,-85.12435335647947,-84.49951097254304,-100.20720245149026,-107.0205799298601,-105.02084184263906,-125.27706703271761,-78.81138697060094,111.38502971101951,425.0451215708477,802.2838876594773,832.1805794872837,107.62284640248063,-712.319899671054,-675.7472121828828,-173.48462549768036,-43.56815902143791,-114.68122436707007,-35.018770075515874,9.17959502726471,-28.372256357492546,-2.7131150386592475,21.772257739681734,2.0442377959341194,6.514212194055027,15.28502031978436,3.8238507394556396,1.7603506152842012,2.226008837932375,-3.2627449184022175,1.0734151332008839,7.447343477543354,1.4891994791134016,-7.74976944559184,-2.3278564181531323,20.988683471052195,46.23306950347664,63.33052219303515,77.03117046004661,88.51905059241709,95.12766793564859,92.03216598497008,70.54797842229651,34.30974069650704,-3.8754174307351765,-38.45814980818633,-63.85855525742514,-77.62533625353817,-87.37949824844907,-90.8501576996197,-80.12887565765926,-63.580600719293074,-48.0980965495304,-29.733449197592464,-14.530825073714816,-8.046425216655791,-1.3206222738470252,6.726896756434986,8.384272030723581,7.22796629925443,5.908868248788735,-0.7732221558875629,-7.016522278424738,-6.437556129009579,-8.65059936801109,-15.781806092864354,-16.887529723579544,-14.668776107101614,-16.530926090732045,-15.545055417801525,-9.79668042557413,-8.440614594387213,-11.411673994032668,-12.472833985662703,-11.29911329923117,-8.815125222724717,-5.104045817136262,-2.1212781903243325,-2.0321841114919508,-5.052257820142586,-8.26899415441172,-8.829400328651406,-7.353643190623503,-5.242855410370952,-5.478436706791507,-12.104720863791322,-21.09149541358067,-24.077078361910033,-20.506701075750225,-9.694072443857635,13.787337326229826,38.926605564050206,43.187974528912555,32.76958819847251,27.331325953879556,10.656517891809504,-28.467799689060083,-56.05610069815718,-63.29287778421228,-72.72298606828309,-75.5345686694308,-76.44996576340444,-92.52704935205614,-95.36644385580365,-94.37538404627509,-105.77399798656062,-37.06836533037203,162.66499924218675,468.8839585075149,801.0052855894144,727.1655244147552,-46.19717901442024,-762.5752629839791,-616.5865875122751,-136.99931465138795,-56.819265946014724,-116.72224303063878,-27.83948763908016,5.931110807524789,-25.702983194061407,4.26769065638203,19.292137414341116,-0.5425276793981055,9.916539084931026,15.975591437698464,0.5061018718034109,-1.5954174483552652,-3.2438436633736174,-15.021762260887348,-17.754092704229418,-10.69863029004657,-1.2282825540751539,8.759308154782001,19.496950967793406,36.7575672744365,57.88922748293521,73.1087099536579,80.56028129660876,81.30547441601067,78.90986062174304,77.32412236880877,69.03132945770298,45.63528165425964,9.395101432021834,-31.50176392287476,-62.91820984106964,-76.32934120450268,-79.09505354961082,-76.47239621423631,-68.8608807296396,-62.506576237726456,-55.10328611681834,-38.751017304646254,-21.251113910932503,-11.336808555444847,-5.232959241507725,-2.0290682092569767,-1.7763100131725942,0.9926716518511043,4.050549624860867,-0.04728758941540079,-8.473767875887592,-12.927912483400824,-11.916089763680642,-9.296796049315567,-7.08844826767529,-5.353295850842283,-5.011632209856494,-5.574573857214833,-4.105093109456028,1.3660351831861348,6.924925366430779,2.250795536808049,-11.927143065563698,-17.296430679153303,-10.57223084477015,-7.270992063534955,-4.732430360380384,1.2688177482178027,-8.10852748936215,-28.616034567845865,-29.884051135454463,-17.166968267215303,-15.138704435056987,-18.67145992259791,-19.4721120795274,-24.237935821615764,-24.013027800420147,-1.1984414306238085,34.192351863417535,51.42209278258813,41.44921772774775,23.4567044766141,2.626607446541243,-26.530482583183982,-43.81105631533566,-46.36068540820071,-62.659526056676754,-78.81768627935264,-77.7566485722367,-88.61287514458826,-98.3916304634712,-93.72359004767269,-113.87053673850299,-95.09302152745235,64.73713394729029,348.87297506847045,706.4873713666876,840.8260412275054,286.40244152371065,-581.7761535430515,-753.3947714583492,-272.74644485783244,-25.90605317678782,-94.80367642872068,-56.11950357964517,13.793388439667808,-15.633476606353767,-6.569420030641627,29.63729223761603,14.249652109477775,6.716373989936832,17.262360109348805,5.921567285830001,-4.496510468349012,-5.579084300322823,-13.48993436632325,-17.203027719860295,-13.56608701277375,-10.077029897601594,0.4774887250902289,18.156000485408345,33.680669580072546,48.894718377847354,66.821170027161,82.26338056045056,93.47038444919866,100.35164380232267,93.98291853357313,69.03727736338007,35.39969487030379,1.7255804317856862,-33.116247265994936,-64.5795851379244,-82.22180936646086,-86.36671097543201,-84.49031073083381,-76.63776566665838,-62.09297279462708,-47.22928726664178,-33.41005540712024,-18.157129655923704,-6.784089751467164,0.6152591293666099,9.113466494403468,7.747338595919629,-8.904155688191615,-19.498407125389466,-14.153478608451852,-8.260669566768005,-8.49170730603311,-10.449488530626482,-12.637820910171786,-12.623685408146695,-10.71686182979618,-10.059331413344026,-9.422896090816849,-8.833419152972006,-8.728329799132702,-6.640642392721968,-5.328673049751821,-6.499283394112018,-5.729028790354178,-4.956479012525879,-6.385229676441083,-5.412920056385612,-4.830642350552509,-8.245912463237033,-9.414525382419122,-9.111209213210564,-13.58315098500881,-18.834724407927492,-19.93202378413087,-13.00364883237282,9.34480791855553,37.582033932207565,48.54897425070503,41.43798509643145,26.945480944030606,-2.1509261926718306,-38.41687093712713,-53.18281242242762,-56.72591569784723,-71.4817443412453,-77.62594718290576,-78.78193100934195,-95.29233480252064,-96.80011286791712,-93.77344391867913,-110.93565731232601,-51.796283804231294,148.94181720203164,460.81335009060194,798.2814447639244,746.2485415099196,-8.348106950025198,-751.6427291819521,-645.5682178201728,-158.39086246661134,-46.83926166691654,-99.82700679667245,-18.44726949871533,12.153456238746116,-22.516779620642435,6.252820600645687,23.415159350420087,2.9984948490215118,11.930905668007869,18.112531647362687,1.9886569767866815,0.08897971225085222,0.7778350650543567,-6.396742513938568,-0.9224579451918951,9.188178051062318,7.611792117037881,2.3904497806042926,5.474399697052167,21.53349195650037,44.41892402463715,60.33674826713658,68.02346217395308,76.64742981002013,84.8820456630052,84.51185084175506,73.47825488767158,49.37133930166122,9.32555549646387,-34.670767493860914,-64.92411692273866,-80.48116190964141,-87.92821161845916,-87.07686845271542,-79.39530559767911,-67.87794667234537,-51.15136167808655,-32.19745814333125,-17.927410117818184,-10.013486120116902,-6.91613378085637,-4.388046449161067,1.6349217774977731,5.287326574261623,0.6637026424121544,-5.438986958258138,-7.217951339239981,-8.149381118991109,-9.154440678746187,-6.86079064228678,-3.2718382737105003,-5.079595053499673,-11.132152881806157,-11.773951235974735,-6.324966663597403,-2.4588286071271774,-0.43893692684605057,0.15983030494198402,-2.148778434782102,-1.0235031283229858,0.9379847917345625,-8.383866185025799,-19.56345675814535,-18.02266968428409,-14.336017407606706,-16.658214215285135,-15.389843474466927,-10.12806330606116,-11.011693577110787,-19.593821035808602,-26.30979015095213,-18.144525866610476,9.368294640581542,41.466700575663104,50.89453969865086,32.356635255353844,15.36747673279848,7.772379797771072,-15.265317500885281,-40.93166385377828,-48.3270130584712,-62.76284491626956,-81.28243959673502,-81.88507339166088,-88.33313223636048,-93.34715595062525,-85.86044562250927,-105.47237583301364,-86.7673333332957,78.09155166353477,367.8096838241224,716.4779958609197,822.6942068553446,243.6332502441388,-616.6930938648131,-762.7985068683383,-275.54135118730767,-30.825685309002914,-89.8132186951729,-48.9226136538675,11.972932817057256,-14.39132165343328,0.7954915851369382,31.293849684502,11.957264560121873,5.2341986572905075,13.444103789167979,2.4059724888561047,-4.674646157972135,-5.095286847827175,-12.117833802630233,-14.804020188289073,-10.433965638484356,-2.093776985569166,11.08611528548398,22.330741333945884,30.800986020641616,43.50845579453592,59.501065448857794,73.50530683141355,83.20354938182,88.95889631876894,90.7059773753529,82.56254378360572,58.88893494346862,24.633782542930135,-12.593584073305657,-52.10370783451167,-88.16211403546632,-104.8967088455866,-99.22118212329468,-86.01848138898492,-71.96760198031585,-54.51098117267521,-38.98408052375493,-28.067976248499747,-16.629008631869592,-6.5052363283490315,-0.3946311847922246,4.142660913317204,3.120435664143411,-4.140856478702098,-7.07458069684661,-4.885886490655864,-5.235621659927588,-5.6719688221708395,-4.286291966551751,-5.3379473592179565,-6.259016110061761,-5.109719121755106,-6.386963788296768,-8.34650079072756,-7.985941936915896,-9.19671344705769,-10.96234311361254,-8.32878521141097,-4.474050273924769,-3.942630678398814,-5.047237787511998,-5.987605499470941,-6.007045335729945,-4.012691485285345,-5.622704460483117,-17.78157634720194,-26.457642909840718,-7.279492430124981,28.09943110991803,41.08263238320543,29.152442363928962,15.878292456621258,-3.275815495079664,-32.47335266429765,-51.92636865198618,-63.427280397785765,-74.14429042998941,-75.39388848438865,-85.35730855264069,-102.8837228991893,-96.90752263976643,-102.18612288084599,-112.34609227623629,-12.249345989905223,221.79661638619888,550.4064582586848,837.4375118008463,609.4219941107363,-235.86957655816667,-794.2652676492987,-509.94491391135017,-93.31533674036186,-65.05593845127139,-74.61113959776674,7.854807647715688,-7.646838160575555,-29.699945249868826,14.97609939264831,16.423578593644837,-1.586715295400964,11.659693968125044,5.426084537878518,-10.650885596965905,-5.958411380470039,-6.750481072898204,-11.508747683151878,-6.265278933808824,-4.344350986797949,-0.3541475564380967,15.259875328522195,31.98365029095513,48.91214985624278,66.3384008860003,74.18641251540252,76.28085092365716,81.9828717008407,86.81215732269118,82.68712693209802,62.74843899697299,26.225883570578098,-12.022288736005947,-40.328294659660806,-63.695953663585186,-82.42461399909138,-88.3791280887119,-84.49104572956517,-77.27411581431454,-62.47361578730561,-41.187005284002964,-26.102156690635134,-17.964019439539587,-7.501638496198158,2.18606104534037,7.672450759809124,12.64271667162392,7.904045807404032,-9.232425120283324,-16.531610015816913,-10.519034209872526,-11.297658288916892,-16.654252555985913,-17.36961324817544,-20.037909534129156,-20.39636119191474,-13.219006167637147,-11.55165293724281,-16.896092208253766,-19.457444242681525,-22.13987189180001,-22.80062576918269,-10.544457995414438,12.092706575572798,33.069311169345056,39.50078422810746,29.45881638148294,19.31351803517982,6.729279183367918,-22.93902342429687,-44.55517638075657,-46.981327032821056,-65.11246348816334,-86.95579747211882,-86.46266907513893,-92.59170242026923,-98.16572384457145,-94.38380048158012,-119.95371067061963,-98.14512953046159,77.39329333641152,379.196188443386,749.682807213735,869.1865545483454,262.49269107501084,-634.6373210505985,-784.8492422402235,-299.82650297722387,-67.83652744912992,-105.7311885620988,-26.893935251776135,31.456341893186902,-19.146950547155846,-8.439243538322577,25.311272614868606,5.099159194030118,1.9739476931505964,12.732395086759265,0.012459783419398018,-5.685185095953953,-5.864109585689825,-14.861671991048803,-12.90221263724507,-2.450537189366811,5.136789519902987,16.714459879475314,29.49757379742408,42.6944011467501,64.74905005144902,86.83757500611534,97.33946716276874,101.11411030563792,102.19318049986165,96.93186349599686,79.17654206744021,44.974343795463966,2.4869310490050585,-39.00529814063894,-79.74554004793163,-108.57477134268137,-108.82476176139114,-90.52812296363868,-73.87940199439956,-61.21191140956777,-50.50235256440987,-41.30912382979122,-27.23940048249998,-9.412095518893715,0.5017039229465432,0.25684156114438395,-0.1567897042057389,5.053689700400167,11.98895864266286,15.675817830957552,14.399053767737373,8.758964443895156,3.1673038334966392,-1.1355762328366694,-10.205333967220746,-20.47424527520974,-20.70545596619303,-16.35478867477908,-17.438808183506893,-17.69016985739382,-11.946147381588807,-5.273161413479567,-3.5482065127663844,-11.714422907157676,-23.123262728745033,-24.81357836888497,-22.32255823662709,-22.039809867625564,-13.980658009037569,1.809028274728071,19.371843187934164,34.04359985821223,21.97620485319292,-15.916909291723957,-39.20103375281998,-51.651323644331626,-73.96993212206911,-81.16561764870119,-82.14735493865155,-97.91439122667673,-97.04125565823512,-103.88821913122183,-128.20621033047885,-46.49301961119019,184.92618049859954,516.8051486909892,850.0245615559525,730.4063943330474,-88.69974225490596,-775.2133166818729,-578.2711375920119,-109.50302811093033,-51.60442376554927,-101.69933158815323,-18.367451907239342,-8.371476134963729,-41.76101446111632,-0.25949099897747896,17.503435897351856,-6.423252886490221,-0.7791576248844843,6.557208564546315,-1.3237084150161929,0.19734746983892304,-3.90079027334166,-15.244632386260227,-11.502955457794151,-0.8541633659145882,6.663391336719448,19.884758833556678,35.145247743081356,44.44064364681467,56.43359193965356,76.74381657385409,95.29170629462118,100.89315707154023,89.5287031810485,68.35650673543866,49.27605812656822,24.74304235115777,-18.40213162197181,-61.76161515915017,-82.2665162184492,-89.16892753070121,-91.98745917710741,-81.98554042706711,-64.28132341274744,-54.959739410718626,-48.97513381549529,-31.902716536184677,-11.174277003658354,-3.3719156479772394,-4.146333317038959,-2.273274963124006,-1.8330079269991018,-1.8898367732561958,6.664720634385555,13.810326922261321,8.934902749523719,2.673109803369236,-4.037831777038562,-17.43277508546368,-21.08282365629485,-9.543523847445432,-5.76191545074964,-10.15170338302569,-4.039371034554209,3.8371833066135856,1.5017244114470643,-0.779828656594983,-2.616652039605114,-8.06111686839534,-1.0974621405428735,17.414430075604713,17.84749368231921,-3.5838434142347317,-22.966800105742138,-39.58204275418447,-61.35807358843261,-70.04569405516222,-67.50747108897737,-84.53873870503146,-102.31473521823166,-97.67066414414694,-111.05482827940781,-111.5835467412694,4.493317589427917,247.17799790961058,582.5802034906666,814.2254110584556,477.13656270584767,-352.9235154746361,-755.6068111467641,-401.5512045845468,-46.76541167802917,-55.563038365613835,-60.69630755482543,6.879474422052596,-16.646371441641236,-32.44920716316409,9.296668673547277,15.452067841521865,7.558254467099308,15.383667669436656,5.939411681224719,-2.2640412037215496,-0.671207395575129,-15.183299400403609,-25.90426568506632,-14.226451610615626,6.63356397946302,33.583157535678424,46.9039139816681,27.90511282315417,16.39981015911591,38.75807199934853,59.9298589394207,70.44713677583582,90.82354779190483,97.46814993547981,63.581274620217165,16.857610792011513,-11.07966592819491,-27.37563047240929,-51.79847880425263,-83.54434130028659,-94.78092472697153,-68.2348338265913,-34.40175421348531,-32.291199934483394,-51.6120354686488,-53.496290805609505,-31.296919278041113,-16.472748243207658,-17.798259831963772,-1.1507389804590407,31.286762414804436,23.48415239487456,-19.04120061528289,-21.56264348697595,16.75413646287032,24.277535170902606,-3.1513607185058117,-10.191894207684381,5.229162346885801,1.1094259437509422,-21.180837600844164,-22.12316727329881,-5.6043333328355125,-10.708452742884376,-23.9854978486188,-12.138212143403859,4.724970749717692,22.95648957620732,50.376570628672596,21.60440841867461,-52.82628278336633,-51.77207748690238,-19.33509505421943,-62.006045246021955,-78.12499487584786,-36.82127324320405,-78.36846329909233,-148.4131119034182,-123.67369980402984,-73.41264044899268,-15.606411296456187,155.8075038738973,497.3007017669902,845.6491150648551,674.6384682455932,-169.6836561146332,-785.9973681362617,-542.9759328266987,-117.82728706119104,-77.6156234498039,-97.30944075232338,-23.364586073684706,-26.44571025226709,-32.09015246676379,17.700172338431404,31.758390947738775,23.995634379407687,7.394414451893531,-28.361310113778046,-14.958849771920615,18.573014832773076,-19.006743527299847,-57.36156759392318,-23.641736632467524,1.5013057055736905,-9.757628077561563,19.67645198109221,68.8397315794569,57.879020446923214,33.885448036446405,69.74669852306198,114.06960668922919,116.34425385838644,103.24376240845343,78.76840694975158,42.647708187500115,12.653838999276118,-42.31242550058043,-103.23840366484693,-83.64693708463702,-49.70831527086311,-107.83585468841315,-142.74590723916714,-65.60809123117059,-0.01891994378467743,4.301905090361686,2.1669945515270506,-21.907152567553,-42.05692537049606,-4.918802445817455,23.44231725746574,0.856308368008829,-19.77900825546039,-18.40690060292308,4.445163230109273,22.887414528831833,-11.664508417716856,-34.761524131697115,9.075726304772175,14.078650182133005,-35.11615481622374,-25.06872311429624,4.393043917207779,-12.698393559704536,6.70191380302445,45.604725983286926,-0.3016209489312729,-46.94882780289799,-9.728361831972899,-4.570570741686845,-55.2290613147179,-47.104654014723984,-36.57279760303924,-101.83210674789078,-124.92456068768787,-101.22736705296057,-137.52076172312684,-108.81201872345983,102.0366484191463,444.21292136969237,865.5571604191784,913.368441742876,84.80896456123338,-868.2796206430413,-827.990917672811,-235.86714348535355,-40.93851999230196,-74.14104573329303,0.6747436025743241,-2.1383260053809607,-46.51387593913205,21.9711315882151,49.86151158232833,-18.707423361417263,-23.270227767288077,35.95806216824129,24.76026121200421,-30.961784023579657,-3.5621006566955735,43.54612046391229,-19.40409165162543,-76.78662834725858,-22.933697231698936,18.162665646696432,30.120123209665714,100.54630314680014,139.09922066004907,89.29474350930117,63.09050374251397,90.10364510215767,90.99826125681881,26.52791666974905,-37.41072583990374,2.3525250095551833,66.32882896046821,-1.2651526051989492,-105.97916199302905,-116.0554665403199,-107.70752464592329,-101.53329909833627,-51.37660946341168,-34.79883279812928,-58.15928706164204,-33.76488117345938,-8.545244020215058,-14.782983262217368,27.30590097222077,65.96899519658184,7.122653149823414,-46.33374052986135,-11.177964576268405,16.93097966111077,0.31062837757494854,1.7418523825922545,9.124490645588912,-8.293829922172097,-15.547697966476802,-3.0287193291662184,2.8135558963652105,1.57671662387399,4.74494047945516,14.971257110851585,11.632040190470168,-25.758803302788053,-57.037609209201264,-53.85635677686186,-60.6525161533348,-83.02601656505254,-92.66517926015287,-102.972471492849,-104.50013722448456,-105.06457475815827,-138.86109944219234,-111.16382477064117,76.1813076497211,414.5563603698532,858.4241934256805,979.773588394733,264.0832769272779,-671.3579155841843,-730.5645948315527,-217.3956941979415,-67.56116508639934,-154.87952547610618,-71.34450343657846,-11.612420587490021,-50.18410098850828,-18.783416377337883,16.17727338900241,-5.421090361524804,-2.1983734185187647,5.356071741803701,-12.924708725380672,-10.812218156382876,1.36888744785408,-3.547934742811372,-3.318656330976901,6.149289338474042,10.721264483114382,17.249853701357843,33.542250354804864,53.22269144691358,65.89938676098264,71.75063474070897,79.91343155880354,86.86240301315645,82.31827891763686,63.8766792069759,24.091761552493036,-27.191274596976996,-44.25445492019342,-26.47860346517387,-39.82464515395435,-85.82697554254858,-96.29752862359268,-82.67112410498453,-91.316082764556,-75.37251703700765,-16.776395266177303,0.557772639413983,-20.477068158774188,1.0008655863624831,21.32559152481969,-19.00074743972308,-34.64808917936172,14.539988704315881,33.069261464755414,-0.8183597005846792,-15.041699734209697,-6.435733019340127,-11.582041292081094,-19.174513108480312,-15.28299492620933,-8.86107232601575,1.7272815307593703,20.2686116783156,30.548049885660408,12.154476735334901,-24.372348681042983,-44.93705838799933,-50.38277844570261,-63.78750136738573,-72.88321392072496,-75.52735136296693,-89.99722749143271,-92.87594674613018,-89.72398249935273,-114.71165749282372,-94.2780644948244,65.21361780741833,386.4680572392593,787.0131891798302,823.049888441893,132.1954214249329,-632.6939580942098,-610.2698490166989,-177.38928374041524,-74.30291107472438,-130.73062393657264,-48.521936371069586,-8.256929200815634,-41.09559617482395,-13.701636435728913,10.482121400808555,-4.838314976526426,-2.2648791205045686,-4.5909198226563275,-17.847466866250624,-9.589045205543822,-5.274726492755996,-13.8286093126348,-9.219833873485426,-1.3028237963183584,4.086889322573951,21.587843055398412,41.52263423537961,54.39500968476516,68.73283229847365,82.88635878499716,92.21776338158188,99.3376139591599,97.98845591422578,76.8602268259962,36.6615065316155,-7.62423061360624,-41.32744154976077,-65.44677926358472,-84.06497994684466,-89.58639075296111,-79.73789285560309,-65.06934215395927,-54.8589592461645,-52.37340734436464,-49.57640036835373,-35.71172801288304,-22.41032660547247,-21.79577701821279,-18.21925996136251,-7.022926101628208,-5.351489581415542,-6.958550909291926,-0.9463029082590566,-3.964436217258587,-14.558609433474235,-9.261494094801392,-1.2446314824241895,-15.569432214969794,-32.354409554318394,-24.204658755976805,-1.1963982153852868,18.305526340486917,27.945098381888837,15.12363171450162,-20.868188309231495,-47.56740245053162,-52.89465911762911,-60.46886791401827,-67.26611530019255,-74.29697586208789,-107.27741267991306,-126.74237294873197,-109.72606133657331,-125.04368369453422,-125.0795333789134,16.637265959517734,291.4600691420328,665.4431353076408,894.1490975225836,442.5556567719594,-474.49774685933284,-787.088218557172,-338.99041174190415,-30.90162286145435,-72.97434902516753,-45.733663346145704,-5.784585232335729,-81.88791295118182,-84.3526563613096,-18.741483107351122,-10.98179114368492,1.9559622833988115,29.39161231255779,4.615233279371703,-18.713266661594933,-3.077222277042356,-0.39163004783134703,-12.413307596398075,-5.242348104711886,15.13120243655589,33.378818606889865,46.95377043858019,58.89228983183312,73.23963839177073,83.49886340988314,87.64103925111151,96.87849635348853,101.6024113846064,81.46576318819316,47.172865575169396,9.435591874205205,-41.15920428979455,-84.80189281171045,-93.82229428403093,-90.12596934276284,-94.20415565605232,-85.32231826361445,-60.73841510623491,-44.34936164421093,-34.34966335132479,-15.41259127789295,1.0677609639112724,-2.5166240137154006,-12.576948189119008,-5.964856064969382,9.660417674560708,14.910207386060904,11.68617629011152,8.95125977807912,7.745952926902043,6.767538392465516,4.40371238807052,0.894837775280692,-6.87018352184592,-22.980195410964782,-33.09790275506943,-22.241187343893476,-1.5211053196197373,17.22261419195678,29.84871126846869,18.83622388772716,-16.424977461138035,-40.16633069856387,-42.84010015652298,-55.86897878482954,-74.84167394549917,-77.87625439752966,-92.2393731954858,-112.26388418665445,-98.98570597495922,-106.31044905134075,-140.04734268490137,-61.48787232280745,184.04946654022206,577.9213977258356,960.7357423611494,760.5303395741014,-169.97765988448464,-818.9000759295039,-555.4627902294387,-149.58594380728815,-133.2523322311639,-108.69723363177144,9.754595190312088,-14.436565678066074,-44.50809765151304,11.036823059728626,11.554564056554284,-11.577103886164918,7.352687803464125,4.750166884773238,-9.983739349578325,-1.289479751416172,-6.930052149213659,-21.492431039986084,-12.086099038340933,1.3850105957077776,7.948953624085643,26.184015448010424,51.359043506265564,67.2538226869348,76.94890023800357,88.0626036320262,98.28074913121338,102.65740392373762,97.06099067629233,75.28622475198455,34.50219816850864,-15.286100113705096,-55.39805399576174,-77.67415269921665,-89.0066116563799,-91.81824916974976,-83.05219864599697,-70.16677396333768,-57.94040609518904,-39.72099907478698,-22.168001343234984,-17.664911354761173,-14.781031694495482,-2.8810489168490534,3.513568760348182,-1.4668144289044385,-3.188281285070328,0.7201537418494546,0.6322329737663033,-1.636842914710348,-0.22209832537517116,1.9126550352211868,0.4472942994760807,-4.123239520016195,-8.537285998629816,-9.560974354559285,-6.963452393133014,-2.742812968125662,2.2828974030000033,10.939811398906402,25.9683448655344,33.04021693039656,9.80943154151513,-27.789961288611778,-47.90376029729557,-65.9979348919905,-91.74005528650673,-96.40299140110547,-99.2432720640395,-119.9389134127287,-118.65199130390295,-122.38770264540035,-151.43005347864857,-85.47123617324954,134.90001877157135,495.19803497822824,915.3411909366711,883.8833811557095,58.00468515591365,-721.5301953381932,-598.1597740283353,-151.415796955988,-108.8059822128785,-165.22396078968484,-60.93120206434223,-30.09191820396815,-57.901459866615326,-12.546060500881962,8.36108940728791,-13.502971124754879,-3.338948735229309,3.369265997273491,-9.751747616981588,-6.806650052778643,-3.4944427038699466,-8.991379033412507,-5.005106666299663,1.5880254267204803,9.740461984484437,29.64870322251717,47.8903984555768,56.75174123424705,69.757310676607,86.90956296295472,94.86115175415284,90.91467725250618,82.66076583458161,71.02958961280972,40.847034504571525,-10.848602514751509,-53.83896275246637,-72.36931937092211,-85.08332777915174,-92.58099649476193,-82.01952272852168,-67.0790490495269,-57.001763145938284,-42.166178420334205,-27.86387445347348,-20.100197180020082,-10.18704574523256,-0.8589890990760942,1.5111270970970345,3.42346019257473,5.864376534710651,5.5019999845706025,5.782698270932979,4.978274443141171,-0.6787937978911067,-5.533310970819077,-4.073558220233238,2.652708955259506,9.873520289984306,12.125768793780932,9.910698474376554,4.828936201187354,-6.704254032424881,-19.91222195159458,-23.200670299533897,-21.10753708384887,-26.72074932830871,-35.63985179276547,-34.389383016569326,-23.03822158357661,-7.08784037616819,16.202649251831623,39.502326344304045,37.810967308154666,5.271465114731761,-28.61005246441366,-39.48259023290885,-42.52492900480057,-61.92907771728167,-80.31200932679499,-79.35357002233461,-89.9530501517578,-110.07113760335311,-105.6230197399542,-117.8216938899379,-140.81614221436155,-55.6737013329478,171.7418214687301,531.4905671193924,898.1861257986902,743.4398204426851,-104.4607994758689,-729.1794472888693,-499.28115238074787,-101.17510770634159,-96.01672372948207,-132.5970462030561,-40.62387422258983,-28.935936339636754,-47.024538463641136,-2.790041236345271,8.596143541474298,-11.874060226877997,-3.923253977423153,0.7019038945747753,-7.978951315389537,-5.480977829332655,-4.439585068146101,-10.508516492211081,-9.036204358972018,-0.9284121353594887,8.360059611523534,20.94669379195466,36.49005211886266,51.56939590600183,64.41711742688453,75.31694771009106,84.77376926411658,91.18895975134507,89.72094618930961,75.05947388865302,47.42603517339723,13.240442557346558,-20.864152368358248,-49.647044070388475,-67.55550862975785,-75.02531615999617,-79.21501431533507,-76.01846623038986,-53.76149445357265,-27.93012055114657,-26.99432275067191,-39.14442094074502,-34.27231727577323,-19.323956859542438,-12.40747509554053,-7.8456433502704535,-2.0379471876069175,0.4514298755464772,3.8479909616351335,6.503743405105883,0.747249040219895,-6.822490924220009,-8.852288265509692,-10.592300255566165,-14.185144231762411,-14.890070305546049,-11.096630477346256,-7.4774616501157105,-10.533173917691489,-16.001944116495253,-12.556772503531832,-4.032781812599193,-2.822914712723886,-6.849254627175116,-7.617475105323814,-4.4264528898149855,0.1670250022591908,1.8499301247646542,-2.085048450099242,-4.6228404242305245,-3.3438145729332653,-11.74473611976671,-31.90260417076759,-42.35333344670639,-31.115559618602884,-8.119222590495326,14.866093376018494,28.61762195529911,27.908673745370752,22.012360555520626,18.754277593651587,4.653291614026852,-24.463184361876376,-43.06850652239484,-48.676660406480224,-65.58965451965257,-80.55815494058237,-84.90284186999118,-104.45138972336916,-113.42948510223678,-103.17545418239227,-129.2754756711189,-121.2592244998928,34.65713978233791,318.0819628094222,712.9718945047179,951.2133726365917,467.9586839860754,-462.8561314390383,-753.3206228121164,-339.0184785786928,-108.87251647169272,-157.82522756569404,-75.5255079358562,6.842713905770111,-39.139168673313364,-27.42533346524175,18.904533862422188,2.7431327469505042,1.7677831549289822,18.971344520754062,3.9209152862503185,-1.5797595266698936,9.238321018870817,3.8513399323274102,0.09675559239178311,3.8041124834749365,-4.142559453706065,-11.059609484663667,1.617902677098913,26.096905746288144,47.82870071092944,64.9027632659568,82.29036032204223,93.73439230642856,92.66224599726414,88.867526706093,81.3589291743136,54.03460404789449,12.327913831579618,-28.001617540343744,-63.96370650998908,-86.02174173601068,-88.71595347413722,-88.46415899395463,-86.92844441536391,-70.63047070758594,-51.96922407993898,-44.97863029404108,-37.07698758479707,-24.351480649656217,-17.302859494056534,-12.622732906397495,-5.846284260198651,-2.7915797288871786,-2.1686683392168113,0.3870196511132882,1.623897314661214,1.074167364001866,0.6038477641195286,-3.5758757766034535,-10.578485566024543,-12.718159421426353,-11.426936401110364,-13.206264947987933,-12.741403415136965,-4.550599961876538,0.6422049044634761,-5.152337007005883,-12.097177361895348,-13.357775002257686,-14.054459248085767,-15.76177200732036,-18.52011277919331,-23.247151950642596,-17.899751306880596,7.969590091608642,37.687409794146774,45.25716693343561,29.117560691238843,13.44770438200651,6.874468831958369,-15.63512217373498,-48.79159796028616,-55.59777802075333,-57.02667935608852,-80.3140051911867,-92.69401853660952,-98.5705517076465,-113.93443759476489,-110.13888864471005,-121.88417224630558,-140.27693118183055,-30.983820597430295,230.697785550253,618.9659647871248,999.4362805097344,779.6579187686542,-198.92367707768847,-855.4842164077407,-547.7959235348467,-124.03756073005326,-126.61888955179694,-115.43831146597003,-3.460270765489028,-26.414835346013604,-44.33880651367852,12.742991666530106,6.698956998316085,-13.19279361178869,9.519615744959268,6.599242160443829,-7.548194556839935,-6.501397827137193,-23.827788941063748,-37.81753760536734,-22.383103105582475,-9.55221306235791,-6.08961136018003,11.374314049995249,38.73735573761115,60.16706256602268,77.16857477565237,95.70786436272392,108.94386843453253,110.07962930568308,105.17989452774826,91.49168308880067,53.54272567617784,-2.6842387879040164,-51.218833921059684,-82.00273669842619,-100.50450308427658,-106.44905672022837,-99.46065318979927,-86.39255103873074,-69.56738779429566,-50.253244173530476,-37.85687570715778,-31.310092027982165,-19.19928520654333,-8.18200385063156,-6.51845864287068,-0.9064626193700889,9.833454075694224,10.157950391578444,7.215135182244911,13.715798519194355,18.16777492544769,14.128546160710858,12.517193271120469,15.376017720618826,16.384693947464335,12.487733327870256,2.5853788782626825,-8.41428249102243,-19.891660995989632,-40.90962290713385,-56.79913068215603,-44.73878555623372,-30.34648962234622,-32.88144099225192,-12.014889239235071,26.36240176830342,13.564503465520119,-35.279751793082355,-44.82471467665185,-14.790803063797973,18.56664081642416,43.94335586587044,49.06095679799396,36.32942105434219,17.945128183970198,-8.772045226294754,-29.405325944331594,-43.08733663955752,-68.31512767871102,-71.00993503800446,-61.84426227465318,-116.53872670485472,-175.1271566394692,-165.1357229560359,-161.65012854076096,-130.2976181886395,39.27285287105781,348.05923049761884,809.2459461034291,1072.1173847055018,470.4510469274958,-578.1610279362538,-817.6929002741599,-311.5394237035176,-92.0314514218837,-180.89611013999613,-103.03625866310715,-11.536561488437059,-43.58180661812624,-22.16691729903978,27.905350146688967,16.634409571506055,4.555340131190716,3.7319984125076564,-11.030706201784264,-16.658514215009973,-13.639553981679496,-13.909195193422786,-4.995889471589217,10.077256200800782,12.006244249547423,6.861918647235644,19.180050691704412,43.426627072160514,59.568205572418414,77.24702080556861,96.53512378726892,96.56979267702548,90.25037712303251,91.67906523237353,75.03508842399884,30.430653068412287,-19.039219471415255,-57.25662235817337,-79.39253810261054,-86.65381145069398,-85.8607753040099,-80.81926320242263,-70.89201839800569,-53.362779706202616,-35.029209168384504,-28.410623551303708,-21.757922410934533,-3.367622578841452,3.8891463431067557,-2.9366096777071427,4.009049592512616,12.022595413352812,-1.7723358660953004,-12.08360160126707,-6.955070550329797,-7.407588967026879,-7.107926896819073,4.293002450679534,9.622287399706801,6.565548749899429,4.019841617120431,-4.63108125336414,-13.300339183188434,-6.284134962818381,5.4229743885202595,1.6137075877022689,-13.929372367497965,-21.852444739773258,-16.647835067487435,-13.260235663134736,-16.61136189051654,-14.705664081938377,-11.122157298945076,-16.21493038246282,-19.982330707384126,-16.78401419603524,-16.144840349787547,-11.513911767360673,11.01103010118406,36.92802699205923,41.52278319914568,32.434069641749275,26.4595642127737,7.29202596589592,-30.03199542608557,-53.94661348447349,-65.16214705587103,-81.0976065721918,-86.58889895804842,-96.06064479308539,-122.81399801394234,-128.0524878393584,-133.75020679681134,-152.72740173084756,-76.16395737711925,138.5413765808293,491.2027166910583,915.634337165069,874.8835174232581,26.184325525554215,-742.3488652652449,-578.2549154437525,-115.97708932543642,-87.0206719035814,-152.7168661940577,-47.89367268077234,-15.569468718833733,-45.10829925743214,-7.632493555935694,6.981348744285889,-11.910141873048715,3.0347603771918124,9.915961813604552,-5.290966236448307,-5.790615861188192,-7.547154983376665,-18.475735473516924,-16.99377703429556,-7.322958095506186,1.3802194466936175,12.42446220280922,27.787435544932784,50.653005380107984,73.98184621284221,85.47887528330948,93.33093175900237,103.21096375942415,99.17832514557544,78.4518436562096,52.23848120331709,16.51794757915771,-27.94774807010357,-61.57572997014269,-77.9367735425896,-87.42037915676576,-91.15516650983844,-82.65194585230368,-64.3462731607264,-47.045896102031755,-33.94914608862582,-17.569232635947913,-2.207820340582437,-2.1173412372033624,-9.699982062520583,-6.8273948346499225,1.7040679223535236,3.354910762018264,-0.2843238120039473,-4.405927253128333,-7.589864641047516,-9.20758149186176,-9.201602971791106,-5.680732788953826,-0.4002087674388761,0.7036234710584885,-0.3343395107668279,0.3400475076016978,-0.884547941644092,-3.8519783887065966,-6.693868408184976,-12.575050944510158,-17.533655553279033,-17.63156627097271,-19.80402725081352,-21.469838634958563,-15.401452265467803,-12.973610936649372,-19.814829256382694,-22.73621898532134,-17.608744440731293,-2.161951806989557,27.323000789826587,46.10755455448486,38.078275169826426,29.159436430744382,19.5670162388188,-12.822310626541247,-41.71683577119617,-51.675334445034,-70.534625180755,-89.30767968657598,-96.62945976875724,-110.85040101445414,-116.19862230286448,-119.61613383545395,-136.76512989604544,-79.35416937753574,116.4803709583635,447.12589252224507,844.6575026244595,854.6730965687292,102.19037314277517,-697.6332483615755,-642.7747491945588,-170.14357341141562,-65.40009658406264,-131.35057194253136,-49.31873639245966,-6.770092189407819,-36.12261650069389,-4.938470059134465,16.599474462873104,-3.479687385552536,4.510870299957915,13.225200766637204,-0.6154611806929982,-5.787802865846061,-15.101342280718988,-30.14878876433742,-23.619852161583815,-11.002146789359099,-7.1001524251616335,4.7071506576944895,22.436602717108112,39.48282490064547,64.40364345261099,88.47253165292128,99.20062600969418,104.70650039502628,106.5479862057105,95.1550717510195,69.02309969160697,27.612119646930402,-23.75402128969594,-64.91048103962753,-85.90307323727914,-93.43346626936523,-90.07786270811232,-79.06486961120955,-68.51755919150062,-56.66508389272329,-38.797617179090196,-20.556474585332232,-9.426076437053922,-7.043504691366181,-8.820012521354663,-8.215338389460165,-5.617737773923892,-1.7802245222737625,7.231381896130605,15.094333210339183,12.760302377722358,7.549891710600253,4.587749577770323,-2.2983914287908327,-7.988925327045358,-6.484352166312384,-9.167670024413788,-18.42732943642232,-20.648632907982417,-16.986639583363075,-16.85787761914998,-15.014957956753278,-10.786169470185598,-15.602347317723208,-23.41759107032169,-19.749058103065103,-11.898337962062664,-2.804494888394961,20.223463824243744,38.602866875318156,26.66646023594696,9.767306364146005,3.7733921229964924,-18.490201184564558,-47.781310189968494,-60.128081248693036,-71.61477614886057,-79.03409710402656,-79.51446979263253,-98.7788060831775,-109.89417387280727,-104.01862782873027,-119.33751616387426,-73.98014909105048,118.83931644349266,428.2176540885485,802.8668622660441,876.9592504031607,193.6844148031302,-686.3242426124632,-749.0781986519505,-264.26258036150756,-94.23605332215972,-133.1348350805843,-33.0847377952731,14.382680514451977,-30.43120729731208,-0.26443113221102266,23.95240866762702,-7.183378354002015,-0.2781508701743025,13.965662250705053,-6.438749927975374,-13.046345145142348,-8.3051294685457,-15.501628263791904,-14.833660149127876,-3.7627958795534555,6.060953071283372,18.229905611196227,34.08435773607859,51.85826986838895,71.47755951047617,91.95300900105018,110.20917855547157,116.80519008399048,109.88609055719121,97.37124205177514,72.26591042193455,28.298645592238778,-18.060779514996938,-58.534222324952815,-93.15676073834295,-102.75401093171453,-87.40978117787284,-81.17490360386785,-85.79750667865841,-72.20440558824308,-45.65207243700856,-27.92453397134718,-14.361276691766946,1.1081632041569343,9.690482015106571,8.587334320650912,2.4124916115057005,-3.999567554643484,-4.568532597937853,0.4130742576521751,2.9869089794438803,-0.005749628392724304,-4.775507218614962,-8.09924672886428,-8.366198194845104,-5.719613662321965,-4.350806111550721,-5.568029360503305,-3.5212039252727045,2.106711776871439,4.715147914253574,4.273818388513773,0.49157704941733016,-11.102838068267367,-22.881912023833824,-26.611110361456888,-28.7079218092476,-27.673032101237222,-16.371877934013092,-1.973375596799455,16.28971389400101,36.89324371382795,26.615058236447876,-15.522602647568764,-41.025691147142716,-50.189007350211526,-68.57145445589276,-74.69588466147943,-73.48414944058524,-89.85126103452487,-104.28581313635387,-128.8763481973955,-152.84247178727276,-70.5287021475799,146.000385089151,484.82696833848144,868.7782127082792,793.6374555183495,-31.872462782754695,-751.5308614108051,-575.8684422893824,-116.08548326298481,-68.57060841707133,-127.74309354807554,-41.36226881545562,-17.853633572563837,-43.2196794266629,-6.018778519459341,8.896875676448499,-8.85326136027293,0.41156611861160375,3.8300553034962395,-8.282421852949565,-7.951790562863807,-7.990486028774132,-11.999409453771863,-7.426586641991456,1.3099462059081475,13.715238085351764,29.59466876401853,43.41326242487767,58.117164826664656,69.76880578340587,72.88769989798116,79.69136553523114,91.6491848939826,91.37744462339957,76.22386575644073,52.41389748684358,16.549712123140935,-26.393359855492637,-59.72371103667205,-77.20156602947111,-84.39948189377242,-84.95220197133766,-79.09190253471922,-69.25895688752686,-58.15005685252869,-44.530296979543266,-28.947621450602327,-16.497436318439096,-8.488892546794961,-2.7400296570659606,0.715434985356552,2.7669881327224903,4.411706377859064,4.517960607890938,4.465733810498099,4.561004561935842,1.8493881036391961,-0.687902169823964,0.6465991421800599,0.35236227907275364,-4.096583817058196,-5.757789389035459,-2.3315400177752306,1.0760112686004657,3.226903183229359,5.832910220915224,4.190229568149405,-7.38315188613803,-23.181064267770214,-31.048712227137337,-24.83165102923688,-9.175773096829044,4.545913057910816,14.43913362449238,21.501243885792476,7.309224623360686,-28.716540119902817,-51.417169155185896,-58.843621717864536,-71.47445956381016,-77.06659388464232,-82.02796362004099,-97.95302760806011,-99.06247233728934,-105.4265542511101,-119.57771008069824,-41.54898705125735,166.20265216734938,489.2632566022926,826.1314956911024,699.6802765376851,-101.474414644977,-735.0491902797129,-522.6315739929902,-94.4040353435392,-67.47112340510806,-119.31698905382495,-32.64844255358952,-12.708361501957853,-36.02480078929913,-1.2962795666779883,9.617999766206179,-7.848828921735933,-0.20934866084754322,2.2435578930494593,-4.8418711526159495,-4.282543393733032,-15.489004117491122,-26.884428156724844,-16.295318011294256,-2.5642775074133155,5.591372670649893,20.272158138986704,37.259508935249116,50.15722255853922,64.89736080952025,82.94313776875154,97.34034759587117,102.95004492536317,98.51237338630668,81.62137123154858,50.40565730762363,9.775421655267323,-31.793159372586135,-67.34183505144998,-89.68628362293701,-94.83385625004422,-87.59900756344334,-75.24343161552395,-59.81575510913581,-43.27973989990497,-31.283247221647702,-24.004636516383208,-15.178806508274626,-5.219379366898828,0.8632345437030438,5.016362157709366,9.073721180202893,9.285655042094536,6.125853195139818,4.541781351864726,6.951862504779836,9.525152599209179,2.007094537874668,-14.612007838705807,-21.584694480064528,-14.462430347024291,-8.787765419161735,-7.64229483031486,-7.171997425717134,-13.081419089992547,-19.58842589453832,-13.872300096620604,-5.368377606017173,-7.888179265882712,-14.846993180978366,-17.30390202222872,-13.22743641590846,1.9584686081531189,25.05355601718178,38.05830184169567,25.07010903020882,-8.808476183992987,-37.950276844916566,-51.15098633499079,-63.94679373172068,-75.87002635033545,-81.45254685692188,-95.10554462395223,-100.79742179166038,-95.62880893574311,-122.86761964254373,-119.63471676697733,19.947787874353423,276.3172410868185,633.7740113724908,883.5215767903774,486.320331829863,-420.69461075867866,-794.3616290478371,-388.46062438686386,-65.48200609733544,-100.34230055764957,-75.5171870153307,3.782956619488388,-23.973695730443715,-22.67873788990135,22.93243946891438,10.037434348877078,-5.25161833250241,6.989379735307606,-2.703944558956164,-13.984223593865147,-9.55663191643784,-11.66193435044505,-10.741030079491292,-2.1993212284736394,-0.12046506825354619,6.138272424300814,25.688391042251354,47.12442514986267,63.39582416557924,72.83890911591759,77.96719855790809,86.3862570383821,95.90977675906218,97.43743751494674,83.36246278021771,46.94404408626023,-2.3438378592980427,-42.29255807165864,-65.70163182068531,-76.01878465084029,-79.34063486081648,-88.03103381911446,-94.72516642229954,-78.26791149952052,-50.233297388227506,-33.16076369012569,-22.33880298613093,-14.100773069476542,-11.19651405382863,-3.440537418822384,7.899443465690389,10.945526738092815,11.065212452280832,9.977771954085053,-1.1726652064539742,-11.414136777202264,-7.528621006666556,-1.6118760115442647,-4.002774807820742,-6.882370459585147,-7.0087309709780286,-9.61793518169344,-11.830933763615644,-9.085644766459936,-9.429025489786088,-17.005111451735438,-20.400881470734674,-17.6376402458493,-16.548433037992744,-9.946183046587038,4.1928482326714605,12.536992483833652,18.944775822620443,22.695282054277534,1.2763299803513029,-30.66979508875474,-43.4919780852832,-54.54030589664491,-67.8096864755081,-69.00450073398474,-81.54564207311762,-94.55046840477809,-88.99198482911169,-112.14088053007292,-113.70538300695802,24.448699012740718,284.0926784281321,633.6247355312107,874.9929581438493,484.63375532054226,-417.19087210488397,-799.2867268587266,-398.15882202855795,-69.64793793338927,-103.48822278229571,-82.95619341697991,-0.5978656347608364,-21.648943452576503,-21.132242743000756,20.36922822246548,6.4618338702749405,-8.990753760791993,5.426054285689317,1.8723068973338641,-5.6191511938515895,-1.4849577819092499,-4.50246983296965,-6.458169365134884,0.21178687468082646,9.400944324800975,24.673901526715753,36.19421196400138,33.29858903520464,37.198845001937535,62.07890319838812,86.39767469704424,94.13754093819473,95.1241632836536,92.17604705502204,69.07923625698842,23.016094313329706,-22.29827742748425,-50.932790797248394,-71.48615194797745,-88.57586273373202,-94.18215243794711,-88.43058167737007,-77.45589006417354,-62.695607064107314,-46.49410691712866,-32.06831392606996,-20.170969387359335,-10.797370674446519,-2.507613361341427,3.104184765662705,2.7359733371922914,0.9409040964264292,0.8269731002820571,-1.3409677042149433,-2.775491648732366,-1.7381249018952936,-4.199372243866392,-6.74362360409955,-4.681584129420418,-4.8019084538689505,-5.9765544342362755,-2.4927780410826266,-1.9591184601342846,-6.670299932576279,-7.157188255957003,-3.55919481002225,-1.4796397740968974,-0.7812305686298533,-2.159796259844441,-6.412364144718001,-12.24632053963478,-18.613951690085475,-20.168017282795056,-13.820609199507063,-5.152624210632807,9.165429386814148,31.723578372757636,33.57686677709718,-2.3264581030013787,-38.634864687256226,-52.46842005195265,-62.357411627937466,-69.21440703599845,-76.73374810002841,-94.64315932056019,-95.59836219678557,-94.27779451505393,-116.82252597539846,-68.05205094239186,116.63895272202754,408.5319169560963,763.9374208677073,808.4857842720717,134.73711478967982,-662.7399011348014,-654.2935915845384,-172.8092237109195,-41.27346867227203,-122.03977434794751,-54.46720129674024,-11.067282840854702,-50.50501888091563,-22.414149272589235,9.565982340445188,-12.501194429011726,-12.975340585983332,-4.511573648607553,-17.66037988225245,-17.094310450600133,-10.775388190710082,-17.460345495880162,-14.688035316886166,-2.414902745124606,4.876480879399319,14.29307383274205,28.101726878347783,42.312977642433154,59.95370918933385,76.778600810709,84.92187312676275,86.76840847528945,86.44483531986391,80.66476138795204,62.3820603212939,28.653048519117753,-13.838658108277446,-52.30790883820697,-76.55053385528609,-84.76691536936542,-83.12194620007915,-77.18735953087307,-66.80743933450023,-52.34717101121984,-37.327050014284666,-22.98740951212667,-9.244223548036917,-0.8303362928167708,-2.896426214838108,-9.218357850060034,-8.072345799780365,-1.7918249232136425,-1.046175016835587,-4.22375819847603,-5.431378125454977,-7.1449846382752895,-8.327095907533788,-4.333523662575438,-0.6382337457680762,-3.2171303685877213,-6.941420163980883,-7.571920981722201,-7.541300905396488,-6.382356073263356,-2.971815683366499,-2.7255260944119364,-6.625564249987658,-6.188229890992719,-1.9684496399165177,-3.130584327223044,-7.453981324538905,-10.76197875373226,-15.21720204115772,-11.80524380990069,5.898211861727756,25.036134424012275,37.26485535490556,33.491141253268076,0.3925620154451188,-37.522138778124,-53.30359936210044,-66.1327386099889,-76.95284345140061,-75.04224647912145,-86.80132748798825,-97.42876003253286,-86.69615527822137,-99.17110918000849,-86.91363080539563,50.5635364969239,295.3014994460342,624.6817656308576,819.3475926906831,380.94677383343117,-485.26743095033066,-773.5845286295734,-339.38323365930273,-41.0572890674618,-91.6288463182299,-71.43492755483535,5.388036003083911,-18.73460712224309,-22.949502239682154,12.108676174266805,3.7127955895361353,-2.4200199052329046,11.41196088645459,1.68223963035289,-11.110113034200372,-8.770887179203276,-8.788007066861713,-5.262582160165222,2.5387167159880004,0.18944096575213276,0.5816179119040559,18.004114817593923,38.54707977455068,53.87525763521178,69.7873027549993,81.52181153488516,84.2641213358118,84.8984070976274,82.93223741575302,68.7730798256498,38.306184092024786,-4.838596761531644,-47.220487834672085,-73.80372941602018,-83.84194949100575,-82.79343129803152,-74.79805789836763,-67.8708984145822,-61.72015277336247,-46.96750429765138,-26.8429952534102,-11.841610708632995,-3.519103544044409,0.06409311764085857,1.934984620675536,5.837170723354475,10.304021359511886,12.628011842724653,9.79263915379731,-1.213797424148769,-12.687688868767523,-15.528560232258798,-14.362504989294312,-13.478786327419405,-11.520417667177272,-12.211385073019615,-15.165676430254418,-13.451293426576164,-7.684774690671119,-3.196195967028718,-3.657926874799484,-8.815996623566889,-9.486453870079837,-2.2416052781821634,2.563283113304916,2.6300091139173496,2.627619699894593,-1.328446128820909,-8.611461627156407,-10.807411973765937,-5.601579754457347,0.7126888188681306,-2.736785211306989,-7.052593129899767,10.2655288787669,22.94773186945254,-5.427309829906807,-36.48178403088893,-41.9442811600461,-54.6180805147805,-66.91948126095093,-64.71151278247842,-78.74476641296431,-94.9126928224915,-104.54431407181625,-128.5694902134795,-83.43222411717733,104.73745428949849,406.7031063420245,749.4456379364118,758.2010595041038,74.43971873455226,-689.5234689491033,-651.9348293502045,-169.04871856896926,-32.35476995836451,-100.80766481548494,-35.12547738199635,6.547655902373094,-24.819614230187074,0.8944778342486348,22.23348948013528,-2.803268767791179,-2.874513345737694,5.874194864107239,-6.567752071390071,-9.138046073067047,-4.3754517901007715,-8.517439671334033,-8.44257134728817,-0.7121785524847368,9.816064850581435,26.27014042826018,43.34723832704289,49.847256626638156,48.51295191664934,55.05435254445409,72.86141584369483,84.66966699790102,82.589358822364,75.80514395663704,60.65825234210568,26.175316674647114,-17.183643276958485,-51.56978153252641,-73.93980957606287,-86.25485221251034,-88.18029601229475,-80.21831874563992,-63.505790949352956,-44.946294676853604,-32.21144561921905,-20.751745867757045,-6.474232577159789,4.163488025666133,9.038070148237411,7.6136270049568395,-4.2691864211901205,-16.645109552165742,-16.108055698240307,-9.986865099557793,-7.384922505649271,-4.374855671672076,-0.7274101413581633,0.138443120690404,-0.7984686490907613,-4.519674419427826,-10.990060770596838,-13.749504789866121,-10.577526601848936,-8.714052879908493,-11.217750375747666,-10.070598734576269,-3.041710642571436,0.3303437070332933,-0.3574025534853629,2.1978509233275663,2.839163571977055,-3.7853616836083397,-10.229325471982541,-12.300061908802693,-14.029012442975025,-18.00913931195582,-20.37244539251511,-14.193196644784981,-1.203924787082185,15.95519928698309,35.63861644301072,32.51051405666554,-5.174191659950914,-39.63347266807824,-56.50503870657863,-72.27332250973488,-75.83493700431804,-77.48412567886693,-93.68144704108538,-94.20505479591489,-95.87229219657759,-105.10436310402605,-19.89464586175285,191.484332320083,497.4033983408746,800.7928036359781,648.2008723609542,-155.65351163970902,-771.2773505759816,-547.6242908187361,-123.65616372054811,-79.68657238475434,-95.67227861097506,-7.5478757412103334,-9.526553192346014,-29.191170147301285,16.24504020417894,18.358477053342916,-3.4303139969605114,10.425472886467848,9.472335908661282,-5.011850211650925,-1.7295776873966453,-5.294475520137421,-13.776955969287739,-5.2498899047635925,8.986242346378218,21.84963918246086,36.18345298096551,45.750123215729744,50.57709722210654,55.45916012319398,61.19383850453145,68.56350618677915,75.2827983025969,77.66505299079276,72.95085269351326,53.44881643428748,15.205058984232526,-30.262585252947368,-66.23310833178283,-84.50478473893659,-87.13848020727917,-82.28574843616255,-74.56852909943183,-61.920348079684956,-46.671570919375704,-34.90210825497573,-24.762922337306797,-14.32564980842632,-7.1184308755156245,-0.9205440608988802,4.259018922683291,2.174091935549189,-1.0425257905194236,-0.5603767481495545,-5.226989380950908,-7.384095730035298,2.388047523784458,4.3553143214965715,-3.8483953433609095,1.600611160726661,10.272084446417578,3.1461830572280682,-0.632714522318583,6.56140033261942,6.126866302942169,-0.6664217933175962,-7.887004673941597,-21.14175699980325,-30.902771867603093,-31.32710112876666,-33.81915257779036,-30.93230376108503,-9.698439129316377,16.789182966151404,29.2179621724322,15.196526395837491,-16.765512094001274,-37.41760283295279,-51.52493660339447,-76.00772550706931,-90.00770686766899,-96.32707663654193,-105.67313531617134,-97.40212454733859,-104.64826451545608,-115.25825316477764,0.325380980111305,256.01612567465713,596.9011272456762,907.0339077248861,680.7827772908105,-245.7277356414131,-885.9997990656614,-582.9367041504466,-126.06571897366544,-100.7228793347386,-89.55772026398282,31.644274790963202,9.917055155661913,-30.781941138703512,13.242718507141504,3.2422306934632346,-23.048573447467888,5.683758022209497,5.3267040602094005,-22.071560083519802,-17.476158188852782,-11.83082893175228,-14.553610776479797,-0.8925232696266105,6.846808132302177,3.685421127128576,20.25156352592369,48.196790421456335,64.65072039638963,80.27822570937361,99.58501094333484,107.23905633668244,105.96456872015978,104.52669314014122,90.32312638150367,52.37114252657397,0.32974721260141937,-48.37471572251515,-80.4101823240495,-93.3143452039196,-94.04017820721367,-88.94808950775774,-81.64531254051526,-71.11522698232987,-52.47475271935522,-31.001335482249704,-18.832815230230743,-15.23473789851645,-12.72836520487041,-11.047230406572908,-9.345770159993606,-3.890010985976758,2.233352618181499,2.856309026266395,-1.7105378709237797,-6.99501908169707,-9.158769205794938,-4.991239004095055,3.071446146446613,5.00296753964448,-0.4338969271593722,-1.7972593649556927,0.4531959251557822,-4.216706177175201,-10.484368691554923,-11.676867831440823,-15.680014752822114,-19.305018643260595,-13.354587315876348,-5.179348183239831,7.090361108209503,25.916774754319903,21.029565892215754,-11.542512321116455,-34.289696651476746,-52.23629115495068,-77.70995158582691,-86.9127004865449,-98.43916433598744,-120.83920313411089,-115.83441973894875,-120.12632581437036,-126.28025596345535,-6.540086903135631,247.9695448622253,608.3163348367635,961.5682630422384,730.7252413778508,-256.2045885674976,-913.9793420229641,-569.5985513842357,-99.98356021357137,-106.52810699093486,-118.74019659556532,2.1283298717466437,-10.837279946708165,-39.705220576677675,16.695143051322976,17.351363940249726,-7.828173502898809,11.744304586527122,8.79834514619209,-12.921185270351199,-8.357601361691984,-4.273384207026697,-7.053160645921316,-0.3301599230251915,5.548988073673479,13.165973832754592,31.454513171863365,51.31573491116184,70.6660835875583,89.0703786990116,94.92311257064861,90.32548828021386,89.01999886739355,86.46590650640971,66.32471162190893,26.87047942360609,-19.18980795800065,-58.60144961048806,-83.0082144666248,-92.3843167280811,-92.86781363723077,-85.77395874990974,-70.63848692698294,-56.120351541675305,-46.7751558848891,-33.12159676860314,-14.516431477285757,-3.9561888005550685,-1.5859560650193032,2.470213700873529,6.856705126024096,7.113699022861745,6.112453910514139,6.449055320276408,7.106922324997782,4.082746848425147,-4.323178570743373,-9.732827834673348,-6.930618768346044,-4.780824990770796,-7.395245574152161,-7.656635844830021,-4.3632711434855675,-2.3183457478468608,-2.836928051431478,-4.720546741741142,-5.7520620536137255,-6.8234205961513155,-11.799516141037403,-16.258084999636736,-14.263825064577663,-9.313911038521727,3.7906400234440873,28.31656343921515,31.82978295543126,-2.1609638129245266,-31.93912712730799,-41.62089980753305,-56.000967283677994,-65.24435032370138,-71.23050085216222,-98.16452332087133,-118.68024054563651,-135.09696626730133,-164.26376084192862,-105.18992669096508,99.50756947790123,423.4822852706211,838.0094299241997,917.2739971465198,183.7824302508785,-697.9580616618452,-688.7390465995838,-169.13682860996227,-44.387885190847825,-141.82985346034664,-65.95135012752257,-17.556279782957148,-59.54547582681286,-27.680852570554705,6.716405869493073,-14.816538034602274,-11.041887991858497,-0.08706943350633711,-13.206681956206182,-12.555583049730707,-7.774697151227739,-14.45286770253007,-9.124746695171506,2.7405279869544876,7.846828171429879,17.934010754576157,33.99682700330893,50.55576267562799,70.16039931727369,86.94078967007736,95.87800345103138,102.49254514083303,102.94446175116624,83.81445391181214,44.543652432352935,-1.03374343393534,-41.59244192830987,-72.84492875132888,-89.98297674941315,-90.84411886388736,-82.64914680949121,-72.95435518570694,-62.56646085086144,-51.34536670493997,-38.50911538251173,-22.940994196746995,-9.472512164893693,-2.840301444365796,-0.2759034199543038,1.3717381472438213,3.056189261309356,5.819917703013935,6.5051649360797335,1.865341081395906,-3.983294685813455,-6.456495112089094,-5.653322789708984,-2.460501808913138,0.5169389286396946,-0.09828218411003142,-1.9389361173549204,-0.3536614403000051,3.492796186714685,7.529867494022359,12.740761795315409,11.872573910179607,-5.004887268404751,-24.49487930349661,-24.63623507161371,-13.619581863533497,-11.033636482082358,-14.423772531565469,-17.70236578999811,-20.49844620025147,-14.103021847866884,2.5791154756815633,18.767218727336214,28.752280976491026,18.91926237665251,-15.679809270810944,-40.84676710584391,-44.11016979350183,-55.42892373611164,-70.05720843211414,-76.68404699085346,-94.89465518997469,-105.9812275288158,-105.16073725604898,-125.21567042320089,-96.18897564541166,64.25328129952217,344.2104490119134,714.993673790304,852.8845919072966,281.8724712541738,-572.0471207990213,-706.592401746668,-234.102001419136,-30.01384094060863,-118.18011460019595,-75.87014373330886,-3.749995406854552,-33.91141457429798,-27.407499421755542,7.637519825176312,-1.4688552022600945,-3.536927643598064,3.323360254818324,-10.880985267632031,-15.114325844071043,-8.208565304488593,-10.826589633735487,-9.205237628039718,-2.4107046601088076,0.7287068751521524,11.354744665398558,30.82190849924218,49.96173531370357,67.01588097205439,78.41179970355799,85.42952696463314,94.45051192300929,98.77628521992676,89.89762994690678,67.04783073874293,27.425586966449828,-20.72662050150129,-56.501638767159626,-74.24009345523574,-82.66147087106374,-86.60995214607506,-85.74310737575472,-75.34562765413098,-56.40681251937741,-40.043365239200654,-27.327632159135966,-14.058775107114592,-7.1182633960467925,-4.436506571667355,3.958251555808424,12.066408179058977,14.679498297571522,14.190796816273696,4.387945223603754,-8.795686322226395,-6.943831151779598,3.456312318002194,4.130595890584058,-6.305866953541901,-21.496051471930734,-29.698559847151962,-22.930204423065142,-14.399899957716414,-13.008328674883202,-10.076060079464416,-7.31843218445017,-9.086785236390376,-5.785092493565713,2.050917443968034,3.824595189739819,1.9525811316010397,0.44715614928003333,-3.8411639400228843,-7.673259234510091,-7.366600886798757,-8.533626075365303,-13.901078782530938,-18.56625501877239,-21.070798975232897,-24.053781987597162,-23.989123981625514,-12.400403972220253,10.17947565939821,33.32260481257646,47.768136760583204,41.3167297341389,7.677345399797781,-27.178734238166637,-42.26026749927999,-59.163016849940405,-78.36123095168601,-79.45902196555645,-89.05287029079545,-107.58961114938411,-102.07848525258647,-112.25449949050852,-120.93940302859886,-9.15290361667644,230.12327634223752,559.5093821362691,835.5229626591815,569.4432265082175,-279.11675247459056,-762.9793176910031,-429.7067660452625,-60.775731865056464,-89.66912722266831,-102.19719907764943,-3.649912196787966,-8.900479407194048,-28.5312922933972,8.485546154091848,5.578274878319039,-7.389900802139801,11.82051962252462,10.86825575707703,-2.005483977886051,2.944418844764301,1.3590808843415156,-10.875706063588696,-14.732903435095748,-7.320393019185483,7.295589314275562,17.601380549076907,20.313157738674207,32.49483324669797,55.50458034475986,73.33250934531657,85.92186190063106,95.48469787230312,91.09688991045772,71.75329590091101,45.41251831035127,10.274058472934325,-30.34297778621926,-60.73486744201831,-78.61541667444095,-91.81586315965473,-92.48962481892644,-76.00647081917876,-60.762307276646496,-53.094874950865176,-36.87281867907504,-16.557117958559694,-11.607585108608781,-11.702110542440924,0.899798860588529,9.466627162112196,-1.9962392608161892,-11.676246762109159,-2.510226378410092,5.578540735899555,-1.4881689594534429,-8.003561289208484,-5.547797998286796,-3.5034967726497115,-2.998093338186875,-1.5427880702965329,-3.948773599961344,-7.321806132464117,-5.465044408891554,-4.348980549872454,-7.220425000279645,-6.768868452584652,-2.0323250003462405,2.079043215657425,4.195430181169417,1.1937323537933047,-8.220138955269134,-14.676577276685848,-12.631603016131612,-13.093549402693473,-23.33771833618673,-30.915015932269803,-23.570543722129784,-2.948688101223997,25.288181716440548,48.050640856420934,45.339393086537086,17.021443792382787,-13.052992912792869,-29.911099459074066,-45.17253439518831,-67.25070479349287,-79.33401606178305,-85.34598069272762,-106.94842077939967,-116.0740312136695,-107.19908293945568,-125.08020964988536,-100.05278408535389,67.20631377468794,346.03001645249435,699.7448629490231,873.3651511768816,369.0190044943954,-530.9939074363355,-791.499112614536,-344.21394263012485,-70.87855407925073,-118.00626480325062,-69.64510387464577,5.810022259313271,-26.80988541904196,-19.14383169659606,18.07130097227892,0.4699324384750909,-4.021406626727421,11.914685494413465,1.168712875041277,-7.249017830328304,-7.1301770283680845,-17.23790664954029,-15.762619132645035,-1.6838427069380497,3.5161755344659094,7.772856429004587,22.236397824160026,42.905370761861406,66.50673084467121,87.01639199911097,97.22638301139192,99.57283166708635,100.4185497589801,95.76317063492722,73.05471050973657,33.068298591677404,-8.343237217643841,-45.27161079026028,-77.90764577010847,-93.91888825049955,-89.07601751970121,-81.2332513279713,-78.91643305806734,-70.41905318039454,-53.05987142491412,-37.06653328990741,-23.102150005838496,-7.435609120354929,2.1059711575429922,0.7037542416976308,-1.6430673149668955,0.9222397284099415,4.118360776552306,8.277415041418989,12.022017922793314,7.15367877747131,-0.3491764929312069,3.0753706741692035,7.780537454302102,-1.817893621810775,-14.692158444477231,-15.84973782160182,-13.263814927780107,-15.868635505087763,-16.14460529941757,-10.111717789426372,-6.682390678631165,-8.443548772623037,-7.142487380426795,-0.823317485352753,5.233865609986154,8.52214391901089,6.7139372190897895,-2.3121708364556497,-15.812436270121147,-26.747732054900474,-22.893163868085754,-1.938876885718484,15.378800369999595,17.24362601717894,10.149025502172522,-11.394675834124538,-39.24299543918964,-48.514138377984814,-56.36838982936719,-75.98320772065117,-79.86603740101351,-84.20044490359288,-102.48704213257972,-99.51676542829995,-109.49480649918748,-134.15851156762903,-46.44231706473202,182.96605942828364,521.9468747829293,872.3006326710495,727.3178360640618,-130.6854717473285,-782.8745452128608,-532.5737227752705,-85.5585733022361,-68.06450243853797,-113.70665003287274,-19.236717707166974,-6.873532454811013,-32.715598231497125,4.660339118807341,11.026664524869219,-11.838683788548554,-5.347785661081247,-3.7597086048457165,-11.922712370679378,-6.609269343635893,-6.945259055206832,-15.930353679694074,-14.579112329856823,-2.7504108693241465,13.16779733690967,29.053727404652914,42.55905644588843,57.10112697346325,73.89805281138368,90.86612520469849,105.18264477909919,108.13965577964326,92.6343701624391,64.7487812266042,32.87420279631886,-4.449302627306938,-44.125131390709896,-71.96538293740167,-85.3638856232391,-92.60124677864292,-89.77753503627372,-73.80683879453662,-56.52959412154521,-42.94910295052651,-30.140330127066118,-22.721716300848,-19.391120446233863,-10.583388420136181,0.9531129896268489,6.140688237948012,6.2764833902483765,5.711979142995277,3.0814675730245042,-1.1944130240870319,-1.0751000783964653,2.8417288348412164,1.581968609828449,-3.734856986837743,-4.124451030431265,0.18285754485166983,6.218606631804963,8.919839675215496,-3.420624914697438,-22.52227573517593,-24.87402888506861,-17.189024764487584,-18.143740939360367,-18.433776952356784,-11.697630325282077,-10.461317163140837,-12.103998057858341,-6.866902644435649,-1.0385745339275676,0.6629338475866646,0.065512153896357,-5.216267008115349,-13.525692011835098,-21.29082820406447,-28.022128344868914,-26.173971344927075,-13.513855539549464,1.0359656528926688,20.148002726973317,35.381652218699884,15.381883420291924,-24.760463555874914,-41.066368783418994,-49.78970672755803,-68.01796978956455,-70.93938392815184,-77.18418456822678,-97.73186443561451,-96.64539303579157,-104.70153264937788,-119.07346649747771,-21.84282232701527,214.30826026973583,551.4547329912241,849.9157440451246,624.5447523421836,-225.116713030257,-777.5035140436613,-478.99728547329687,-66.19445261269392,-69.02520748068034,-105.12634626661843,-12.969133516767798,-4.599527015451031,-26.133684016926196,6.6156042983412355,5.806041609154473,-12.894256517680626,-0.3088178045635601,0.798873757897991,-10.70556913317721,-9.228034973164153,-11.398085190487109,-17.00223263113017,-11.829799742297752,-2.6248078991246135,6.5643066961612995,19.269518280740456,36.10159133996642,56.02643056732952,75.01473662507557,90.4949787438319,101.7845862588681,106.82572204450722,104.28262035834791,89.43852673452653,58.676511039371,16.563789094863797,-32.815528456742214,-78.61255182238867,-100.28079869878914,-98.14338141253539,-89.883653188209,-78.80131499529577,-64.1496023384137,-50.84046288719635,-37.16555494617376,-24.734484943150456,-18.340696456596522,-11.980468062059131,-4.31300969733503,-0.7779893454837179,4.230258664885227,10.934844368653337,7.3293586268867905,-2.628013468205591,-5.521725643660641,-4.950950351949196,-7.907042237247271,-9.717615805384845,-9.047979601637447,-10.809676064857193,-12.486139047887097,-9.724611460603686,-6.640643028912571,-5.604747600258605,-3.7619631916087055,-2.8186220884235134,-3.520053165438135,-3.8799766382373733,-9.309910073815619,-18.972846733454848,-19.870919913453218,-13.637045441794939,-11.78756968869402,-11.037480844070434,-7.8302025090403085,-6.178899555526925,-4.671688994914803,-6.008467724092252,-13.153809780709029,-14.779806799161396,-8.87703787435035,-7.612614908088085,-10.077707475346665,-13.128971523201674,-20.52312467273193,-23.31618376258149,-12.783981331703897,7.9837539596800875,34.97697894352221,47.85174353389033,30.681618429647035,12.77548356926916,8.432958371208855,-12.335597591939866,-41.852762180361786,-54.104779045562594,-65.08424104502409,-74.68761021924703,-75.60053215625759,-90.26109011970746,-100.95305311726366,-98.18494946423232,-114.39990219872244,-80.43788455672585,91.75490513777123,382.5503051510168,733.3646272870977,818.0093090189094,218.78377179441105,-602.0073370534353,-699.3070894973329,-234.45493207758395,-40.96650545300172,-113.99614817963865,-65.55429749892713,-0.980178618910216,-26.473681468386715,-14.264831100118068,12.515135733446087,-3.752737860701842,-3.283177284407456,9.181100453687376,-1.503738457323455,-8.411494624110809,-8.14999247370774,-13.535877492396438,-9.592559264328177,2.487642318433963,11.600965794923464,22.090642298812874,33.73095686474173,47.01239574988025,65.57253645174828,78.00182787035598,78.98009995332806,80.85616719131056,83.38952849515218,76.96976551603673,63.83894897626442,43.529380161511874,9.293296974544287,-33.16384132033033,-69.97483301200421,-91.27114486532392,-93.89578142012618,-85.39854474497409,-76.466059451268,-68.49433987802844,-57.41980741923501,-41.84563343171094,-25.59067511590421,-14.09782737431268,-7.275561416566109,-3.2553425555435282,-2.548254752799295,-1.956931138089839,1.1389907939174861,2.7987094037884788,0.9335742431796028,-2.594703737026972,-6.012943867773682,-6.869173996822994,-5.164539382782266,-3.0337882402947187,-1.8969521785240104,-5.32244775023122,-11.833310065843616,-11.872105871437444,-4.824307743924418,0.07681000593323795,-0.5758490545664579,-3.8627243157999978,-5.620605473099099,-5.244541409175975,-7.147058048050287,-9.487513486123316,-8.056748366254991,-8.231216523758015,-10.449594167762974,-7.2476933360955105,-0.8684908842641708,2.641314592096119,-1.3490042108525166,-17.647895390893837,-33.72739428732329,-33.309052142499226,-26.863824651880797,-21.9391158236607,-1.6133218803938076,30.78023124638314,42.68153970556054,28.792245712667015,22.220952413974615,28.496005322409733,10.13622490780518,-30.513293231914744,-48.64863559515405,-49.49831332383076,-60.33403347468949,-72.63671524658679,-90.4144562474765,-108.89002295391064,-105.13957341088289,-113.40322332627495,-118.12627016632922,-13.168228036837874,215.07703765506906,540.2605957751088,819.412634847773,568.5949051446308,-267.61273335239866,-768.5602732366206,-452.4041110852252,-61.56650790543261,-67.90776621460296,-92.1879998091601,-2.868360263806693,0.7328439301626304,-20.168273495035887,10.36298723240921,12.003846083122829,-0.8825540496449591,8.259745313432779,1.8891001491693642,-11.960166524554083,-10.839205581574726,-12.638479396612455,-13.92153545512302,-4.590150451563488,1.8552697784375543,6.086189105196553,18.583511589800224,35.058311071975226,52.65151918134101,73.64735734222023,92.60180362787611,103.18865578675562,105.40666226088057,99.57388194243809,82.76959011758785,51.684723292210336,8.315620475615729,-37.91473638484657,-75.80322127470765,-96.62893213861469,-98.02759419618094,-88.99109455060676,-78.52976172902368,-64.66827836690796,-48.706678778303456,-36.174922774356546,-21.15317274279564,-5.223095558626348,-6.5107535188435826,-19.246826416336305,-17.47072598595807,-5.382509657394216,-2.2716941002624083,-3.025079736221457,0.25085194664812605,0.8461990132635293,-2.008980246765283,-1.9005123231152439,1.2723055722206134,1.1093312616871032,-7.348484375898156,-16.968642060003496,-16.148104599666965,-9.046939511394104,-7.692074439106591,-13.273359131422016,-18.772809038652696,-17.17566734297875,-9.861603706346836,-7.021164836606122,-9.104500361674205,-7.087094058710598,-3.7371553558676744,-6.226072578329614,-9.580084732348721,-8.732100242076573,-7.273419469686141,-7.1499340712708594,-6.999319894626936,-8.096058742629873,-10.927519547231686,-12.406704653062558,-13.050757792746019,-16.808227847490897,-19.94263242647049,-12.0063897770082,11.667388150949979,39.81060099311668,47.451336599811604,30.795435287595332,20.53781822648019,18.805766016291948,-7.141654429207977,-41.480827100540694,-50.80591430724122,-56.937944103970324,-70.43858818274555,-77.78428476569731,-94.05067885808131,-104.015788968983,-96.02279889770742,-115.17249293862355,-105.60676302374442,42.035802156064534,311.43981815794325,655.048247658408,824.6186578281922,353.92325539517924,-494.39613490271705,-739.594273677291,-302.36962862987787,-28.800118192217255,-85.99045679310939,-62.25662550090556,11.488308237781766,-10.752757994243368,-9.465258757216649,22.846835911007425,8.318369360737064,-0.8510979005610952,13.845501950699077,9.95964272590792,3.054884135560651,7.015342626227419,2.5772515334496977,-10.097160436756367,-18.690811394958914,-15.205757331820609,-0.27578160243433203,12.3482086065872,19.469063432114783,33.50107781923109,55.457098225871704,74.51871541973054,86.20431118261043,91.73586164663766,88.82644152899175,72.15082531664564,40.60242242697265,-0.21554403763383512,-41.409850366029204,-73.60146927742247,-90.46220287474,-92.22941609516982,-84.05837380217935,-72.11650686081192,-60.30492773708905,-48.85897418222438,-37.434090394873095,-26.627445795804007,-15.793659929259519,-5.491770603737493,0.6187134911220014,1.4663977379864868,0.3684182976675636,0.5454619882466325,3.3434383591790464,6.559557772256184,5.7271537266607435,1.6760986324862834,-1.724572744573134,-5.812892573273579,-10.705218591199078,-11.472394305120583,-9.830409187875766,-11.930172788597726,-14.294269558928196,-10.602452727087393,-4.683443197863443,-3.1045309947064688,-5.175636004208545,-7.055804413248971,-7.54671780468593,-6.957432657051564,-5.197824668998276,-3.787880219340485,-5.726961224810832,-9.781528956089549,-11.257431239086568,-9.919526175707396,-7.880572804959376,-5.012153629139011,-4.355003035458932,-8.276202275007714,-10.74193512754782,-9.175182239765824,-8.331380059657608,-7.704651785178735,-4.805422069444723,6.6118026643305425,37.53361472204025,65.954542400224,53.07336937514848,22.033791849506393,11.029487580123876,-12.40268963106154,-59.42325879425454,-76.0305674643397,-67.86151606526028,-76.84999384161071,-85.85145793769495,-91.51043195261288,-104.27705780449554,-98.32991187253099,-98.74407417737248,-110.1540603375873,-25.334260052210368,196.57054546016545,522.3755731864802,819.0515540252137,630.1418978067052,-179.38382125735856,-761.4979361744047,-517.4580132112375,-93.52252554153041,-57.322307278330285,-90.19500789348771,-4.304002635962021,6.4494880806659936,-20.65333091587073,11.51630644611532,20.80478747388858,2.703051350161253,7.629559940313053,2.6606765212567645,-16.398174441020494,-21.512978140116353,-23.154297288495314,-20.975933707237726,-9.660338735714618,-7.909652495499651,-9.509624101515845,6.232509781751158,29.324806131351416,48.38295562962474,66.42258809022422,79.39862566575434,87.39117438371467,96.38114480594393,99.41203072218848,88.19990386811244,61.8943986520512,20.566593065452466,-25.247917654364976,-60.424495683215774,-81.52477130229741,-87.95691835130543,-83.16522130230159,-78.75175822667175,-72.86925992899475,-56.9196447521476,-38.66094519102694,-23.628405593836053,-8.627761190647657,-0.6912742127195521,0.08775497925254427,7.558601145900317,15.516064658487009,5.527440665534698,-13.798117315195192,-21.01847847018044,-17.04188872246314,-13.801474799073539,-10.419190460701525,-4.463499332378191,-2.601106801847614,-3.889136466045116,-1.9134316145550567,-0.8412456837578883,-0.07305722233219036,5.255021563554266,-0.08286995669023867,-21.275714842373695,-29.34107701164222,-15.932747306223684,-7.631582526354723,-9.794228672419074,-8.718598475952156,-8.371646446603407,-13.432603577185507,-14.388808845693134,-9.51626928581996,-7.94419493318162,-10.657920299620603,-10.339198231090748,-7.483097629379692,-9.850590809460613,-16.34115509859511,-19.339708807629798,-14.559524282591093,5.226377420446969,35.02099669850013,43.27290153869995,25.043147724506,16.739108731993788,13.418512984769528,-17.46030973568163,-49.96153791567974,-58.301267291005814,-65.84235064555511,-74.43692785377803,-82.55285184569738,-100.88094295240529,-102.07506981146201,-97.82338342810534,-111.94526881135306,-50.506843833458305,149.0519313967039,459.37290217983553,798.9755012292535,751.8846626132755,11.84727696498831,-710.5975617994076,-615.7247690548187,-174.16000790194857,-75.36892926716392,-95.10680757032947,-2.0847008126896753,8.787691498704746,-29.362362450622236,7.294964445716291,18.05066879614045,-9.37353109777547,-0.7796207991361861,-2.4038610939475555,-29.41211937969686,-31.096681686128356,-21.04716064040516,-21.112230053326677,-18.103503815970882,-12.04583562207036,-3.0491239957238374,12.989545429815628,30.198370143267784,51.10287524675758,75.29890422044582,90.98668186167353,101.25901596794718,111.62063594608176,113.77228421890486,104.32493702341225,76.41339370164079,21.417149783304474,-37.25353763625478,-72.09382188831785,-91.46196646400061,-103.94426837487065,-101.70519041982831,-89.48555102458047,-76.10463310507818,-60.88500627336682,-45.52741912138278,-30.678829684689916,-16.331441555533885,-8.782393429766977,-6.069897871720393,-0.6924948441449779,2.227742122529417,-1.0984526858505035,-2.814810478416284,-0.7581557485660007,0.2095900554557062,-0.430923304829566,-1.085035488429483,-1.8291520169813786,-3.082453449569705,-4.699570727143634,-6.078782833493442,-7.07112090180069,-7.579153585472271,-7.662725798974712,-7.107580632310388,-4.2068803086415105,-0.7182230758004344,-1.2003637570284127,-3.702400480785121,-4.5714494119396,-4.810839906354486,-4.106922827246279,-4.453807466922138,-10.03611570266102,-16.2513198096481,-18.071990560259664,-14.916664621599761,-1.5429302471257742,19.85171218046857,35.18868848113942,33.13729919947795,8.343697512375483,-26.34954443935937,-50.1242970163175,-67.36017700140701,-79.12465006686607,-79.97273858954782,-93.66028122960876,-109.83362210102734,-101.9679529721123,-113.19259780558976,-114.2265022516749,10.96739296436003,265.2034273087147,617.9670085810052,885.2553778168405,546.4853295845905,-350.2443258154669,-791.4338098206339,-413.11941728592865,-53.198377870849754,-84.77051570311815,-84.07930826248668,4.211751069435991,-16.190673848652757,-34.359662596838085,7.263357378101748,8.512787233053707,-2.4883795958545853,12.149415367558746,7.607285738909621,-8.534793570894095,-8.372854067514261,-4.216736249007287,-2.2037641782770536,-0.8209843102177437,-3.44718403797901,-6.2307175016540395,-1.127800851746505,20.34952268521213,53.15129529009518,75.53168430591657,84.18604618980984,94.58983664698083,104.2110017849672,100.35511332698657,80.10421949548453,40.694416408876876,-11.785314973039766,-54.955767672467175,-80.29882047336191,-95.38703920977579,-97.05844628675872,-86.27089751879355,-77.8000166417921,-68.9923933477358,-48.851055589614916,-29.034014141400178,-19.47872322116731,-10.832646921621382,-1.1501362705822515,3.433719993786621,5.150144323187483,6.053098303346115,4.504835609488911,1.9699103661102058,0.8190891583526785,1.4192225312335403,-0.48117885863157284,-8.301471924446226,-14.490272817234136,-13.914160727692334,-13.70511120107765,-15.048947944293834,-12.117415793609148,-6.775867662340342,-3.6850183716099227,-4.37417851569783,-7.293984562458837,-7.866338076484983,-6.72849875658158,-7.468959197925322,-10.213243470844226,-17.612402885159206,-24.296311949441932,-15.929569501422797,2.548978570554521,19.836604397973986,34.58419015861608,25.827763015757412,-12.796556976408649,-38.24199430030698,-42.743678719918904,-56.9952336137244,-66.67770662489099,-71.22524800464596,-94.73032812530124,-102.1553754211507,-94.99364775695047,-110.02783489166944,-62.01878682365092,117.64212716065728,403.7994336016005,752.7718006246868,793.4446170326532,124.91284421018726,-666.7660865600162,-667.8809148198302,-193.16923853115688,-43.593007100319255,-108.13027055834492,-43.21816688452337,3.492836854795584,-29.429519826796408,-10.605636038099721,14.738844653589753,-0.3212857282332173,3.6751815329625215,11.017314395927773,-7.914821880145777,-17.73445602592849,-12.131762947060318,-10.273036628829441,-5.976783009347232,2.498279728997095,7.140536004022183,14.105456595555857,30.166962441141983,50.28622361155841,70.7349655650578,90.76061221894592,105.71063966886477,114.31346814646038,116.53352795611453,101.32392659610112,60.19829524945476,5.1115682733479435,-44.75822127354865,-80.97049582133229,-102.62417292882853,-107.74065369409075,-98.18847524081451,-85.27396103728672,-75.4481066761731,-62.5943380913732,-45.46161599208207,-30.265001849729067,-17.752564930870005,-8.926555489312634,-6.537692152022437,-4.6189451412157325,1.6919277764630785,6.147080927768275,4.13863919840832,-0.49404682482539286,-3.2011224466333665,-2.6833351989098233,0.5956634833318795,3.766565275674278,0.9000467376738364,-8.04029753607826,-13.013007780272904,-10.601191475550504,-8.292413510516095,-6.8096908974287125,-2.5667118622051994,0.18509862823816547,-2.2977220877737246,-6.304155957720399,-6.167815265485217,-4.083921838870211,-11.60904566715756,-25.431880115149774,-23.781052525499568,-4.636653527670806,16.291759008068162,29.932024562869998,18.256414672551852,-20.314123324608207,-44.93049379527412,-48.28893826927259,-61.11250333279507,-71.76909532804135,-75.82718613383699,-94.65046294495366,-100.89980536890914,-98.22282249936947,-117.60965714200809,-70.88772976867608,117.46290778832267,421.7928441907776,775.0578946950119,798.4889305034671,119.9252592230928,-662.2662734830667,-657.0927093861567,-187.79182821084632,-39.85192336424832,-101.32968860210232,-42.56292509151015,-7.376978139497282,-40.912789125455696,-14.797245009786282,11.395780598419925,-7.754031406952127,-5.593971064052596,2.0517483388864077,-12.735110342251886,-17.230886367454296,-13.623780452188136,-17.321332404516,-14.359821455316302,-4.4214604993034134,4.6868707393176905,17.632026436009063,35.50667491627687,56.78882806557152,78.93257187110473,94.90481768126841,105.86092057871173,114.9597375905717,114.28322145911832,98.0436877424533,64.75445656205886,13.401775515253398,-39.55832154467168,-73.19923208909985,-91.48857618060342,-102.07982145276422,-99.00293223074354,-85.41124637564494,-70.27210819596473,-53.71580030865081,-38.41057150741939,-26.681069025099763,-13.872566330355255,-1.562612199324441,5.359319668074132,7.6417393558470526,6.327012472339536,3.8674832173630946,1.5815981140512712,-2.628483854249737,-3.662289467722829,0.6801008750009174,1.7807513047240668,1.1484792609431835,0.9079862028957351,-10.600671984957835,-26.045473719688044,-24.820611867881325,-15.718229458744162,-14.046816267838487,-12.849432544976796,-9.582731092913392,-10.47371336646654,-12.538261369242022,-11.803441423395855,-8.602109120204531,-5.209973639879525,-6.216706021664013,-9.182130850448448,-9.885784518363486,-12.706658424262102,-15.21102425732554,-11.140214991292623,-5.592143853699,5.956610977026479,26.824286224540028,23.445164966746063,-16.205505222822843,-43.9828830972924,-47.70998546106667,-60.854736088074006,-71.45642415486944,-72.43656074648825,-90.56501041783122,-100.2856185805237,-95.72459730064007,-113.6953332265401,-76.28735366255368,102.418496129718,392.3406701512281,731.7483595448529,795.6550057893324,186.95510642259347,-609.7907787001191,-679.789384677716,-222.40496435523244,-43.013021130220324,-105.91791109100973,-48.77527102363612,7.635836531995892,-23.163157034930023,-9.820484954643286,14.990478682191677,-3.866682194221717,-3.5472269660615083,8.41039331426445,-6.302400106983726,-18.151907198240195,-15.851380798126693,-16.712222767138268,-16.67045201872572,-9.761561477592549,1.336988318117129,14.527101597110212,28.751857277327396,47.506201805882625,70.9950390819821,91.2253770066634,103.9121319837527,110.55742842172259,111.12469626328117,101.69608239111793,77.4537847147566,39.659998549709,-6.149721897091038,-55.43940342942244,-96.5217915921503,-113.34687741718514,-106.62927686245159,-92.02822394636627,-78.37778884388543,-64.66619400675597,-48.95247686855131,-30.643528584651367,-13.184302470664925,-2.8129642635840497,2.434245884211002,8.671179249516442,8.395083350795613,-4.80105711806884,-12.719864350396737,-4.406097931675291,-0.32816519170697944,-7.5586376364668375,-7.483383540731548,-0.6384125813612407,1.3885187546089828,4.123690652435666,5.601523706642604,-4.26559479526065,-13.836841725908668,-11.03988381516533,-6.4871579456189785,-7.473515198687117,-9.21317963378219,-11.872992687709338,-14.782426509818613,-12.729068681173882,-12.286736649718804,-22.043588963712494,-28.400643221968025,-17.164192339395015,-0.21523410265983323,13.484984474628536,26.712779330109285,18.070677086786255,-21.387262110007836,-45.58521947015929,-41.03892272621425,-50.90054899374424,-66.79933663073467,-67.34086647334506,-85.76229932073234,-105.08445330091672,-97.76187453972778,-110.64521958424532,-95.47804918065943,52.897806430968444,314.0352493798905,654.0911988828814,841.8798851085921,390.4498208210133,-466.6019182295602,-738.9438460620745,-325.6488179932723,-61.893067683759725,-107.0856318970617,-63.726363451476416,13.3006648747523,-14.737133990558767,-14.806708132198455,13.261955644655242,-5.569497565010533,-9.811136310014213,7.948644752673902,-1.5470472019116306,-12.115133257158703,-8.452764342865343,-12.524876841837104,-12.343753508652807,3.6080678970535276,13.75220459745759,10.985794780463024,18.640540357460207,42.03285977184516,57.49264567375225,64.95256082692849,82.5021564415035,97.3154415447652,96.07765138278374,90.49634723944948,73.35355483224531,30.54208352289993,-18.625382272295255,-56.20359230677653,-85.98099117035665,-102.22605343780785,-97.50965267955482,-83.38195277378028,-69.67539564429342,-54.38404540398151,-39.152966705829854,-28.462012567962695,-21.549297773483573,-16.787653252900455,-12.999681368935178,-7.575119957457147,-2.086296096825123,-0.7244800878027,-0.15945200782551439,4.333584643030573,6.988843178112845,2.9898890985414717,-1.4740982908167766,-4.081466078541775,-7.692264439740738,-5.502611467868897,3.4376835217349555,2.2019858837539577,-10.269540097938465,-13.109892729477702,-6.504609903973513,-7.0794333603931605,-8.963531023805906,-2.181408371991566,1.1531997168618933,-4.66646000527798,-7.901176492276303,-8.264469040533495,-12.984524876831014,-15.536299539265107,-11.734921616287657,-8.252711287305916,1.418545141956983,21.610347158283396,19.258791598360453,-21.873254891421016,-51.98801965521959,-49.643320375508296,-57.52735998309501,-73.11139530212917,-76.85951139863306,-97.3782586700608,-111.32038709166652,-95.97046290391089,-107.76906591283472,-87.04632703292205,82.03657630962573,369.0880327145186,736.3320205596597,918.1803110838866,373.8880264700867,-585.9843417902458,-840.0540470605215,-351.44097213294265,-81.24559086316107,-137.6743530480789,-64.87740398415252,21.441794552115155,-23.642690999366778,-15.73243859374503,27.522261060198222,6.024774549781856,-0.9926042165792257,14.763991236778292,-1.9731769073110978,-15.418456635770593,-12.247776888953876,-19.128436455419468,-21.759668230367872,-11.661142674730105,-2.2844970573526293,9.613730689703871,30.053333326142795,54.69305818068218,77.8676227864082,95.18980546714556,105.69566681548375,111.32681627558921,113.08489585641625,103.54154516863244,70.47577470486364,21.292396458425436,-23.360875748418543,-60.91152726670592,-92.01063006542073,-103.78824474128099,-97.47792544252341,-86.84126998076617,-72.7076058530997,-55.51973666206338,-41.79446990210346,-30.0825858674849,-19.310980556505935,-11.464017224823138,-3.0268969169869564,3.934697499762361,4.694449033176362,5.158620567558252,6.364318793264616,2.3891660013245364,-0.9694429283036552,1.1848255228575528,0.9062247822206739,-4.092667855693193,-7.386392652931484,-6.59049899700749,-3.3081432696520707,-0.5827339765153052,-0.41058810819138536,-1.207540131973813,-2.6618200672454613,-5.241432529640214,-6.593297056442909,-6.761798880687859,-7.8382265268577065,-9.356598663372825,-10.441562029511019,-5.877772283929522,13.835357114297347,41.74401962334254,45.940670396590264,6.121554440879699,-43.86056379519346,-56.956719941212945,-54.2459002629277,-73.08392975886272,-85.67989385585057,-86.40406933036037,-107.57289940432608,-115.21029269701191,-108.49914804458317,-139.6354524115415,-115.86949404959502,63.42469334564785,365.14352875085183,761.647551670221,920.8117142970418,317.9015358127226,-594.3649037064479,-737.5093662046223,-248.6518808785701,-49.39079835375284,-130.46596279270793,-67.20950297544209,0.06110685930995885,-40.79977698136623,-24.932828685130207,15.362420794403572,-0.6397838190774472,-4.654126715598029,3.961545050077396,-11.684474781739008,-17.450699788311304,-10.440808968390888,-12.991308214788557,-12.253102477930845,-6.0198253801567025,-0.4720511015135713,15.475553328181572,39.27585621367275,59.649223743059196,79.33190882260493,95.97018923530808,101.96048616806539,103.79889632685226,105.32162138922837,92.1074802304895,54.13977800156022,2.88987132435572,-42.81657839014779,-73.62244076585299,-89.39410227996373,-92.44945434398497,-86.7694384989774,-77.11287013203471,-63.79204391401595,-45.74171616138544,-28.280045147252636,-16.997546685845585,-8.572787948574216,0.31234687077634504,2.334122578894579,-6.4257563192029075,-12.009274149635743,-5.397085866561792,-1.0639682177792906,-5.719707433601563,-4.158473315550774,5.619136022591871,11.495157899921438,12.879006895346,6.839458346736222,-10.182790724669012,-18.98754723561141,-10.927922684243773,-8.324002976347602,-15.338674321051121,-14.484302052888907,-9.823939783587274,-11.93252860601918,-13.324567309867156,-10.393707314387317,-12.117351077198052,-21.3516721975771,-26.928924325893178,-18.068849705507642,-1.0907878715139478,15.075601769560016,33.24619182032303,43.25363020194942,22.765879893132844,-17.69128666243965,-40.94184515442279,-44.77948844744987,-58.678471143612164,-76.652683278269,-80.0163126563462,-91.99638109524221,-107.43471070978434,-98.80133431866096,-110.13341284146786,-125.6140353265759,-25.29209068214415,211.01173430945346,562.8577996320176,887.9920913778371,658.7292167188443,-222.59442697048902,-783.1789176175923,-472.763306909722,-66.93056594958814,-82.2657009695568,-114.02293648177825,-20.743165403700374,-21.25982531360014,-40.52039280452546,5.706328447803331,12.871740634249356,-7.63858752384939,-1.429887216627022,-4.072984976028604,-13.31707081039562,-8.243551497323184,-8.079714093175287,-11.16415897044816,-6.127398070857566,1.8201601204514244,14.822037733930323,28.406549864011716,35.521640795755374,49.473597637894265,72.82741871541897,90.01731239226217,101.60469029592869,111.95234917563721,108.21535996332277,81.67244992562755,38.41169967456908,-11.323057433894647,-55.56243535189417,-85.11668125880405,-99.00712115350467,-99.74405574040551,-90.8791077822615,-76.3815089788524,-57.85409241235889,-39.37802222693573,-27.648627548549598,-20.480069087556938,-11.04214118638729,-1.6695287615862213,4.773768104594476,11.226878426040866,11.209101553935131,-2.898271950280737,-16.720523002393776,-14.88732306837428,-7.406831003014592,-5.80327608038278,-4.955912184100464,-2.9399607678284383,-4.261283776615414,-5.153396603609799,-1.1552933645101433,2.8986379733781984,2.0687902245769845,-3.15620790196807,-9.336763565932264,-10.577360639120304,-5.8775125033679245,-3.1454017845979543,-6.220932185329058,-10.416420069897967,-12.887092601285307,-13.837697346384974,-14.322418718335221,-15.393568720628341,-13.486904716819868,-6.193745533648439,4.7981571438578134,20.734545195902335,32.614169797301955,18.785826830800083,-16.765125874777628,-39.80814448707923,-40.42289890861063,-45.55888609060359,-59.99777469985433,-64.24252403418065,-74.00970644498913,-96.28457105392874,-94.80274586475218,-92.51939607127655,-114.70825394113436,-66.24956219450992,115.5288382446748,421.7237750900378,782.5505395014992,767.1934263387325,42.01994085421474,-694.2183076525322,-605.3577416548447,-139.87918931370567,-47.09367675530822,-120.67092240540974,-45.37867004148217,-3.7519936094359565,-35.5819567635907,-10.747748231634002,10.823081370213028,-7.376315428174243,-2.1012387457116155,4.729627885304145,-10.654189019226138,-13.603215211791756,-9.55564794467624,-15.541708240960688,-15.991268294427552,-7.922673150711679,1.813250891180303,17.06586242605264,36.209800480787756,55.703369175105976,76.64366231493781,95.02468314954203,107.50973251326893,114.44426936226964,113.0293214749223,100.1944395508022,67.35106969026762,8.136667606449736,-51.683728022190984,-80.62111002348291,-89.34229360482246,-96.5400740630193,-95.5190633426807,-86.1197495939694,-75.67975323808072,-59.5640672647485,-40.70957042418917,-28.285161919887717,-18.818575945307437,-9.802100460799295,-3.4710941563555266,2.1699902632656105,4.634649410352047,1.9643608647262631,0.6044295013251109,1.1050877378751203,-0.45430288922909234,-1.008315976782022,1.0148482855023673,1.8578075294296603,-0.8494612010637006,-5.150730918883996,-3.7936051403329145,4.604381382586262,9.296420188444067,6.730953690887736,2.5011346320869468,-6.603638072839235,-19.609077689129702,-21.69199319762752,-12.67426246907376,-8.838675611862215,-10.373738705697303,-6.280054974887776,-1.036261174742986,-3.929188781942514,-9.3051553687374,-9.632443488970978,-9.67933329979906,-13.174335228951687,-14.280710581675578,-11.153400203821842,-9.412252670206934,-10.679389558843283,-12.333093169534813,-13.930386615865427,-17.277493764138384,-22.6509687640173,-24.371249514307472,-16.74764888226902,-2.578845443577457,15.643743346388549,36.55797212686214,43.08641259436226,16.800799828032105,-22.81648293707447,-37.02094371545384,-33.983279541616255,-46.81813373741682,-58.65464689561441,-57.32693530582533,-79.48854604767125,-107.7879431319894,-107.92373292788233,-118.73877612148019,-107.17019904474955,21.469845816653475,268.05305013908503,616.2514459726427,835.9746029295471,425.1565243951363,-424.2133354135418,-726.2077205250163,-323.79795925031505,-45.1701342070088,-97.01258067287174,-72.66727904833866,3.5705678537299264,-26.025001033973382,-32.399120332980964,7.861680440550229,3.9781319737814016,-4.469307215426434,6.062879867322513,-3.0835877647618535,-14.395457093779093,-10.614091533432182,-9.579561093984754,-8.89343677139561,-3.028745985030734,0.5307210514054646,8.15631903237179,28.266561825940478,48.00549030706604,54.60838816678028,60.77065967849107,81.38477331991282,102.50469119649252,102.71085620611319,86.01704134027679,67.22398715515483,42.37627610716633,0.3013357527861693,-46.112660437686344,-73.54943630333034,-84.07080540689857,-89.77318750715908,-87.47251083224864,-77.6836349150005,-67.50331034657805,-52.682860786906986,-33.01118651626035,-17.472199444221786,-5.033398099018299,4.209149549774466,3.05815551397189,-1.155090333333824,1.7786319361985257,4.51888878818391,1.8173507825721522,-0.43074772503559444,-1.6846622786242769,-3.0642797913706517,0.25579547634301036,5.4948193015157685,2.4662624130594395,-6.271014343536848,-9.875762623335005,-9.571689857366472,-10.27293600663885,-9.958732457069388,-12.683955343557543,-21.48596777158803,-23.879986824070397,-15.066596056315017,-7.91799122895247,-6.879534328172898,-7.385445076661615,-11.61016452224223,-18.952899979835664,-19.10281095526104,-6.272133728618311,10.607208525721365,18.60976543188959,17.532156334042625,13.734665156128061,3.198015546713929,-18.69720683899023,-37.4585611743896,-41.68924955722789,-51.83095621429338,-73.15203912615914,-74.73946947032684,-71.64080550442166,-92.73795584201427,-96.94303152483184,-91.45073738851883,-114.53755338066995,-63.07513487247098,132.1274348537941,422.81857699171917,775.9477180816698,830.4257074436198,140.21237468995065,-702.9725948060768,-714.2775243371304,-222.83471404098103,-76.4633493899013,-128.15387888063935,-31.665052294318237,15.096031222067722,-26.63107986320722,2.223179203630332,22.286301361165894,-9.139523177776196,-2.7280421278615066,8.813382830085555,-13.001931714644284,-18.060241065658676,-10.801447995074442,-18.94512213756687,-20.240881957837928,-7.325073500154326,4.851392502481726,19.649116258598994,39.709678390167625,59.5278115546438,84.21497340362589,111.38816876825838,121.61386249524061,116.26470464277791,114.16201113576655,104.39488740671891,66.99618038742923,14.241202563516644,-38.515679781918465,-86.66605930854209,-111.94857279396585,-106.98158197342045,-93.23799983708057,-81.34043045949426,-65.12012749245335,-47.82455013672552,-33.62075307385576,-22.422856375353618,-16.083266313725645,-7.617630029926275,3.718600873946343,-0.6458530179374016,-16.211679342848313,-14.227378773085391,-0.19934755515571467,1.6095459267699255,-0.3563347418162479,5.563424878580058,5.698977723575997,-3.2773993555222027,-7.426538137519401,-6.8553692807247515,-9.358625912330815,-9.587578728339285,-4.281995741235134,-2.974237996480767,-4.584767766481267,2.1886997839184055,6.85354146674997,-8.351947885242513,-30.081238171081004,-37.40753726620476,-34.168185593613984,-28.100635570994456,-18.81289977328692,-8.125799216687646,5.814308456840834,23.223448588163667,27.08947335217619,3.232293471002251,-28.033298170892156,-38.06828906889693,-43.099679630713524,-64.66699585932939,-76.54849933402592,-78.84333376226431,-99.65556791280162,-107.88063770627276,-105.73275265260918,-129.7478256224291,-85.7027916365978,103.89585494798581,408.9789023198219,799.4225065563529,897.763983047732,220.6424951225054,-658.9227946461519,-708.8130918704106,-214.23542928506242,-57.468031243059656,-125.28291825981218,-43.481462431761216,4.289701575120546,-42.118985433110865,-18.120010665169303,13.70477231192866,-6.912322904638835,-5.942695637511388,1.4189362856796377,-13.944304389637669,-16.81813887717816,-12.512929826166095,-15.971841579845725,-11.977445308963908,-3.398694313402789,4.643356030533798,21.619185079813025,45.12256336130927,66.9665795239388,86.9741371239488,104.92001718065598,112.95241167373435,104.91902356857291,91.96045552032271,81.27011441484754,54.13673570161886,4.576725193607647,-42.551103971673484,-73.38209338179712,-90.69359048439028,-92.57278776848999,-83.1011231845286,-70.01575311546404,-53.5451456619926,-42.665950450817824,-45.635142474817336,-45.884896952172056,-31.29639481332151,-17.672537197305505,-13.981592380024455,-8.332008488480437,2.112627831896706,8.219492040765587,9.587926053636366,9.34324978397514,5.146863975419411,0.24597864526304392,0.24079504417504438,-0.6463107014059517,-6.753733708998226,-10.946938457413918,-11.356144607198615,-11.739590075705562,-9.425162348036759,-6.086950850981658,-7.878667397851208,