ECG,-4.625360624675544,-12.33828769458528,-15.10166504324429,-27.68993215691497,-46.58112850513382,-1.8770174045673826,169.30879882192278,380.9608492165337,411.6587897861371,144.57699288140435,-210.67475431300866,-313.8208006635622,-159.03760140722915,-40.3430396989363,-54.477556575768205,-60.02395068903067,-28.249439758228867,-22.645031373002077,-19.68295486262692,1.1935783068003172,7.092218389916006,1.6978698693801704,4.714592106332055,7.142596857882548,6.093251221993884,7.680541288968464,6.940123153645304,-2.942209518614046,-21.078450002121286,-35.37486081110293,-34.43315108677235,-26.652743329305146,-25.641650045691115,-28.88861217436804,-26.675833730251433,-15.445769241218922,1.0657761395059264,18.05922733040989,35.335508892123606,52.32773634357256,65.64094520372996,74.42608230426437,79.25291819101585,80.12818320138956,74.90699551086955,56.0641421739216,22.088419375881628,-13.529075329328474,-38.69304851410258,-54.60618510330886,-67.0608199386119,-76.74919500318046,-77.20924221972658,-65.75044910178292,-52.442922113946366,-44.24395544337523,-35.90454870006095,-26.69559128298467,-21.402532603946426,-16.817635649113825,-9.022471466737922,-2.61250139873426,-1.9263270724211559,-4.231153548775364,-3.9909309307105794,-0.09982559353711551,2.9797351086843413,2.9937632433010357,2.257651898782587,1.0409090710138376,-0.8074368646883912,1.1248782803246318,6.4530524282973225,4.395359644076004,-7.260056094729423,-13.707550035383953,-9.12111225695901,-3.6082770288469828,0.534344763503892,1.3736488536284313,-12.828116543467214,-31.317609330137454,-28.74646857591928,-14.640253610707862,-11.74870466184294,-13.15474627757468,-9.803213964721884,-8.999646873185853,-9.238126459923315,-3.8712779638870476,2.0558222590247226,3.5988492031245087,3.7728930170581307,2.8565526441809475,-3.974339274421876,-14.326881157539722,-17.059516946852987,-11.297240181834749,-9.062018296125851,-12.227485240974104,-11.023021262882548,-4.724793159972878,-0.9312992311467738,-1.286390186025276,-3.5647685353210807,-8.820533577941415,-15.695039399731508,-17.36085448518115,-13.29525827522574,-11.7578582037126,-14.645924977474301,-14.68351238130575,-9.203466936972704,-4.755868709097095,-6.196948899242685,-7.688903854327858,-2.543998264043794,6.694145522941455,19.51660443048925,35.48936841286441,37.09304930705964,12.738108789627413,-16.246006949606347,-27.798813303564703,-27.99836623625749,-29.471480945742798,-35.05932840224543,-43.39402735682775,-50.6454344909311,-53.89635603288434,-54.24788549318516,-53.45247563836094,-54.488860920740436,-53.06642937365678,-9.418004051764875,140.71532534248027,367.0789341863279,451.28329361477074,203.97881627282885,-186.95978209026964,-328.32962026340033,-181.44398119555015,-51.481402430710226,-55.701267820128976,-60.33214608517176,-26.283297731284165,-15.650627923827663,-17.969786137667292,-4.371015428025645,6.918339992694133,7.852831245213183,10.998683550321257,16.189380142255214,16.05816932481504,13.64878277968024,12.864641614607331,1.4105602378873492,-23.31889458371377,-33.85375265860361,-25.04564569826979,-29.166815209700744,-46.18204537939526,-44.5102401082397,-28.225246358241172,-19.633705861336583,-10.978834397718803,8.013335078243113,25.854863785499585,38.79957259483735,53.26549414877128,62.62219730489888,63.52673728267716,65.96746648476582,65.85029609122923,52.67985559443062,33.21238408870389,9.170491269015113,-24.53796944624619,-52.17619672603839,-61.77353180763588,-65.76622179809277,-67.27748025293826,-59.62816309783719,-50.7670966235319,-45.48049132015507,-37.315438992725845,-28.47192152594337,-23.823579785954895,-19.302881648006085,-12.61784610344466,-7.452456876752482,-4.841991888924987,-1.5167233120769978,2.779483835117704,4.622063248823123,4.789407969378317,4.461421496136047,0.40762171487993726,-2.683875318055499,3.356825789252781,9.46831656132482,2.757788053631778,-9.862312973854179,-15.32351789727652,-13.672547422944966,-11.918124317473044,-11.923845113340375,-10.876315777299205,-10.356749633300621,-13.402926139950397,-13.70049782365728,-6.795232630180578,-1.6896939375890252,-3.2804767715771437,-5.736552608587665,-8.24948703586039,-10.949398543387604,-7.232901697866721,0.8532714139719406,1.805636783501285,-4.438174547773235,-7.14023441857563,-2.8630232475009088,3.6332740836999955,7.767037100261402,5.328156058083945,-2.9364032793438124,-7.475409686994553,-4.449817944107124,0.28462882386733845,6.7701033132171675,12.195992763393376,2.1387593355490786,-19.067486231953954,-27.01900740603452,-18.44025181144076,-9.893773232890192,-11.611375150943118,-24.75749313223058,-34.85523960075714,-26.161149752616005,-13.985546017334963,-14.210967296753308,-11.767345835003571,-1.2139465438016046,8.086864528526585,24.094193383415213,40.58172159860386,29.049838582379333,-2.912175284276435,-22.927457984537853,-29.37121229473889,-33.96859070688062,-36.089749209192675,-39.90624226351092,-49.58738510446908,-56.50502051858881,-58.08232380431302,-61.216781771944994,-63.2639452784174,-61.35429837768679,-52.77895229185408,25.680192271641232,265.0943846329274,539.6705924312641,477.9316501167515,2.0289511151924415,-387.1668536654112,-315.43158581256114,-83.82112449902459,-48.23170506619882,-83.58452515368388,-35.88628666721479,-7.44492033181001,-27.340074213168705,-14.222280212661413,10.882875001237423,9.440835258002204,7.516646656554201,5.194086353610029,-6.897639604196106,-9.899032538294936,-5.410438559319007,-3.7913430493382627,-1.7303806779322244,-8.486193771886507,-22.90904608471597,-23.087998431363644,-13.591855222275642,-9.961266104378776,-4.819565575944235,-1.1802462264361837,-6.9115710420343595,-0.6655925322281941,23.464310610521892,38.29346406459799,44.09899112084656,58.08991318145644,64.46824031092258,53.89967418491538,51.5142964027841,59.98807721258683,47.46170589014362,6.911726836492072,-32.50774947472874,-52.37877650163594,-60.111405577540495,-62.828303874381874,-61.26355517341357,-60.537507794925354,-59.75893128209639,-50.88920744502397,-38.62888668001089,-31.541573632432325,-25.09852686761682,-17.34717726113233,-12.867247476174903,-8.273909861485851,-1.930602913323039,0.006208621057790964,-0.17541763366770802,4.174247276556741,8.106836169960452,6.686390826880071,8.418221895023954,15.626383347151318,12.80523204820588,-1.1714595354500084,-4.906977564776728,0.5572735261255435,-5.0722256359952524,-13.526455728037732,-10.46594619599934,-10.888916124170658,-19.642414263215322,-18.02915321613399,-6.569640223997487,-1.6556629300552785,-5.627432327556129,-11.057565626231003,-11.50966554205548,-6.680614870546772,-2.031021842127272,0.609573533084026,-0.9150933297783439,-7.153564843159682,-6.450565068017275,0.9737049158018642,-1.9441701967374083,-8.277862927210455,-2.0866519027460955,3.0468094505387224,-1.3498915426262847,-0.18393223573332307,7.345558161993257,9.903962509784527,4.515493703475073,-9.845221541302166,-24.20067892071649,-22.72922299065216,-11.652001943074156,-8.267866189893521,-12.937488214716433,-16.922282306824172,-13.610578531247938,-3.672466592419145,0.7698445333779347,-3.2567413498480775,-1.5000077889420158,11.491358182159125,30.866822306530544,50.77003083113797,49.07473756319842,10.61226694401039,-32.6092230849243,-44.70356551518049,-39.23794420287565,-40.752819804010365,-45.916760288446056,-49.36803549278019,-56.622426040197816,-66.1996678118372,-72.16244489824895,-74.8158754556245,-73.64882092747017,-61.7063929791811,-7.31883088133236,166.9555555915743,452.30443450637694,565.8336300449154,233.68783813467212,-264.27293646555535,-383.3884763421095,-155.36675260352007,-32.014327652092355,-78.45729452899238,-73.19445835274382,-29.07573165914853,-31.54399446642048,-23.269417139800368,0.8704815617858497,-6.483509772150562,-9.40846203655893,8.677739678639185,6.998037752683817,-4.90161110632882,-0.1350879295632712,2.0925670376614676,-8.577344388134174,-12.710226509352932,-6.389205103235115,-3.96457360628928,-9.885830714206431,-17.531583819849523,-21.1277589895229,-16.687145507820304,-7.030591828384984,-0.7639889489150242,8.800376204149746,32.036009457708005,53.179673024212846,60.4252840704724,66.55325147671968,69.14636155098594,59.83835728369036,54.02442664405231,49.41357344186635,23.689372713872224,-11.336834067666661,-33.58905141031468,-49.99186445863468,-63.837716581883114,-65.62395524824666,-60.38399500719985,-56.75996921956021,-49.76734167478625,-36.85934327976305,-29.05231410191609,-29.38872740849761,-21.68217932993292,-3.9188693169603113,4.502389056662334,2.237208124753181,-2.189026978527103,-12.454462405110807,-16.600177887177836,-3.660116209330397,2.4082399161132724,-5.958066425692614,-4.300608930459255,3.930931377304576,1.4567111170977078,-0.8243780164018144,4.074756217680342,2.9994372108984813,-5.626519335399312,-8.095762445054849,-0.8200513351952292,1.086762685840215,-9.857741923359765,-16.952118555174046,-12.596705105931882,-11.021254165002928,-13.52319638817511,-10.338846003430989,-6.262763136301416,-8.252451070203293,-11.058144076512075,-6.0197276050620925,4.387582774042976,4.029354008460379,-8.000427168105265,-10.661837259412039,-4.000844074644398,-5.002008976734986,-7.417161121280358,-3.3975928771938584,-2.943147291408975,-6.74327919122687,-9.565660751422534,-11.06984609785106,-4.917173407989179,4.327273720091125,2.449636106507924,-1.669554785702939,1.5094970529570784,0.6977161742133831,-0.028170703079807957,8.913692135920463,12.788053340778445,11.548713311362775,20.6960166272421,21.496868047024854,-3.205289540669698,-27.692791733727237,-35.707772260972696,-39.096676027866906,-42.284948640974804,-47.64942564521294,-55.43870657161627,-54.76215257834008,-54.959948550204146,-70.78381980070307,-80.03381858614296,-66.94450726527317,-34.85456133301553,73.71729700192681,318.7251400154047,546.8129487905253,438.81089666921923,-22.41527192589954,-369.8830126720104,-285.2640634234734,-68.7245699695917,-57.577052434247406,-111.20420501053603,-59.8585742621667,-15.649051168356387,-29.10415714505239,-18.84311415163534,1.9060204543196129,-1.7110800872762333,2.2440145916713794,11.38523113759199,5.526913513176444,0.6780913167359195,-3.034421937807238,-14.876014511451089,-20.942674355565423,-19.83507344726118,-22.846973416435485,-27.3746877189851,-31.251990155167817,-33.91934334913273,-27.034126267881636,-10.808837770015035,3.2004711135029296,9.291379747891629,15.422113367961888,33.93709362850615,60.520092362031,77.51666563429418,82.17326979779705,84.15577473817467,83.96361871905687,75.24992057250873,54.129321053005086,23.27632739714543,-8.9520729175401,-38.86351162144045,-62.94292813886162,-69.04776869003842,-58.058172496285025,-52.02642847234489,-59.70183192616831,-65.35329943608379,-59.34807436192059,-47.922123903418374,-35.04417310892824,-22.24852021816614,-16.965915841899267,-18.870521830791752,-16.605633508484956,-9.449447165504417,-3.278520841895947,6.3390868832360265,15.322136831759552,8.637300718622765,-4.06508066904351,-0.5937983065659633,10.859504699937846,10.650314449042916,2.8443029559488,-1.4572127920730615,-3.381736693868797,-6.163823780948054,-6.746524835792167,-2.255047265781469,-0.16006654264555742,-8.346699488010064,-15.425617767543116,-8.953534636015613,-0.5884271956660072,-1.7104422784486903,-3.3210831252754645,-0.23863511549413197,-1.5755916795672515,-9.826369017788732,-12.927106811976603,-4.429418714818368,1.936977712271279,-4.244185102837667,-9.291149005096813,-1.3941269275945327,9.326877087513987,8.625543564166856,-6.871332771880127,-25.191902321480114,-28.446737863690384,-19.089926612309984,-13.67714494085618,-13.801340223477276,-13.549350650046849,-14.17700855747422,-14.79472017197821,-11.778993086677776,-5.570976874925458,2.2039060871459064,12.121408228297103,25.976585408538206,36.88817833052935,29.1732814549878,5.413226305038788,-12.031737984633438,-18.67657437187429,-27.271930837913096,-35.695008562767555,-36.58749979362823,-39.011358821708846,-52.97627975539963,-71.59740982465425,-79.34625328240618,-73.08174572838185,-66.29937559432534,-47.51129335930516,53.21602999726882,278.13688101658613,485.0443506329437,403.43079138859,7.938787657733116,-319.21268901918785,-280.26965777313245,-85.85783154612619,-41.38779921577378,-79.99087787132663,-51.02295359521274,-16.131799753023323,-25.655274584207525,-21.307517538621966,-3.3668333626489755,-4.4083085583396056,-3.5459044809053193,6.172155930562341,5.463248450294822,0.039970919063168964,-1.6731634635150385,-3.7650930107696894,-3.5000898521024357,-1.5917990682752086,-4.253507637978298,-10.488099637090574,-20.87777543322451,-33.26184197877713,-33.75995343341667,-21.990550985645555,-14.342097524072553,-9.870844589857535,5.269566887837115,28.655866950062034,48.864711573449554,63.15351246383537,75.4520756448663,86.71270167303719,89.28839530462277,78.65815371426923,59.83197531701683,28.483942106200246,-19.762108439798215,-60.982856081179335,-73.31544519516557,-71.70269047515364,-73.3546326205171,-71.9301808593671,-62.29852959602934,-50.63770513083216,-40.93353829187851,-31.404660424814143,-20.411527887900423,-11.291427317071335,-6.41557643370831,-1.4444492068993,3.9424299550208666,5.056894568461466,4.320561642416884,2.030548206698054,-8.504898270520492,-19.52324649182586,-15.78945592046594,-4.926722850939104,-3.842696000507594,-8.826596603117222,-7.657688159632741,-2.5820114471329347,-3.6475898973627405,-8.859448091082289,-6.323363759136843,0.39359334165763116,-3.807533520703444,-11.064948405552997,-5.889138871371868,-4.194731724814623,-19.918153689824553,-26.637815547887506,-5.3373502649161,14.733597508944113,4.225688520967481,-14.796520333160114,-7.993876815053369,5.564771923675927,-6.436874577547245,-14.796408805914442,7.669994631764414,15.489582559724262,-10.803685887001294,-17.682242865463174,-0.2867047321314775,-6.079337167766104,-18.818452603688005,-5.915440130084541,0.787489175070256,-11.814119537026235,-12.55609288284542,-8.603324704263233,-14.386876680066091,-11.074965689288106,-7.337954492203568,-14.38175973078513,-7.446856979744231,-3.8530454736752517,-29.811477485691476,-32.957838035414056,7.344016180245608,30.18822587846815,26.593706916918403,30.598658255628607,30.95163665247694,15.821965729205594,-5.561735286684723,-28.529428542956463,-36.39971705548751,-23.834762992774635,-11.545247659832592,-9.821884507170353,-30.623764840588795,-74.69859853874688,-93.50337393734243,-72.31871591473856,-66.28560869594139,-72.85864771012248,-20.362924379660022,111.29769511450698,287.03674587199043,414.58903533870443,310.54524717798904,-48.84068052040127,-324.0292530499717,-257.9041144136374,-78.09944945168338,-52.84342146182556,-83.48308564479518,-43.03431697279699,-9.530614560875833,-26.04555233221364,-27.59212749243916,8.26887736050017,36.26581189380928,15.1401084248319,-32.10652727685299,-34.971762163154764,15.004537484607468,36.483194160160394,-10.226864615346852,-50.55141219468882,-31.417840450258836,-13.70756904273614,-23.42172281556267,-1.5281967086647859,28.26844941694187,1.9948246241354965,-31.511517700975272,-29.414686388021003,-26.244761804588233,-4.127102585772416,60.52632345308016,103.81215313117825,83.1709834431994,30.164312959731262,-2.0327225020018425,32.07649848455545,85.95827484093792,53.46697965362573,-21.190135568840454,-17.04804335977063,2.0699138749519186,-58.99313591903693,-93.00481446088811,-39.13411668715942,-38.51100136692482,-110.36797173510685,-90.1571218653098,9.653650683445925,15.297362389690058,-43.96981597562472,-6.954430303352616,63.90453086006162,8.219611882318866,-78.82670161957407,-37.184980577184405,19.8867254240458,-33.345125142708405,-58.3637310841053,25.247061900343724,57.75639190954122,-12.326643545106311,-33.491182111805486,18.35742084540977,4.293955137618504,-74.97844653874992,-73.19823924646441,10.65180922344003,33.14457469385081,-21.392164898781523,-35.985337409234035,14.682038721062618,38.20176368372843,-5.547385308771535,-38.71181881325573,-15.976478023457721,-8.829755108708213,-28.256162995735927,2.6800361059966624,38.666320075180636,0.9986022847409117,-39.56830812693579,-31.465562406555946,-19.91430687835168,-10.894880200505282,1.6940020028330887,12.818120776365735,32.287759684097296,30.08210815786444,14.530284137126692,29.652601020336977,-1.794550813847355,-88.62222430438153,-70.14262694212903,16.69678636438749,6.747543894775358,-24.797151362110885,1.890285620855627,1.4413971330204607,-4.512152164906142,30.34145263351657,36.14313795864756,28.540073773717957,35.05498161438831,-14.999149341142054,-58.93306372930726,-6.575039489121128,15.807661539787498,-59.817968462944904,-102.57483590402718,-60.57515213696509,-3.5293602955789076,2.7341564733471557,-68.49825421764928,-142.7759888037101,-131.16640776008632,-65.36781545042166,54.54603920607856,318.3622842287609,588.9017791759633,474.66696060710814,-41.20749390268308,-375.46491473658574,-246.54774983316736,-99.04972277341876,-134.5796928216404,-58.57886605108212,54.05264095738382,-21.778122844545877,-63.41226966236824,9.520339007030604,-14.986987244516236,-43.02146030279208,28.32260333541386,25.04420494637973,-31.73494483113317,-23.086693948824543,-23.114747594981196,-16.011840421055975,28.13518544016529,-23.34276628257959,-100.9375003306418,-27.502903151957867,55.800891272380625,1.2301053013629328,-51.04070660530091,-18.184858228032272,11.767361944055427,8.195327724478897,3.576512559563345,13.811243167562917,43.74526702619745,70.80739378091934,65.43824170832227,45.503463357752715,48.700425777948006,61.51363816446897,40.6008659286499,2.4349004616635934,-12.170348083572934,-28.397956516014396,-61.4897599658065,-70.14735091254494,-58.869146997908246,-56.198449010469666,-52.162319273896344,-57.35286269819238,-65.00055944810282,-30.317988869255394,2.278977361359555,-15.826490479118867,-7.5630330591157,31.140869910785813,-0.7956901310467508,-50.10535411353568,-13.088129347331371,25.133850490856243,-11.004974221678395,-31.69272296461178,6.886167040545599,36.03653211381674,19.87664016919836,-14.80831330970642,-11.250876003986054,45.33777383788545,54.01776377170253,-27.704687092319396,-63.03570407160087,-10.201237377127342,1.74356709739709,-23.870805915266985,1.589741147905153,16.49168355167678,-19.351523640801297,-25.69942918072173,-8.877083453564342,-13.334049297166137,2.878542672495687,25.90329052048356,4.74024005255162,-9.157523205682544,3.7745099894771634,-19.06351998752855,-51.584058479867586,-39.28475081232253,-26.097561902038137,-31.252401318844566,-15.496109207533992,-0.8195134634357863,-14.095005893391331,-17.686348331359895,-7.393291812172677,-6.910212991735472,13.12733552088361,51.79892131806076,47.14526318578274,8.015694003548155,-5.961092209213849,-7.4081440236518326,-25.34348977028397,-36.39162612079511,-33.188150811787715,-37.01058108755517,-46.957557697323345,-55.633441920182804,-64.9850795271571,-69.83672155508756,-66.93022226246178,-64.84742646839719,-65.572514691957,-9.571662285016146,213.51417061683983,519.8942336124366,525.3949830650006,75.44130040432734,-360.0823787501471,-345.2146581648392,-116.59361275251827,-47.41217577476533,-71.44448962320894,-39.844040611086236,-12.473431109566732,-14.617614117914242,0.5236183919353739,8.327946407398711,-4.873387485121151,-1.6086233709255273,12.89666383848033,13.192949501175622,7.6868350218260035,7.237019528184275,4.987884650575252,-6.119028222918461,-16.040244367140115,-14.421760937083155,-17.646581336716846,-28.241507732317594,-16.889071730941684,4.9547337559770455,0.9314692660774408,-6.564580604488718,7.91887013192957,13.992774170998086,6.867615667553471,20.168620677389093,41.91514809675767,42.88387017879353,42.80771092708945,58.44258813460023,62.222030157716624,40.27720778013806,14.64687006574343,-3.2696496536303705,-18.890011844323624,-28.924389102394358,-29.399145117419103,-24.987023671731812,-23.4487854946096,-35.389307951434354,-54.839680519273585,-54.578982425558344,-35.4137773594182,-27.889499998631884,-30.5560586633868,-21.55935127928263,-10.434021471764758,-11.850184173569026,-13.860295744581975,-7.724851643068767,-2.853016887783049,-4.0005521438361775,-4.440907965028494,-0.36991268456976556,5.021914197839731,8.934051594481105,7.692073297595652,-1.788160615477846,-11.347985082759514,-11.969509831279339,-7.822115601931069,-3.9357524231292906,-3.1386393474008685,-9.867435086083992,-15.158640982939856,-7.32202831042701,2.350096041744983,-0.40260099707013985,-9.186528509237238,-13.244009273102126,-12.12639437575696,-9.185877151326086,-3.912247395086382,2.277632850608388,1.679317764355389,-3.0196202779428756,-1.65342221196566,-1.5991277316117465,-8.677286708093877,-8.310394701994692,2.2014128255402303,12.035696627475286,21.112681062724516,25.296951994765237,16.395664284270342,1.3752574094303238,-11.797973436391816,-23.068180501634707,-34.331696194126934,-49.77009497338551,-63.12194005929775,-65.68354051409035,-68.86584678737071,-77.08901154926787,-75.71137082334467,-71.01589524614398,-74.35008254141877,-30.292242728652845,169.59645230599702,492.47846589622526,608.302778971211,243.36760411734863,-283.2477880544142,-409.07517704636035,-175.95974202720504,-42.62676185805526,-77.86347272938737,-62.85067524585264,-9.218668223396087,-12.633366350810153,-18.65043074926208,3.7717288720375812,10.615169339306998,7.784948562828846,15.284388459282532,11.658105051543128,-9.248846034591523,-22.462134866674873,-20.35017873804037,-18.118467859320248,-18.439480275060248,-16.504830674714054,-21.93450328879547,-30.832711252006224,-22.689725426179507,-7.023815664998317,-4.822095763619764,-5.618344374091803,2.9792708100802683,15.318909882053674,29.46084002704547,45.82675263031643,61.01236782949398,70.06858601686517,66.86240051632586,58.33756009423121,54.95187582795075,45.77214021217442,25.115309555355807,7.167999418847154,-9.749907457076173,-32.582473356483284,-47.67067861169388,-53.03410603059744,-60.18057546070921,-60.549327727511965,-50.19561603298237,-45.41382073993781,-41.47525449791539,-22.44224040584738,-6.1761192994902885,-11.48084258457073,-14.215199665609841,4.898097266937935,17.45127773692476,2.7556331177078643,-11.756167729118719,-5.578121090917378,4.526252975387332,8.557361950781612,12.130916760985222,9.994140961082286,-0.7665925230765112,-10.405578778879004,-14.471056157957575,-13.515820681740546,-10.22785177844522,-11.618240545837557,-13.89264127791549,-10.635846481315031,-10.823473209265417,-12.700071243773273,-3.1420958662959677,3.752722858109255,-7.549454668562948,-18.970649514624878,-18.328190627841643,-14.080281095091578,-7.910877655120366,-3.3513194238351893,-2.7024879052017603,6.884865442083781,22.630398560897124,31.694495461314425,40.76552338539162,36.498408191248906,-4.772352723165536,-45.659946020873555,-46.004626913685236,-38.16561773859195,-47.23002076538931,-52.64176823453438,-56.060647154829226,-69.06100636437074,-75.7662201621722,-71.0207698983769,-70.75630265734013,-80.99493273025806,-75.79205565848143,30.22885700386516,310.70666723923347,611.6954189223417,558.8488249055251,59.37499076207431,-392.67195259195705,-361.30674135294015,-112.29021204316605,-59.355951091755,-102.05589215203935,-52.33241937542826,-18.139755055399817,-39.4679874123467,-16.569697710787718,15.814843586162178,3.264118701385655,-1.8285981169901984,7.95300984085358,3.5004124099842837,6.536045434006269,14.98272617035209,-2.5020217000399363,-28.406029173452794,-30.389125685042377,-20.57471334744223,-24.58739962600074,-33.59480033218573,-25.628341693511437,-11.897608960726938,-10.042385325752386,-4.0713921813170275,17.00213586474817,36.87828770037241,51.58703335477695,70.6747543278269,87.74160160074666,91.02213025559072,85.7394523369334,82.15764115752157,69.68950693053198,33.92087062999423,-6.42202329253386,-29.343917845683393,-48.47033247583791,-70.13954566218625,-74.33661167088445,-65.77543505027162,-64.20777941072268,-58.032198800682075,-37.639749091826125,-24.839605478397136,-24.580606469524177,-15.728106037125308,-3.114357595486087,-4.255914857481681,-4.195459693385807,6.751688709503519,5.27123771625941,-7.728095428923815,-3.5986729370048405,13.332707074034033,20.671237782811108,17.440517656547993,4.821767526067198,-14.743707778272146,-22.290808155572613,-12.546967667055508,-5.628306932369114,-10.22692158809482,-13.476342683621322,-9.70946552143294,-9.611774629422026,-15.71389376143778,-16.690602358525368,-13.758860013245119,-15.258947170177606,-12.377516295863327,-1.416410194148595,3.4908033636887996,1.6276110461527455,1.8654598528540927,0.11541966897416067,-4.41622986612483,-3.596683392464392,3.7630935745035687,13.410446106406166,16.00027064496757,1.4796252831377998,-20.071261194919476,-28.640759671834843,-26.371292639698716,-29.42600452594136,-39.58552849493843,-48.08064622388834,-53.613946485884696,-58.8467246419289,-62.52755697652918,-64.72566343431018,-66.97238008699291,-69.4651526332902,-62.47313873070979,5.207101558425165,199.78792743946755,454.8185269916747,511.0380561976816,195.73466651230635,-241.77790759404735,-370.1761910507491,-183.63332970782855,-49.453932263243956,-75.35397082675331,-74.40966451140349,-23.614136143044178,-18.80618190099655,-22.25750707318189,0.44072389024685066,2.2537573003365488,-6.27886061700613,3.875456452844171,8.464714612596547,3.792712281655019,3.3719209618096393,-3.3425747459999844,-11.409310208811425,-8.574440644933201,-4.593442061685518,-3.260943162143219,-7.102397028458579,-25.45831751218769,-40.06456584467706,-29.21538931985812,-8.896569074593316,4.681548752357197,18.301678834558214,33.09662889905555,44.06176054942807,53.57588412921917,63.878822149059815,71.0294147480078,67.6867889388192,53.39258173311533,36.26795656564703,17.29858873681985,-6.226751213062995,-29.225750055223017,-49.92992512429567,-65.74573722395493,-65.30128651767376,-51.95799447579011,-40.92964279659926,-33.30534147625663,-30.46574475622675,-38.00077971902013,-41.5444275300541,-28.862465079200447,-15.19637102021801,-11.52695719351382,-9.278862762535312,-5.154877624039095,-2.8693096479000317,0.13152634287758858,5.82270506858767,8.929369246388399,6.368914439133235,3.5041783541425833,4.9016209026902064,6.911839331968487,4.665433292759028,-2.4311587494192644,-11.90125719401859,-17.88616511640481,-16.629078100972933,-11.60259771607849,-6.96486164349111,-5.199496775867022,-8.206597165871106,-11.79941304704072,-10.729151043363075,-6.49240473635885,-1.6211653622549882,-0.13521371240058855,-5.858163250928506,-9.979518834952637,-4.689093936605361,0.6874518629995006,0.8644697263614791,0.072430769085571,-5.667071757350524,-15.371380389207342,-16.222100653947457,-8.054971121046762,-2.1520464754113426,-2.484155343506007,-4.243823650986539,4.514412271105817,25.542696699333167,33.64177878900949,14.043435286624689,-8.430479290340472,-15.268953386692843,-20.159011809618143,-26.55553230150377,-22.416464562400037,-20.53533336313595,-41.47148997242484,-69.68572676906126,-76.06669090825521,-63.522845199474915,-57.71029859056271,-55.09310528965706,4.261350116113341,171.59531181080536,373.89467561525714,413.14468774459453,168.13865641408876,-187.5875604909233,-325.7593406300754,-199.14848347957178,-76.87728885975415,-81.13243625257599,-80.2069451191315,-34.333123049674654,-21.534109366720834,-27.051029274393763,-11.104003596356435,-0.3111724816128749,0.01631568886427104,6.822372199738879,8.077833146572676,1.286287397447623,-0.9682626529902798,-4.20051636942123,-13.562177496012229,-20.589489174623317,-22.671948058265233,-24.49500551638541,-25.972004497986823,-23.79488995270163,-19.36206772497451,-15.655645238508964,-10.324846581499552,-0.3213657756422261,13.929099921471122,30.581874001065195,45.44221642973654,56.050753139478516,64.50533683021138,69.99446106717048,71.15543464067659,68.68017948242554,55.11874103429329,25.7185299189825,-6.503087359201716,-31.93644493177401,-52.84928001036533,-63.142980795321876,-59.47212300041623,-55.19735450980835,-54.27945383559057,-47.162009981610815,-35.574883716747564,-25.351938710085314,-14.856686766777159,-7.937839169128409,-9.679531391118545,-12.926258242787537,-9.302060694123128,-2.0416932182376613,-0.2868222251285104,-4.897902459799294,-5.887268506690866,0.24883743667267666,6.089423000250259,8.732753539185715,8.479042385990113,5.081172937128795,4.877056415823194,10.152781358855705,13.957283888056333,12.036702788436415,0.21543865471971912,-17.10921728272186,-21.09249170414254,-16.313775637921523,-24.946518388854948,-33.86180944991726,-24.28708122161826,-14.765896021063615,-15.213087536614093,-11.348994686260683,-4.828596338302866,-3.101042888205285,-0.6427413977410072,2.9001723132262835,2.6223840234281113,-1.4561897940591972,-7.315279183201149,-10.559606535390571,-9.89821806804283,-10.1175771601191,-10.914527971805184,-8.998448996374613,-6.494232120476825,-5.897421949154527,-7.373461505085011,-8.67912982776981,-6.469362323493948,-3.943360962610491,-5.963207763519762,-9.582599177528813,-10.1455894108577,-5.264211399566621,5.391975522985909,17.27985552100271,26.43827786123283,29.077080205497403,17.080669502143905,-5.610878567140645,-20.231906843509705,-22.133124142911505,-23.91575404577643,-29.465420703844856,-32.31042493501264,-32.50749775517869,-37.79369682266775,-49.75463798394465,-58.58379917757117,-62.49397511485926,-73.39772242514019,-69.84191888474967,21.607935159338737,229.6276461204172,425.9976193398866,387.86821414124626,63.37023611554958,-268.49845976180586,-302.9912836540677,-128.4069292344343,-39.35237248091049,-64.09789836626507,-53.730317230120164,-14.438573149374882,-10.982540006048406,-8.632041855169156,9.353559272501522,11.14099521833356,7.2715872807447655,16.50944744255664,24.047332431760875,18.009630806770694,-3.1660746535342987,-30.626611086411174,-40.497027485293906,-29.783524198966774,-22.090094871772145,-24.687703221638667,-26.74014490445077,-25.53130888183066,-21.45888418625946,-12.606282772429381,-5.115412651266315,-3.2117615103767774,3.3224063807427373,19.845984050899276,35.40763393651066,45.23439339021259,55.94002399813573,63.47886186071844,58.92467098534326,50.319692841554264,46.031742513161944,33.69128355261331,5.045711917622441,-24.62234001122549,-42.29225023817661,-51.833021576825175,-56.2172385631998,-53.42110250680524,-47.134438605502496,-43.15987518642524,-40.0519298635914,-32.74996117328107,-22.369081242849916,-13.367758693710961,-5.896841834562867,-1.3908917737118927,-1.7215256417405094,-0.5183230490034667,4.1846606737128305,5.531366251711804,6.200593102842452,8.6742759988411,3.529543287754331,-5.288458007880108,-4.1143075645248395,0.4521760778096908,-2.0279602035276874,-6.338678946052799,-9.656734521143248,-12.732384891793494,-10.008689557656089,-3.114605606802792,-2.1244560288905756,-7.735033951218215,-11.997482036538242,-11.059317473758385,-6.643380656291336,-1.8044788157053908,0.2183876201488495,-1.5748007949119707,-3.037667028149574,-0.7648513443615528,3.0765413740655783,6.581552987389054,7.073550099928935,-0.33300468479625067,-10.267837297542895,-11.453718604445381,-5.0769086475947045,-0.02316582914740728,-2.5405655560560234,-12.26706377377152,-17.33691414861144,-12.485086014886416,-11.167113722223178,-17.662361791984306,-19.840475092758382,-13.887206235186722,-6.6257137637194425,-3.5475627381437747,1.6815480699315506,20.076478638086115,35.7376430720279,27.933544513462625,19.182021630279124,27.386370153078474,25.11411923022542,2.3749537370933282,-21.216775457433297,-44.48853210973381,-64.86041361426606,-67.01026779779457,-59.59236882541134,-58.48620502924308,-60.588760393840616,-64.85389180454277,-71.20139817472052,-71.0664887199512,-64.60893023725399,-34.44988150694314,91.34692974754542,330.83022844627703,484.92379001013455,297.7481154626376,-120.98744007305618,-343.37062110457947,-228.6391716046902,-71.13056731037804,-57.37613916153496,-67.7611813640305,-29.512688131370993,-9.389702702472903,-16.513679843698863,-11.4411149074577,-0.1488405099468011,3.3403988911769247,5.2924114973805745,7.9861998547557995,5.848948813181304,-3.4347528274158794,-10.00214845699114,-5.609457771492682,-1.61351469030528,-6.6848159333519135,-13.031189971179645,-17.18724808191298,-19.335185517739937,-15.272071781022861,-6.207417066685199,3.394209347207659,8.378599201996968,4.587129447243466,4.427927330386299,20.464909478301756,37.80067687829827,43.47223136844322,48.05972485618647,53.658842365245576,50.86867920198182,42.64709251238232,32.49505944226249,16.154367343145942,-3.8993355634794877,-23.042832118890786,-38.385836140322596,-41.682639733142146,-36.37819992044743,-41.49435124914499,-56.73961582078067,-61.36566498636739,-50.524540552656006,-36.02756801211266,-25.181773830889107,-18.56081325497199,-13.153140859229566,-7.210605411967393,-2.800333502315681,1.426007166672651,5.584901237557901,4.3592547017677195,1.2641901961144821,3.6184407206464737,6.473847790336549,4.945466599855539,2.493211394318493,0.33822369173341116,-2.3314490637436887,-5.659333812646228,-8.292536602723395,-6.297004634537487,-3.8946463498765933,-8.023234082024663,-10.90158839450681,-7.2089493920877725,-5.002404707665228,-4.0278910516121496,-1.3078489035531078,-3.78289717058642,-9.54706847393644,-9.343645954861508,-4.926530510634446,-2.8954370654970276,-6.458151826915389,-12.093709044900486,-11.477028482471797,-7.521302115580074,-7.314260426875414,-5.659724530080377,-2.210192729401003,-3.3896639988864,-2.985528587285053,3.615335505618204,8.271888438875454,6.618934587249647,1.2193553190045474,-2.8881406053922056,-4.805035177796242,-13.699057604156838,-27.17148746193839,-27.268502004079533,-13.275083736968286,1.6069138624769685,13.032614388794833,19.330214038853892,20.17507893232588,13.947084708083322,-6.332610933809331,-28.34359467236903,-31.923625192208984,-29.56292054779324,-35.58542405378644,-37.81678747731529,-36.81971942400554,-43.13860117095353,-47.411237943347174,-44.89443458212782,-44.864886017087144,-52.17943109952533,-64.19163619808842,-28.645215703855698,150.6380511377457,414.15595979385364,455.777887712205,110.22322427314458,-291.4850074957987,-338.11752372831063,-133.20328638883774,-29.27803348768235,-54.04411350227045,-48.01423747997947,-16.85967045653473,-14.32480927379148,-8.436496400304847,6.682372233035556,5.3357719892022,-0.45379590825459104,0.9182545086298921,1.7487655677563207,1.5021289443846655,-0.4300545401692766,-4.414590886275864,-5.84754978704048,-8.704853877831317,-15.060304008853645,-16.02370183710773,-12.691207913725968,-14.093404411821108,-16.789791254734084,-14.039726024875876,-8.25900389612012,-0.47987891135541005,12.602189880778266,26.593814260424036,32.419248231645106,33.70816644581553,42.554697934065274,55.819357075700744,59.47317714954299,54.384090663885274,48.93580524543749,38.2717838534301,18.65915580669938,-1.876914832140515,-23.495135796697095,-49.93400694907893,-66.63306263276344,-63.20950211508146,-55.46560986208179,-53.442189644154595,-47.357537482592086,-37.89949516120596,-32.769219069323704,-23.163408749417954,-3.737470811739378,10.873720914887006,11.35597976920002,6.492597353382019,4.851780632085063,3.5814814639108086,-1.0983109949690402,-3.733295467053157,-1.3261182447050643,-1.4411818588314613,-5.14691781423458,-5.6886710253142265,-5.038181868108827,-6.238117396150848,-6.573671270863805,-6.547970227845795,-4.010637657767127,4.283228268375302,12.026769927646255,16.110171338932453,15.657335766184707,1.4432763261375925,-18.232239880163107,-19.485697753049458,-8.063941964106883,-8.815331174633123,-22.177633874765476,-30.865591384536362,-27.129678074076537,-18.37630520652742,-13.36133254118783,-10.3188586257079,-9.541932000996646,-15.619104634410027,-19.272067191425883,-12.48250192058125,-5.925560745675606,-5.428632097323819,-6.60971022093884,-11.097426163501456,-16.386803701863492,-12.497919653242269,1.5217340868452576,18.979753075469,33.23089035099485,36.60683940452795,24.879874862085053,3.6540347385124647,-13.867507348976286,-20.534692134178147,-24.407276944634184,-32.505264969275956,-39.0875476348733,-41.54519975583017,-44.21572640567286,-48.31596722714829,-58.27728083855196,-76.50283620547086,-89.66857835224712,-85.95770731090488,-34.874865036583195,155.67916076553587,471.48376932435514,583.4330432437766,212.4946072952844,-300.85836479981634,-395.4712370379787,-153.8538693739147,-39.51688339666254,-83.56530792112696,-64.77451286014906,-15.449828420772022,-17.278927243684745,-11.286310562160814,4.710610245375111,-6.1267677289282965,-8.526621579633872,6.222713573395616,8.13122452774732,4.00744049541912,1.2361865585298197,-4.260343616208701,-3.059226393816852,-1.088869121663289,-8.163650311568531,-12.188242938759625,-12.685241135782778,-17.751266598655487,-15.954573252069668,-4.543212517141066,1.9583741441824154,4.719535981290451,13.055023172000729,23.456436541516474,32.927070154376395,44.68754668968827,56.50793836105778,63.38924739358542,63.8036750503707,56.43517354763887,44.146581462221334,34.826316203962776,21.221561751095106,-13.744545519035244,-53.92432283517612,-65.58491475259196,-59.183954242769495,-61.46469117666555,-60.13660584437105,-47.83806910924996,-44.82955754265319,-43.96541779741537,-27.836718605687473,-14.881035180293601,-13.693111257532532,-4.688654794357083,7.738360369773606,8.361889451422874,9.577939520031727,18.93938799190107,23.979227954819226,23.859356304637778,19.7703294589374,1.9819069859462335,-16.677087353743453,-13.696472461423726,-7.163954871281547,-20.29283721877556,-31.092078548724807,-21.701816263882755,-12.00298111363373,-11.557783015096454,-10.004684834635672,-8.068672274204815,-8.998878273022385,-8.915860312322387,-7.823800797108621,-6.6782831466533885,-5.463452347808348,-5.236564709278305,-4.230642056513526,-4.288266526027659,-8.268316008846101,-9.15583554726878,-5.519388030900339,-5.712812306365125,-7.385228667408915,-6.819821560735731,-8.373630206839174,-6.678603776907952,0.5873187344763657,-0.6743212525468927,-8.256471507429636,-3.83647577313054,8.982028682006609,18.721434407110213,29.99544786319388,34.87529223027993,12.951891342825867,-20.319407236186944,-30.140509964448597,-24.07147927145769,-28.40436968712961,-36.085620438884966,-38.773609287868226,-47.525330025599516,-56.090289775865344,-60.837141179709604,-82.33644606100219,-109.6829272549781,-106.89184936058962,-50.3961210221202,130.4809980661239,453.01660084262187,629.7795812643776,331.4159911813798,-202.53143276153958,-395.7855110754044,-204.09298377546816,-61.925614791931025,-88.81360765509714,-79.2124873423976,-22.31664058680842,-21.46538287406412,-27.35935643735237,3.597759776488326,16.74111671990822,4.723457752391887,-0.4500680338204752,-6.9612692817691055,-19.007566700821293,-18.59390546778325,-9.384480487111812,-10.290436268326228,-20.422638060566307,-23.015213770726866,-17.99436511835509,-21.35198805781007,-28.356832139669645,-20.574855882256443,-4.860893233340133,0.9565194826246861,1.442086582733804,12.093134517119458,34.609629700122326,54.80435608712753,63.795921076463316,71.85065706111507,82.57852250870135,82.04854219254466,71.31066637468143,60.526971674071774,40.69661091393073,9.464200847124738,-17.92841936021292,-40.97425668209893,-63.09623737716746,-72.45985218281263,-68.14182687513375,-62.75324241468028,-59.88285174794484,-56.571611382059174,-47.21192747998407,-29.62544047611226,-16.662527424435677,-16.083951419936643,-16.139713346865918,-9.043354527840204,2.087606489450435,13.661145757621405,19.782602244402266,19.019354597548098,18.460540887158377,19.334539401859452,15.989148484052528,9.125068431863845,5.131335169954892,0.796081553907424,-15.42552824718248,-33.59050514940803,-28.676270612570367,-11.791144313165184,-14.751241107158751,-28.04274948120152,-22.543850802742064,-5.667163535390454,-3.1183124620449654,-13.46528571258289,-13.277436277596834,1.941884574567073,10.454005215402336,3.012841896310693,-6.47049713762566,-8.565055764948424,-7.911705289669179,-14.011740507288033,-23.628034098633893,-20.385286647759653,-11.611251287939101,-16.394204462048254,-16.702465686290015,1.8076967222061393,15.544849629563824,23.480007864488293,36.72565300064483,26.02569288662552,-13.242498763698254,-34.45431745699017,-31.344328808611106,-35.86473321495513,-44.66908567833046,-46.76463987070452,-57.188087858653084,-74.89685673803321,-81.51862689901681,-80.81760204358363,-82.97599992226938,-72.14148837363024,0.7516761669298688,204.77216068345513,496.9809591775921,589.9583329473869,251.43416701361758,-232.3232229331615,-364.80551910139616,-177.80870091552606,-69.93700492825361,-101.61758732207822,-81.82025679973755,-27.889576982676274,-31.6370807639545,-39.19164076141258,-16.34243632334057,-5.971890737451986,-3.447015612761996,10.97222663723737,14.895556454637742,2.6550242228510292,-5.769219784452723,-7.6981360018280816,-7.740590423062707,-6.932796837347984,-13.042324376861881,-23.496411223106705,-23.434532739932468,-14.081370103975917,-4.391658554293004,4.023164588539809,2.6232974577764705,-5.9612442059305515,2.8340135920923704,28.618867524679604,49.75559531656964,68.96831630619597,87.9785861062332,89.49927982393983,77.34885002039618,68.07041148808894,55.34855211096635,25.87454210847497,-16.676346891087697,-53.01447159820495,-66.96579356094584,-64.51021703567648,-58.71833867520661,-54.266528664828016,-59.386398578076694,-72.12708209711408,-68.63505878087244,-43.19680277837722,-21.539768950000422,-18.94220293713102,-22.729742325693017,-15.939440686657477,-1.7673006047583897,3.0671878549370284,-0.7950073251128629,0.8033212177746698,4.992254596585241,2.1616546103119525,-1.7343244788849272,1.7918831616706417,9.137217917614159,10.21362205234335,3.2242778699290984,-1.4720365132463087,-1.4653186878852544,-4.966194923740195,-9.366931388272103,-9.816628352972142,-11.039700733149477,-11.24253177376836,-7.5025898526830535,-6.1297647602835745,-6.7576915159015325,-7.373057718673188,-13.835190580095219,-20.94275331141946,-18.20000105832241,-11.240129161341812,-8.968225364537219,-11.830680185424406,-17.119575632176435,-17.912314696370757,-10.818962620805237,-4.371244332836625,-6.669740472161909,-14.715374422169404,-17.144947628226358,-6.528830560390207,9.205880225110253,21.62204043633017,32.35650882046674,31.777128921852317,9.030236142149942,-16.227630563986207,-23.8273877899721,-24.7145380940875,-28.878763114419783,-33.6013656285175,-42.45069972998695,-53.17587064460942,-57.070640086289664,-56.432069636017914,-53.927904405336704,-54.860000907834475,-64.0617638584551,-29.10925857828954,137.7055287029304,394.8232663895959,499.0149087920917,247.06669074324867,-183.81924423105644,-368.6456898309183,-215.36808564694826,-56.261421010915335,-65.08503444663324,-82.15903178186257,-36.16088319647376,-16.89757504331412,-21.380081925522134,-4.488466267599998,4.603736905301307,-3.3980986451211415,-2.336170681190901,2.070085503971754,2.2399681464419174,4.426891856027741,2.1305060585678195,-4.037912019473927,-5.157115027380772,-9.814705495347239,-22.818647267290945,-29.97852766766673,-26.210106997882335,-20.778900313045412,-17.381351031376873,-12.482019596914762,-2.7168997025519115,12.203952495568451,28.402452945780762,41.827507540454015,52.368263061142216,62.388138256386775,71.89582107731064,75.72724520709176,69.63240114651241,53.71089022166187,27.31204279125005,-4.794526521573543,-29.69551451997086,-44.4499680229615,-55.72142499275755,-62.39455445129006,-61.89048341852592,-57.0009794074447,-49.218115556042505,-40.632160139506965,-31.20448978157974,-19.56825042016758,-13.70283972165884,-13.732993781928066,-6.04245057018046,2.7492469701387385,-1.8666952709539153,-6.0172618735042125,2.801468785793144,11.977359905360021,12.949390551136535,11.19355827947535,14.02526756720053,19.755786004161934,15.643895185305807,3.279343614115213,-4.756320306455239,-17.431958908981386,-36.34855973944769,-37.06833746605087,-22.693312889175523,-18.470164021745887,-20.841434392842046,-18.806890862763364,-16.490584878693443,-13.316953145740873,-7.890429614605079,-3.9671293201158484,-1.6398438959738328,-1.3338190076203915,-1.0653556516382476,4.2619296167788505,9.272297592401737,5.945619554129893,-1.6085459368498025,-4.939563830446357,-3.0614087574618924,-5.144978878509747,-16.658444791098894,-25.858720225216693,-24.08089223077556,-21.42098595446941,-23.536671686921707,-21.390066486016682,-13.016385981414789,-10.114957940557176,-15.538084708777586,-13.651733322473582,2.709367372768879,20.479863809187496,32.98375550268409,38.943816169011,25.106332713554853,-5.3501522851717205,-24.499254602078892,-25.57310599445177,-26.09205804159137,-32.246346986634634,-41.280398735384054,-50.85510083243535,-54.50054193718532,-53.84042489517353,-56.956013146224116,-60.77050694652736,-62.25772374694158,-53.690214199996035,16.70784235794693,202.7606527926091,419.5858820350594,428.14621764616345,115.29329802361538,-252.78753908227014,-319.36076026548466,-139.7955085208459,-33.88066025558554,-57.57132341982873,-53.80492861542992,-15.515479473496988,-10.626674663676788,-7.712403434001802,7.48742035133699,-1.8966915256515762,-16.631461021368573,-8.919360266253875,-3.610200960057595,-8.199064459288149,-3.9586669480262184,0.01848471661563522,-6.723771136595989,-9.943828593251965,-5.351860509716777,-1.547329664433037,-1.8669064585282928,-13.189993142932474,-33.39857288948664,-38.276717975011806,-18.833289064586364,2.972198358327986,12.792929352702032,20.097577561253374,35.16418462677304,52.02135522006131,58.57083970284825,57.760746714878366,59.3675844444596,57.506311784756534,43.471827958723864,22.168623934027977,-0.9494457235473837,-24.418615342042866,-43.72594020252298,-56.17434821358022,-62.22396141972696,-59.959934651229176,-48.67803592489735,-36.31931042098232,-32.87087177520074,-33.475341457154634,-26.165131827328487,-15.376193137544774,-9.811254051135972,-4.992191456550213,-1.299637485110491,-3.9479137640606368,-4.651982733573158,1.9783936387743264,7.691907505994699,8.662266858894592,5.657720059033852,-0.6268093948094116,-2.9057810861113698,2.8081690942579893,8.902062266028803,7.4386125014041085,-1.177455721188231,-8.764840444331456,-11.075220601965281,-13.762276154286152,-14.890294040837132,-8.790036311409246,-6.7123270627536264,-14.064945497483732,-16.047104724140524,-8.933386536661644,-0.5865244192352854,5.325712979102736,-0.5441248605118076,-15.593536115326536,-17.105269501270584,-6.031574106564678,-1.3776723332763723,0.8347518152830489,3.974235051869634,-2.779346641064979,-10.804607429740665,-7.465942822377155,-5.0811929151419,-11.749905796293113,-15.547833736867718,-12.863632408001855,-12.337688275254266,-11.913180962903574,-5.370740703253999,-2.440203609745957,-10.095236967183137,-16.934337288839032,-18.84120605369739,-18.292422965048985,-9.347367797927188,-3.444315331991916,-12.985841302295423,-11.349129709827555,14.73480385680325,36.951789766917265,45.765669306318614,41.154184545795665,6.624788811634016,-34.856762636227515,-41.576759651922316,-30.45762389092427,-32.88462801885882,-39.15312933210562,-39.92557689193711,-42.65069824706329,-45.32026186018468,-42.87458417329242,-41.18722622704628,-51.625538551099346,-74.02546568298803,-72.92713254880654,22.266060280015154,244.6035604264746,456.9315288737874,388.49766147385884,2.6843338429293624,-321.1968850784162,-282.70138404150254,-86.83802362403611,-34.764022684703725,-72.09627851340164,-53.992157448879794,-21.97328125355063,-20.80697414418866,-10.087024162899121,7.499522594542693,5.346059352040651,0.6423684109756316,5.392078225061701,8.186874511331343,8.425254032209413,9.6368907931665,5.4393349120102545,-8.491438975994964,-23.88059401804291,-28.530138853909357,-23.961546817109593,-20.416715913727604,-19.176858863400067,-18.03809745336217,-17.39809638494486,-11.303218919105966,4.496480296753909,20.10268964898485,26.65739539553276,31.19410775354153,42.50064090164156,55.059273282620595,60.29055816884301,61.71130003039669,61.09619816546166,47.042885984458806,18.56453106352061,-6.988714923611893,-22.903292508140428,-35.55829295678605,-44.35182680986452,-48.99887495740515,-50.81362931718873,-42.33039454301402,-29.66259141979001,-32.99622232906087,-43.96982366844704,-39.98713333490772,-28.451597588461958,-21.08348385535975,-10.549988102112188,-0.19425074598808934,0.9283868341525334,2.8891110544850687,11.389173412656767,12.943742270974889,3.0152494644238104,-5.053879720156242,-4.107110102312621,-2.231027616251172,-3.9358612170672576,-3.5825203273177273,-2.898422162536079,-7.419340833409812,-9.165332764278645,-3.0137876716655967,-0.1607605181310774,-6.343578210929628,-13.782645982910138,-14.457967469889205,-6.748019290276554,0.5517138785044136,-1.7051922163462656,-7.016130635890068,-7.4671389515311635,-8.063640355198753,-11.576329621179337,-12.239999894390127,-7.510386529483135,-2.648942414416682,-3.119345839052743,-4.09798196531262,-1.119793897161987,-4.860437353260586,-17.38658122034066,-21.411515025455518,-15.563581409984828,-13.185047576936277,-12.248307674068645,-9.871883420024394,-11.179858228429026,-11.60963922483069,-9.47779019854564,-10.45904965167647,-9.580316282710701,-6.791539857538718,-8.78445993195202,-5.491949788355134,2.2061476137768956,-6.227811829056495,-17.809528892336406,-4.969489837702269,17.168680917589544,27.848731723652136,32.086939043251014,24.106326863294417,-1.1136185125482783,-20.528776953821442,-23.48956783512386,-25.923532644849725,-29.73211741676679,-27.971525436985704,-29.992180737964773,-37.47831804205724,-39.970138477146136,-47.734629135091524,-68.31029976892738,-77.84224379924362,-66.0319880835122,-14.993761256813158,156.8330076676214,413.7627316550889,455.47889935266494,109.46520978073778,-284.66904360151494,-323.2654553693116,-127.36802053792533,-35.05548536478671,-55.44926312933742,-39.520558918654544,-6.454067410332179,-9.617110693665442,-13.418093951135582,-6.650998963984035,-6.684160253066189,-1.4712185122307355,6.870000450742716,3.6274612483458597,-0.7202111126226427,-1.8823603374999642,-6.596068697553299,-6.853419745632298,-3.7954584088482353,-8.267405722918026,-11.611602950647859,-8.182557645832025,-6.7044144362856235,-2.9781186310381838,2.6692522713787277,-5.963644144437468,-18.286557225128067,-8.908036724657647,11.709535572030763,23.660429131344603,33.464193344446386,45.59818052975,50.74000639687111,48.71399121848239,47.303436730451104,47.56688049937006,41.13052652425675,20.262838155624426,-7.023583350303706,-27.426693072304154,-42.81863815732218,-55.37646289922385,-56.77317529752098,-51.178231409938945,-50.936083947082366,-49.788173767512454,-38.4704556731449,-25.63733337285605,-18.189704911172477,-12.205705206209927,-7.741257624178953,-5.328131729430769,-0.3339826005864577,7.379091472497361,13.768289905362128,16.64294411489631,17.042788730364506,19.266363992230982,21.883411566853006,21.84784657132879,25.51314955980788,21.622930858485397,-14.048166698723989,-54.118936798069896,-50.78894684155015,-26.902588165406915,-24.507748955692804,-25.497517556542263,-12.127149597575265,-5.564622150336419,-7.1707514663037735,1.245586072140867,8.48414499690973,-6.286663772168264,-30.667888208257374,-37.21155598745047,-25.8322027175323,-17.69815631455117,-18.073279256298544,-15.955941160562382,-10.13060100946339,-7.338831534680665,-5.699277620216241,-1.032746357087568,1.668133089721561,-0.08228793980647708,0.3850876354886239,1.9190471117695935,0.2164714679729407,2.1336413160183554,1.6462796908040431,-16.183645518749373,-32.427956019365254,-24.591556257471325,-12.410316176648958,-13.2880775492036,-15.52654582907817,-13.718892215915922,-10.922509098029208,-8.846240340455527,-10.2629437671322,-3.93746864973836,17.392588069406933,32.64977145921207,32.24091849284565,29.110821443231444,18.363567181349886,-5.422743686328211,-23.64041336370058,-28.8113473686617,-32.078660779536285,-35.92854599087788,-37.67097166635829,-38.75777973450013,-41.64746094821469,-49.302441790409105,-58.29196121955519,-60.41219001753589,-58.58713843926377,-47.45703287557107,37.92431583116387,260.5403448776249,473.3096093268688,364.77458603509064,-58.063076614587,-343.4494698637168,-249.2151709193174,-66.3048761666733,-41.993148454606306,-59.424360416128955,-21.022484037981627,2.48051724054908,-4.051099660901977,1.7252727337410012,11.876232257529756,13.285117062854875,14.760144685538672,13.614675111313755,0.892478901424786,-19.65545266349769,-29.73474813386743,-20.407090719190933,-10.184128513869156,-11.693821589822416,-14.440059546508554,-14.464885158247693,-15.274133172355475,-12.871759237080912,-5.861361548602362,0.3903817729170056,0.09450123582049974,-4.104677883649437,1.7548895029249252,20.474643664556044,39.31049115606874,52.54091322376267,54.44403698379759,41.54643301825489,34.51913014953233,41.53056128640041,36.587676322461434,16.051334702849733,0.15517635145218822,-15.017800949788814,-32.850412186054825,-38.32595200815871,-36.803004306228544,-42.496895811801856,-47.41146676913396,-45.9576733125497,-45.21517809699063,-42.70917138003106,-31.770634184162375,-17.00899228464447,-9.32029113459103,-11.673331335103892,-11.971059726549406,-2.1042246457780536,5.2595564800803825,2.084622213722051,-0.20137146600499456,1.6580265542190027,0.1381489490905956,-0.29649764196100037,3.6411364654413045,1.3357783309151259,-6.79394516916906,-8.543326894397062,-7.2258759791157985,-9.946370319405851,-8.169315311040876,-1.3330548446135975,-2.8819470048499127,-9.536452415856708,-7.67075212889441,-1.9322803560159407,-1.699696738104226,-3.054724048508678,-3.0576688775116807,-4.8893593871946965,-8.15881472777987,-11.000472604270156,-11.211531115000234,-7.047425627815494,-5.967354956666529,-11.466529573584996,-9.125752175124422,2.0347963558171696,-0.2171211388294516,-14.337233302917552,-16.994228124154382,-9.935298631680308,-5.470476318656923,-2.637779240871037,-5.889192478731109,-12.219327850737566,-4.957694521092598,3.709725591115001,-3.6607241360443474,-0.9505682424169462,23.085431782468056,33.43676946929391,26.593127847397714,31.858390173321197,38.11611147608221,17.292451363588466,-19.05192208465541,-42.97158078239747,-47.63916692884712,-45.6293347159599,-48.906165895598335,-54.36088291223262,-56.532604156422806,-61.02181514192531,-69.22687557697789,-71.7495358986773,-66.89893104874886,-64.22905635928842,-32.534619625450276,136.85281877179733,447.65324184096414,579.4320314562448,235.27376218405863,-277.9105580934598,-398.98701214438177,-169.3744462279281,-38.40788470999424,-70.95443650436823,-58.77436402026299,-14.559276108124216,-18.193273613847758,-14.788748685850486,6.4502091000024855,3.458995874410526,2.0718874245652543,14.022668514808808,9.653651834393973,2.911166916201501,9.432300964062087,5.887171949976496,-8.714721271065647,-15.100718458463161,-14.276527452633655,-12.035885820506353,-11.976104259157298,-18.584737495834496,-23.54140813256292,-20.255659789176832,-14.54148007106646,-3.6412285249907272,15.330094799782705,29.99190019328395,36.697065048648916,46.02915758155284,58.78929773627701,66.4788493837407,65.37213022346725,57.67550965334533,45.42229113803671,26.363086633674172,2.5049957238140292,-15.463687458730538,-23.245299007955946,-28.444698098694897,-39.45027430886579,-56.21134376997086,-67.86455633630692,-67.702574903678,-62.0275342529212,-51.76820288468105,-36.670817181921805,-29.10275966991178,-26.397317078843322,-12.767534467030305,1.322268468316107,2.154548640745208,0.13183158079704071,-2.593555162434509,-7.751178937484983,0.4129812116218652,16.911749139234395,14.870752683281854,-1.7209155115620902,-9.93148381475175,-8.38378928232778,-4.376220899840394,0.10584249635853915,-0.006090647336836952,-6.1135800761654036,-11.069041721815791,-10.299795371762876,-4.420749871813628,1.5400251586988976,-2.481386241279804,-14.065258642708583,-14.219126755481998,-2.1002844918383747,2.4810037546833072,-0.6865881946896852,-0.8793865539744825,-4.643772551546775,-10.53679271216324,-4.23905633021993,6.91583815617367,6.9559628991624205,-2.1440433769543876,-11.217318224712773,-9.97349677112741,0.30652335618136917,-2.9684315134560926,-19.298054564662888,-18.395500121255964,-6.808673564289867,-13.769608253196543,-22.159154472053327,-6.5254157622613835,13.097169115522952,19.590725289775342,27.11136456417684,36.16510086359358,28.5849021809412,5.67579975857025,-14.587931391372411,-25.9028330773578,-33.21289592470849,-37.94330142225623,-39.81886563860778,-42.806238037732406,-50.81381783275258,-62.86277658998876,-71.36966018151787,-70.3174990813852,-71.00979626012837,-70.39903099483504,18.90146197406925,290.1406049320026,582.1866645769887,508.79945669803146,19.805490130837654,-370.89222085044946,-308.1023845485755,-93.6983042695425,-63.738249495778874,-95.72022944849297,-44.56371590383276,-4.129928693209514,-16.614042440920908,-23.674773327057117,-19.404099187442846,-11.708704045265705,1.9623682341888093,4.958858718477144,1.8833777410699835,5.488851499570082,4.606077104696242,-1.6056008936142874,-6.8034634788728034,-11.956348899352358,-9.5708719047487,-8.752477331761058,-28.26307695051223,-45.42632406226794,-36.493517841230705,-21.119847963997046,-7.835248098178066,14.427346467513319,31.454044832779946,36.30182405424411,53.41966660171502,83.13007352682018,95.97978175213773,88.32880237357571,78.820585247487,66.8423653569097,39.20658687607764,0.6543308931333436,-29.822735493251187,-47.18055520086874,-63.48578154243162,-77.59162694130845,-71.94340666325517,-52.7563526176403,-47.931762030705926,-54.953773186781476,-48.3058756142383,-31.872628067577327,-24.536311546607052,-20.557956818334645,-11.429389472510323,-8.891747875866553,-16.281713403132446,-13.692994915924963,5.57497247791601,16.21719660171255,7.207410101667717,4.033142061168599,11.72550695766306,7.719769911777955,4.59764072337561,18.939960684677242,16.74337354652308,-9.390939488727426,-10.748213916608933,11.800189527960326,9.499666532148652,-13.21664483917004,-18.723634286312947,-7.076163386481509,-0.7626534970664043,-3.8277319116375956,-1.3058597355464805,4.487846134486054,-10.791046954739624,-34.017775330094764,-26.382137364471816,-6.3563836943956105,-9.391387119404516,-12.115793942419646,0.6782175603185241,-1.1140018453035108,-13.338524420516054,-6.527687928885979,3.071865565693213,-2.973563148951719,-1.5200880889841617,8.0598224736117,-3.5744806956358115,-22.118463699452285,-13.218474059126905,10.327087480676855,24.62523188342756,30.98850882264234,25.373052186578057,5.679623316787298,-11.951666160961597,-25.739201784492202,-42.38145922758609,-49.09886268588187,-46.90905407589895,-59.70811286097813,-81.72550463724018,-86.66523605254314,-81.82547997214235,-86.1312347719734,-89.30553558781483,-56.77902892669548,86.65619542278864,385.5642782749534,632.9074678904196,472.4498322618175,-41.63355756020519,-376.358671336061,-278.09741169291465,-85.14856713813589,-75.24378534625195,-111.0126139626632,-64.48840119199652,-21.323276735531344,-25.23535606249068,-22.44867524849494,-5.406187576188188,-0.6216996718114913,-3.6299652275731686,-0.8627458854702392,7.535451987670815,14.339998077785204,9.795118444839563,-6.316774384265655,-16.169144616039787,-11.221716759151866,-11.802157682506461,-28.24514356810056,-38.44574760266365,-28.912276578269644,-14.003230161656305,-7.21444091603849,0.6982706357746284,26.603015604945213,55.719807562473804,64.30758285696837,77.44716549395764,109.05715214579195,110.5902254155651,79.17167954165848,70.90736505346645,70.28624396591198,28.58619872154534,-22.31789348642134,-40.776948856162136,-47.209659599105436,-58.82385253330888,-66.81714599014906,-72.40643828045827,-70.53474082631686,-51.465321807328024,-38.65887417534449,-45.73261602151467,-39.5415025305586,-18.62843356733604,-19.32796059226351,-28.397694179121196,-24.385126596543568,-25.5956939482704,-19.67646808938818,4.656871158666014,5.063005665034847,-12.30285206084923,-0.2476252537912309,14.770484965132912,1.581463598354354,-5.806974800204793,4.198140856444736,7.769937259117404,2.6761228581766066,-3.7772988891585513,-6.2405398046419105,-1.8147215557234695,-3.0579633086702547,-13.625567966405487,-16.221023498225982,-7.581251405709027,-3.3860643119179663,-7.6410686324726775,-9.745178643031654,-8.37234684678126,-9.603520192519603,-6.60599330848326,1.6621230282951398,-1.358615810275639,-9.731336138495266,-3.645082074807031,3.068633007824218,-4.70443570211523,-11.73656885757608,-13.440051672895082,-16.836981050458565,-11.71392074972493,5.124451684333817,20.09383231026058,28.97773601168899,30.37993620395669,15.162513572205118,-11.211576225936902,-26.517922565702136,-26.069855550168473,-29.086837378566482,-41.7380571948502,-50.27071805152536,-52.16003323613337,-55.16324315551542,-61.484039263238984,-73.2552361183228,-86.98901362281647,-87.14669984470629,-30.52591151715825,167.1345144770066,477.257867466573,597.938930572768,281.0697134638261,-198.3859191063076,-355.0850646028979,-191.06856342406675,-71.36033934206218,-91.76248048003653,-90.91682692110227,-48.34297116313722,-39.22348216877104,-38.46402403134224,-17.31784355216432,-9.028345016112716,-12.995589964720844,-6.318571191812621,-0.46674629407116797,-0.02511904042086499,4.241543093035769,0.13889617058481285,-14.878968342270804,-21.226193102347835,-20.38821981878982,-22.79730733651964,-20.366112795380317,-16.713458124591046,-24.054743498052012,-27.555574392813426,-12.771575090213323,8.337602872068855,27.650412023631315,47.56643559499766,65.73661245950319,82.2759498481033,96.80074957999655,103.25600842641245,102.55131981954204,93.85848657944085,64.35709956503666,16.060661975588378,-26.83043930610111,-53.072106709846,-70.61479352428499,-79.3566299054812,-75.52283328900407,-67.71377225851131,-60.111969948066054,-49.298873198538004,-41.71894331262052,-38.540391236493036,-30.979510559850304,-25.49132745954847,-24.54951816440679,-13.321774716914966,-2.2942782624537905,-10.325380984933037,-16.326969119579246,-5.192184682516789,2.915092066167528,5.400508180451684,13.518306764564578,16.807322256614494,10.391103440918023,5.8644579820131435,6.943831339688912,11.609684792230734,12.80979992080747,1.8172933941447766,-12.109107587009145,-19.938661796824597,-26.831671092517453,-24.39936190928651,-9.385548048335934,-7.859815912712442,-22.01312834206374,-21.278908760106177,-5.187817313214701,2.533710245322826,-4.566085498009095,-20.158975575011915,-29.434552494456465,-21.68155688312516,-12.137039197982425,-13.291708035341042,-14.786833735930546,-13.207768461058425,-12.55604786634252,-9.06271431217408,-5.064531886979701,-5.512190420218964,-5.990770708270464,-5.8890626893353755,-9.379293743490045,-12.27914103672796,-8.125473765857746,-1.6236505156971397,-4.277902447380336,-14.523014630302544,-17.010573352409814,-8.102794968539897,0.4327495307473228,-0.33727596659009507,-10.489909588173944,-16.28565730635899,-1.1964072015245213,22.91769425588754,32.192179031565836,28.044950948380837,16.42986737735327,-5.942847963355115,-24.860325485278388,-27.015889124683206,-26.968837021512496,-34.22521208835313,-41.745571719203674,-50.71488064216041,-59.95453497212041,-62.094270644098835,-63.75479376719602,-70.39947141633277,-73.92318134391478,-59.33716328790884,20.479759792916568,216.80410299565125,446.0696602209862,463.2214759190889,144.8648995063242,-241.47107517938946,-321.2533708700478,-141.04441948812774,-35.25097539648721,-66.24075837895174,-61.85096457647016,-13.6858466002368,-10.991054095066922,-25.67489812752143,-14.574158025629739,-3.664380927943917,-7.761046142704663,-13.878934932316465,-12.330351493150186,-3.987736037236175,-1.9682807550398067,-6.319258323464961,-4.031188443604172,-4.164854058241609,-12.559248004740072,-10.814078034294194,-6.1973971750296,-22.03799112331077,-40.50938481361936,-37.40248102513027,-25.211477402900925,-14.405469128351037,2.8342411878227596,25.126054399573153,42.90856186822854,53.06389159216656,61.539294623067576,73.5448996917429,79.98942631699731,72.770931577673,57.35315109429236,33.26474860284263,0.9769417887297127,-25.209161248981307,-42.56515602387728,-55.58514991958633,-57.568815843744304,-54.740694183861265,-57.82421755156823,-55.01494153964792,-44.164219101312604,-39.4682371868513,-35.49227722352174,-25.260616668078683,-18.521190686461637,-14.824411433400336,-8.42912756512262,-4.788924818434285,-4.350992175941077,-1.8234926190769194,1.5896380623034254,3.27377669398912,2.1941378402088123,0.46208496279271394,3.457868666515223,7.400251094363764,4.198611906885153,-0.5594905362733034,-0.18318495275300606,-2.0976335078205004,-9.763915653421664,-14.32952594847822,-13.008878512687803,-11.208737835132226,-9.771289983941529,-6.76832568316129,-2.6673543337523498,-0.5737842692373789,-6.913120092716667,-20.191652933051817,-25.863799551284636,-20.399076535792133,-16.485146042624198,-15.252719977522856,-10.96929240885553,-10.744910349070228,-13.787178996106386,-8.480704596646522,-2.5608231965639128,-5.033288002405687,-3.161483129713911,2.515920636345715,-1.6301535691526965,-4.3186865611644425,3.680366762277149,6.283558479973594,0.9295581079049491,-4.426598724519145,-16.662738768778134,-28.7126276333113,-22.826925195132823,-11.457470005155777,-12.42245791873194,-16.292666988215313,-13.97815014361177,-9.786459276007648,-6.314632452557838,-5.51888703216372,-6.720137945790842,-4.173352663345128,-0.31446238233238333,-2.400327222367297,-7.806779129916716,-8.12741292206104,2.6051180312827773,20.93646687063479,30.764500977921166,22.71589187000905,5.145229439185,-13.050158150941293,-26.66708277817337,-30.771305142919978,-30.310866660837576,-32.73335567634534,-36.94401889616501,-42.97914275438291,-51.0248788429321,-56.45653733780801,-59.12850713760255,-61.15675864983573,-58.694659754904805,-27.611174969952753,89.69166959709133,301.13731472091104,443.090033056591,301.23001511445216,-64.44994031558949,-307.06187851708614,-240.51830236197404,-74.07834571550764,-34.65307244989458,-56.833013691030345,-29.233021900490066,-2.2374380172372668,-14.928573850561207,-20.91858434435384,-9.901121360424476,-2.4527470778669382,2.810122211358456,1.252705528315392,-8.713339253066824,-11.050314063011424,-6.903560148546655,-6.486999980493454,-5.9214423546475,-7.778240835577359,-17.339141172493523,-23.299072513599008,-19.25276223021072,-14.778909762041376,-14.049833550709911,-12.266856916010926,-6.851750305881293,1.914932283355741,14.270095520608624,31.874657376276623,51.67403425191971,63.88449596016699,67.10243145327372,68.76147791354757,69.16350845329202,68.26266031186843,63.525296723615796,35.37220560342787,-14.676801803617927,-48.06629146507048,-57.54290969606775,-69.7834295146412,-78.70014649730865,-70.95639678023676,-62.77690835759081,-55.65434938506882,-37.15851772318887,-17.93787002684634,-10.168725508753951,-11.559518607858834,-15.560502532795923,-12.557911920268602,-5.794159733645429,-6.647741093094496,-8.260539791379642,-5.292109553172452,-5.376225131183119,-4.573076833375644,-1.0088308905913301,-3.5362986288072946,-5.814821505978237,-2.3899895276980097,-5.378606392793824,-13.13500969400194,-11.031579906107734,-2.0119372823285264,0.6438215920745556,-5.362462196781456,-10.080601620098946,-5.818750366933028,1.5031467845256667,5.76583226746384,8.593770570247965,3.6119561939440104,-15.156381697683795,-32.407304149363945,-30.904880955823817,-17.696578548841416,-11.562732860654556,-15.681920922138252,-16.39692799459546,-9.212231657893087,-4.355079998304081,-2.73812754403351,0.605582413323118,-1.637683702517375,-10.49555751609833,-11.48801724477466,-2.699503752609118,1.4098433295139454,-4.672105623427683,-11.702827604634956,-10.80773574645169,-5.252721773765126,-3.331566134493327,-4.654639272815228,-5.9322834928527755,-8.351130700069765,-9.265462480509814,-4.363412055756495,1.9347296462191679,1.913614293722894,-3.3026132841245897,-3.7257466747858565,1.9161156203890624,0.26994765723672387,-8.665656444315134,-9.11391409566016,-5.115867260564768,-7.383854787699523,-1.0549315682948572,20.022195303239346,29.252529410380465,12.178954653701553,-11.634937397334593,-22.332199288651587,-21.777356712326178,-19.70461428127068,-19.860541645361373,-28.19130498473492,-49.649499612554344,-69.11765572085073,-71.17791609685207,-66.0384902610933,-63.48829223897886,-60.9123318760773,-47.853933286988635,38.02480627820543,256.46537815902104,461.19107740989324,361.0287749816524,-35.26087274375533,-320.48920008025647,-255.77089289884205,-75.65764322148735,-27.920309494544995,-46.04122298003314,-27.027254542113738,-8.795054020675792,-13.155800563653518,-13.436944211069674,-12.045482743844056,-12.208653225227836,-6.215406791321318,-3.0870211973755666,-4.27779380025722,0.09820379731165296,3.6064577392295583,-1.9260810773465113,-10.297300756278785,-16.617220281641885,-21.115189651439806,-21.739186142169665,-19.315971221019126,-18.91390727352272,-19.765888541819823,-15.948016584935894,-7.147373324961835,2.693230369902407,12.454175631440085,22.893011833509533,34.82676841690202,47.44757560916513,57.795728910125035,64.26318109407833,65.14147506806182,59.632039575599705,50.15444955470927,30.480108353376878,-5.415494815369367,-37.25797161538855,-47.269863160834724,-52.13266875679514,-60.39491658798968,-55.798940868186804,-41.36372514541916,-32.298179510739374,-27.80150595826025,-29.140779298088873,-36.10616124405432,-33.5536455940108,-19.49730572561988,-6.2595603323305085,1.199526587876555,-4.943610483916871,-22.513821870558345,-25.344168586794414,-10.041477313502757,-3.3348821308215086,-8.329452281569253,-9.049527578059688,-4.745281211320034,-1.0317618709801941,-1.380444072028503,-6.134126552632772,-6.658543123765973,-1.6439286790783765,-1.8057201061553716,-5.1094297740608425,-0.9846270542426243,4.238813162246007,-1.676588643614462,-10.195112700225213,-5.0408776665843344,4.2089517171297395,-3.4263884105169033,-19.461768008922544,-23.439899708195362,-20.1486821218766,-19.16438323631811,-15.385302822919538,-9.554377980040837,-7.865729648898522,-7.7014606251991395,-6.282561762117691,-3.5323831975968965,0.3390436573616533,-0.9600153934105933,-7.401316960939315,-6.607067161328567,0.4384362575400438,0.08828964175579834,-5.05928808226931,-4.983516353775219,-3.2924737530924872,-4.67541264412576,-5.904631764184659,-5.000021299975298,-2.940774642063589,-3.0554252254704544,-7.641796088204108,-10.302399958665426,-6.990557675910262,-6.567663219296055,-12.410692422261672,-14.448703344888461,-8.712910029184018,0.2390385336075509,13.018143900126637,29.603749455452984,38.54961576175677,27.273040331458816,-0.025263209088425498,-22.419884880208354,-25.951294963378878,-21.373738790919493,-24.868220149850043,-33.408055388475,-37.763229828498,-39.63221653586308,-41.033178009475634,-39.89097274923093,-37.81167411810513,-39.08497213380366,-46.59804708546909,-23.9794163631031,124.81326717990218,380.96857091680835,455.20281167095743,136.45738244639617,-273.76074220749115,-338.6978973763098,-138.1889479064954,-28.20693134361801,-46.741627598241635,-41.18107495330406,-15.603621854391655,-16.72337827973453,-9.685219967904452,10.786426912317747,12.452206277472893,-1.4749232339053364,-11.370527083902548,-10.633994628159368,-4.060223088889675,0.01430714901013097,1.284976896809015,-0.8334526126563624,-9.334933382252135,-17.235529729770242,-20.501764124635233,-22.499074703198392,-21.046744106338494,-19.0986007919008,-22.007017831209815,-20.310513360205455,-7.773309901779534,7.989287474842388,21.900808300384202,30.16262786992888,31.183936864855333,34.99917921966876,47.19293797765341,58.17011588418125,59.114924949954386,50.43927988714538,35.24027351467589,12.75081952939644,-15.099653079077328,-34.74333804494647,-41.165538181890625,-48.79976068350774,-58.51511495824298,-55.93996690719198,-46.03096540816719,-39.79330565590476,-32.64413840185746,-24.699891161724604,-21.212232241898874,-16.441898385973126,-7.010986558343717,0.9754974655043895,3.4320310353388486,0.8392192925989619,-2.055068362490763,-0.2034003966126452,5.251714986051498,10.568603172515202,10.373896775515846,1.9287271665237284,-5.239175083377299,-4.295352165636344,-1.3280812022157358,2.480867473125146,6.41165732510305,2.240810063549368,-4.38076030406817,-1.4129253693188613,6.626416231315435,10.692579913135603,2.569859374254312,-19.357241612306463,-31.836997442510757,-20.58349165140628,-6.716282383787481,-3.0412459038591493,-5.522670667386805,-14.599083363277263,-17.46291093765174,-6.396259149700237,0.451740462883512,1.9574994247316955,3.7053630814421474,-11.208134407304975,-29.514898479617397,-21.410594492996516,-8.310291518456408,-10.689637566002174,-9.727886236271676,-6.813944913292321,-12.39919541056234,-11.541594567148248,-3.4800802671732676,-1.3921483844346323,-3.112650452244429,-7.714153034759175,-13.065204297780983,-9.607656061721388,-3.1469836951972248,-0.7414873060541112,1.5794226802442317,-3.189297227419967,-12.755438309054043,-4.597378173508561,17.310890071948307,30.560843865197693,36.872287075273704,35.79271402360442,11.972928113844876,-21.17255828763883,-32.098885852264026,-24.422176973042184,-26.761591018165863,-43.703226888939845,-55.21829750972854,-54.596536903499064,-53.55173235429311,-56.305998794666806,-58.84580628032893,-61.482947650685944,-61.66061338168848,-28.514211300847876,117.2612103161449,385.33104123977455,523.7987211595173,252.28119630254338,-211.42487856936685,-359.7348670307691,-172.06243541631244,-43.04765641431699,-65.8303364134307,-59.138266886924896,-19.749924708778742,-22.74549025833403,-23.690440783527237,-5.012607623358621,-4.928530811657609,-8.363611266149096,0.47866658367304904,3.518476770137182,6.062527330680352,11.062299484550739,-0.8755720520343662,-19.763232147885503,-21.19829523634646,-13.889723813691969,-14.769575738566683,-19.56908516330277,-19.374564937667003,-14.953981036506198,-8.431154136488857,3.30759780473496,14.105931181333942,7.943132426388796,-5.823648422294058,1.5798213286886558,26.4491547706091,43.40805620476195,49.18226399877035,50.030870070081576,47.650549240403464,46.48943218087703,39.96236061156139,19.236319948488216,-3.465306121148129,-20.978446689798844,-42.47749790995208,-59.933924249024045,-59.17331553245387,-50.98914712482711,-47.549148256293705,-41.86650511167305,-30.84078370026414,-23.558391379928945,-21.219398279937902,-15.022981368958613,-5.69903290490085,-2.497381539121271,-3.1023754599102773,0.8196911416875459,6.049396006452299,6.807518571295422,5.037413158886608,3.969743262258781,4.83569684814654,5.0538991533493185,1.4322982739571737,-0.9439564683452737,1.6920955233327977,2.2142769527984765,-3.849119864677773,-10.898398703389631,-10.830857675281806,-3.5696080597879476,-0.020173008943892512,-1.6287140399863649,1.259735259387691,0.2899643347037504,-11.4851474775603,-14.069489724779466,-6.10014915905678,-8.961908731201195,-11.909432534949865,1.601083182888586,11.971634799524132,8.210380086687572,6.4239439748455505,8.674572899988533,2.9714650302005285,-6.777644190944328,-6.858936694300304,-4.561893353040867,-19.96951774673596,-38.52455547952046,-30.074607799133155,-13.523876229209842,-18.900563748223156,-24.72834778912348,-11.732946292531162,-2.532262329090255,-4.723090256145882,2.6925459041558293,21.453382060533727,33.86054081509111,35.43760432706478,29.640833290769997,10.996573290576432,-14.854396958669021,-25.037508527139465,-21.12741010077417,-26.715751724988667,-38.58382035448069,-44.63625487482249,-56.97332853134908,-76.45068583806048,-85.48365123402033,-84.79686653180056,-83.0182655373113,-75.2299395155334,-18.22934400593212,188.3925810661197,514.9933868538883,609.4213761528779,209.13160719360093,-305.53799626517,-381.6768753335725,-141.2965491753882,-44.86917388176608,-92.76182832366695,-62.54092233900707,-9.326918093558803,-23.90033364460775,-30.737993289274034,-10.664286975235747,-9.712241160101303,-8.938497349453788,3.1204000995115084,4.098347983289846,0.6355296732514546,-1.119379380560062,-6.799233849120739,-6.916895701943615,-6.8112182349970976,-20.00854671533263,-30.644018390388602,-27.290450726594585,-21.699274181705263,-14.89770553474388,-5.329605899609207,-2.3509984339091097,0.46180136570432495,17.62663354808221,41.30314501703515,56.84279568635381,63.93000955426009,64.9450689095608,61.043417708448324,60.226871493408225,65.62248417398901,66.34173697369269,51.734528564748274,15.960556978615761,-38.38475859324256,-80.89984091763048,-83.15032725150473,-68.38704758905877,-66.57906964383677,-63.63685641822897,-52.08361773963307,-48.794443995900245,-44.91564561740584,-26.480104040174062,-11.596332887684746,-10.62263496259476,-11.439624851716609,-10.813765295826098,-5.905460673987548,8.581049563337706,15.532717252027817,3.9504205519407485,-3.0100100404852324,4.777245382725533,9.007018812166763,8.052088757857081,9.301584600669301,4.2030390089429375,-5.195224704663801,-6.697736994632167,-4.289428480743107,-2.838656036553223,-1.350684526203045,-4.819668015075878,-11.110979608806852,-13.8302807372451,-13.081879561583925,-4.296235708253182,5.325895876084887,-2.5214199742023027,-12.796641367505766,-5.578047459929181,0.8505399839334391,0.6445982966029256,6.567851260613655,4.308828920709772,-7.656090055008818,-5.628843223749231,-0.5840631035194317,-11.166441593385342,-19.858110301997847,-16.677249411036517,-9.309144258998288,5.577647188652676,24.577440612133216,33.02020160130204,28.779793058213258,15.932278731001077,-3.200620955766837,-19.70448300253272,-28.22995000604203,-36.80585287513792,-49.794527025972236,-61.2038136552173,-72.7305731483568,-87.42712781861495,-90.28002829690577,-76.42739447369308,-72.05041549266979,-70.38649918798608,26.010072006106824,300.998002626451,597.3976130720579,546.0990180237586,68.23974615810167,-360.26280690878014,-338.4168226371522,-107.90622948977247,-48.31583872603902,-93.42340433484915,-61.78301800489451,-16.784361849771045,-23.846516062487282,-18.104465158099913,11.927531630214204,17.716521769930786,1.9435635092293886,-8.83168055136444,-10.155983936688472,-4.876982661116097,3.343776459773725,4.142763611232338,-13.773778809345597,-41.46665406655161,-49.77262665042551,-32.161020657463794,-14.584124600421946,-11.97317658531682,-17.809055318582377,-24.378432393263626,-21.458815354196872,-1.1965327091260676,27.159523416267724,50.54064321735602,68.57285522678981,83.50767783543904,91.71074651255832,92.48442325589046,90.44202839118917,82.96186222263762,58.34296381796814,13.924364883762644,-35.44993074359071,-70.59921322813058,-83.78877311830799,-84.31395352019771,-82.50742704784832,-72.32480318599329,-54.069274500077576,-47.300327766518414,-48.65449716300756,-34.22208538199298,-18.504940639036214,-27.232421258113785,-31.481174310926882,-2.4537298576692983,20.010293688890584,-0.1451253570328177,-24.60067958516863,-13.435697031036996,8.61535705730385,11.258443064904112,6.109969028203542,5.0147935574521565,0.40952612603096306,-6.446351790956188,-4.516735060668097,6.60625271872174,12.325745309491815,0.721075842095594,-13.215949087136675,-7.855173016833843,1.7194596931063941,-8.458346390920324,-20.225099772486107,-11.372727579969062,-4.2435238426021975,-14.832949290026342,-12.828998928853697,7.87831455593107,5.2802984275046825,-16.37377241732195,-11.732094846165266,2.024095163648269,-4.933249593464032,1.6122082003277454,22.75451332995985,14.419923219002303,4.674650035419625,27.127539639534863,30.77817368871954,0.17852483129391317,-17.77456884066734,-29.449032888612606,-51.53606164655211,-52.30291548896386,-39.53192848891271,-54.00389970925194,-81.42217526628731,-93.74556183880425,-99.15768778050798,-102.29635319050826,-96.31690055927659,-57.11028133067551,99.01675998642139,403.73082877259776,624.4802576332366,434.8043017373602,-63.78070520309646,-362.5467425529456,-264.0407622904929,-96.71816251466093,-86.60165613005262,-98.20032934446033,-50.03527584571293,-30.131899965940903,-39.65632215443958,-19.117686456172283,3.307753306078517,0.11490563418760047,6.383350332955386,23.961758452889626,18.86496414808116,-2.4053317622712065,-18.086031058122597,-29.46634745635081,-31.39968448070499,-22.143726604603202,-23.79016470182149,-35.95920703317909,-33.109558684791416,-19.3053515683017,-13.44244273779484,-9.347039920902777,4.451813733953703,24.500942686982377,44.72759197549607,66.25267500319774,89.2350629165849,102.3849892808423,100.31165206011929,96.5607618759712,92.31962169587479,69.29545182121517,27.647634304010815,-14.742307519976997,-48.775117798175415,-70.07632399351606,-77.4574839211493,-78.98119883903479,-76.87953706233,-65.33108900898578,-49.15433513737672,-37.712510059377195,-27.112337406058543,-12.276763717733388,-5.040522484711165,-16.924087942387942,-31.637820540084498,-24.639897754585782,-5.649001629210012,-0.7102655163980351,-4.371479924031284,0.9199967139926599,7.693497560509879,7.37565209408632,5.565550595639314,0.3897159224097564,-7.7045832891748525,-7.316651968875114,-3.250942299235099,-7.688058816471678,-12.92356670994392,-13.456022604338846,-16.5253160139835,-16.954658458313503,-10.479411551487804,-10.18960952293562,-14.57755958401803,-9.701031597809513,-5.7919604095654265,-11.657240690944237,-8.363411785748855,6.064819139514852,8.521385913026135,0.013549306116539483,-1.95990029086793,-0.44683052861274497,-5.160547917832961,-12.626721267156551,-15.713024831403558,-14.930712355465836,-17.2557888683826,-22.276208271836143,-20.17058355806396,-11.310443950229914,-6.225546334232709,-6.451790850026676,-3.9184733728313965,8.06160443080109,27.100241211048576,40.5553693505549,34.33665859140352,5.264507443550926,-26.759730852258542,-35.04471739635489,-29.22334743392715,-37.268905718875175,-51.098040428725305,-53.61311461276437,-57.02588122742817,-68.655110988704,-77.31221723408822,-77.56444694063158,-73.32157238607121,-61.94986743810191,12.483879848036906,231.0228224295899,498.89783549964534,510.46020790073385,147.3112655223586,-250.83973833638754,-309.90081956744564,-134.12106645826265,-48.918203672652886,-74.39529923023807,-56.11965145241436,-21.840062351244768,-41.15255627660498,-50.03739629038288,-19.52180637873282,-1.9930984399433207,0.5823113440898062,5.752845905701605,-2.98812621500338,-17.628961064191728,-14.749819469057561,-5.683076631250454,-8.633051645093985,-18.64141964540484,-23.472331178416805,-21.21187900699414,-19.12450184871281,-19.1493738840918,-16.908844215823688,-12.940885244225736,-7.3604737860359535,3.264032184510299,18.917447323741133,39.92353361760739,62.67167199845491,76.04380819292227,81.92341796744998,90.62433044281495,93.08808636387793,75.30242565158491,41.6958830633113,3.6367972163993025,-28.86647306781715,-48.748183961462274,-58.8377501858889,-64.58409799190656,-67.52044591668579,-67.12083777370384,-58.69896101945662,-43.85331438917957,-33.23899360486724,-27.082568469612653,-22.295357892746846,-23.419729370484582,-21.900020218848603,-8.108713695901908,3.709759680787613,5.0037032787881515,3.902738878947762,-1.428335951752711,-9.816691363982212,-9.536263172528063,-3.7293371628362646,0.12703854778201062,2.5845898782225074,-1.972272904901505,-9.653194639883953,-5.130210293547091,3.8023189100547796,1.4996102040016464,-5.306466816093685,-8.8342301211128,-8.972816051078054,-3.259600707813494,2.2277707960216944,1.2677682086369124,-0.5346495732636001,-4.011168504580308,-10.205130047141857,-7.375213160520243,0.8086743160929988,-2.105001831226545,-9.09629637084846,-8.930866912896636,-9.973688171572164,-10.500961640286196,-1.2822591231654101,2.594529709017852,-10.655154385080099,-22.965985713529665,-20.91616529597743,-10.237359275379738,0.337089680047967,-3.219601364617457,-23.584220415334137,-34.68181363334331,-23.038460959637536,-10.196738542562038,-10.391423441542248,-15.54127764595469,-18.85239609433188,-16.9840823484774,-8.229344668887416,-0.8277838227317176,-4.1254862684265845,-14.066024878886477,-17.191360524630298,-4.52403480017182,19.444099465260592,37.14911571007819,31.959684674933676,8.710955240289412,-10.757028174800045,-17.853303206003023,-22.503216321180254,-30.888104676602733,-41.34897697938157,-51.098187540704224,-56.26316316849305,-58.75960045208691,-63.85111584861408,-67.4297413068999,-66.82945857096226,-65.29100143835136,-34.06770137064953,96.20677970723287,331.10191474830543,487.1099239140117,321.3088659817387,-91.77693692139565,-341.6284633116962,-240.3863852147303,-65.40212601279758,-47.10732913748747,-71.73055826113098,-36.12096312855974,-13.181097876704492,-22.268631950289965,-12.119187755111872,4.14220011524376,3.0386541845931045,2.1576209730062335,3.8766264344915493,0.9671419936171723,2.5690399993078685,5.876503760682916,-0.3331919676549102,-9.95687835383228,-16.58363900837612,-23.152360821870644,-24.9957093414859,-20.268419672546692,-18.616031005298275,-16.94967165126748,-6.29652599217158,5.698417518536299,17.20479668144999,32.855922442731696,38.802182169839334,34.925829162983,44.61480996793628,63.425491377506404,71.0538398253258,67.69995961939021,51.73569195616806,24.448773912266777,3.258010186013231,-13.870217490528436,-36.67906083785051,-51.469051118059255,-57.014758180401714,-66.73059572210941,-69.83132132447199,-56.60761809568611,-41.76618222129225,-35.01207233276192,-31.604254302322794,-23.109124469058223,-9.095307006510218,-5.4110221859842795,-14.473951114948257,-14.168763494877464,-2.759302128640833,2.8390438516079826,5.420448813440931,7.703134388346442,-0.40683046791118826,-10.838909960025518,-9.11131000337188,-3.009380474426015,-2.3639951273347197,-3.222827386508701,-4.034206697654689,-7.727107997284325,-10.431842080720724,-7.544676649239264,-3.729707381206582,-3.7147209949251963,-5.095493198122991,-7.166902509988265,-7.961525812249896,-1.0959201125860574,6.543385517189251,2.4752206814062756,-6.266382600197886,-10.274282010253902,-13.155103358877728,-13.646686957069367,-10.606380645977548,-10.439902089560235,-9.975254590845733,-6.652557457474007,-9.167291589451834,-13.206249979244578,-8.720785971571033,-4.972273003732774,-9.031694969127113,-12.462823769877819,-12.864589948732,-11.22443858690421,-3.659089216036641,2.511177913220198,-2.5264553141882615,-7.9241882017051015,-2.887599868074144,3.1383931114774954,5.4796780298594445,7.961282513373389,0.07820655798677834,-19.961821334202032,-28.184185074296792,-18.574728599274664,-11.012125239722533,-9.569034176601862,-7.149589920767397,-6.925678975884182,-9.40846822421771,-7.943349190020372,3.3175852785578464,22.32399827253674,30.887484666528252,17.42625449053514,-2.117746301150156,-14.776063648986675,-25.585653511219355,-34.60493144843824,-39.29045438316658,-43.379706196597056,-46.7047319920447,-48.61806548740308,-52.13612762731012,-56.06260733317214,-59.006108276016526,-63.12454137526307,-59.7387952845297,-6.423881594119344,156.4303751287954,383.7424788832173,446.1927510749882,175.4671080606933,-209.6785865166861,-324.565538757176,-162.82840437165098,-39.86701731586526,-56.926734578122506,-62.86202673866431,-21.940216917224,-8.86088612976392,-11.036125109332424,0.8507864578235189,1.7304402409558346,-5.42834888295174,0.09344255635868137,6.70323368116574,7.80492003571608,7.316827410388949,-2.109862871537576,-14.307148219700132,-14.707283319667262,-10.754282104912381,-12.754566812267866,-15.804671740331802,-17.298997716904573,-19.373466655309528,-18.077340831431815,-10.35356796372129,-2.1997194137632907,2.242826630283509,10.372833180243825,26.810629563574686,43.13651934177472,54.09547946605546,61.74481981696678,63.50380008588885,59.31149347177328,53.05456173229913,40.97715884689658,22.93043696112735,4.760905352223062,-16.331294712442084,-35.82633166128408,-40.933038988651774,-42.20117400225877,-52.99995736552665,-58.108031027366614,-48.159389761862386,-37.14005981816253,-30.343894010788503,-20.8878283774254,-11.507785161966488,-14.45356133793712,-28.97204728252899,-32.96752749750273,-17.87874825446246,-4.326671762837879,-1.3324772560137816,0.5558670408821769,0.4148000187351215,-1.0696604681743338,3.2979994305674154,6.620324720802074,3.2012028961459897,-1.6667804845461731,-9.806275053914238,-18.822017335635856,-17.04236325127212,-9.199835820525621,-7.810445407907775,-11.475705336506085,-16.29293473840099,-19.268525741104995,-14.340120964160915,-6.715784961106559,-6.559139260539972,-9.082423749673547,-8.119589082063762,-8.432358217399596,-8.495001809003693,-1.6630200175421983,4.272711081217615,-1.1309294365574498,-10.086347633446476,-11.428423889447526,-8.377366429602024,-6.397872458581004,-5.053992322831451,-6.462839190520633,-10.99543962049783,-11.12792449317992,-4.874767878952252,-0.7229993980677403,-2.594737903073497,-6.377849367590098,-9.024970355713378,-9.015830515474743,-6.218519343829003,-4.899327017417271,-7.194803863893524,-9.126460095031113,-9.322965894592283,-10.408874095813141,-10.972266637885804,-7.248842572740644,-1.2715429057269194,-0.224820226890305,-3.5434662693334147,2.4868070008994203,21.03412840286334,32.7369097958608,29.890438855626044,24.51521799134433,12.251481694138462,-13.691467135799694,-32.13182139126818,-32.64831410501457,-33.05054652079052,-36.80753553372701,-36.62796131300284,-37.11991366100765,-36.74726335296687,-37.76024666455386,-55.936067507403536,-78.15923761428205,-77.26501952916796,-58.45704143183063,8.609892128165995,203.2224967782419,438.2225535810882,411.02051318943336,33.89025339678898,-311.1175835339721,-291.24221019365575,-98.20057568920514,-38.44970691373632,-63.226341438396574,-37.334356253158944,-10.225612394251684,-17.075993389583843,-8.459229075099309,6.817270434095336,2.6382730402217245,2.170686455702694,9.743284991409501,8.505760516305166,3.6235971169846692,-1.0419651264363488,-7.731592998063649,-8.784844945615777,-5.828013600477201,-7.903979653525731,-10.575567249789776,-10.883660011258407,-16.018939165979305,-22.266780610845167,-19.123807243656852,-10.4311705265665,-3.873246875728328,3.674920645039733,14.415036941707811,25.356788543333423,37.01334774371376,47.60941847690738,52.05683012427001,54.07848751623462,57.311135296495586,53.60286031156457,39.55520140840832,21.083410245428695,-1.9023858222901175,-26.465603127708707,-40.11204324715895,-43.20486229376525,-46.598205738411636,-48.16901174903322,-43.89454213154271,-42.68826258382549,-47.84834609521729,-48.141320166931415,-38.26780353819609,-27.417811196960212,-20.485914048146505,-11.434022926140536,-2.1662633764624566,-0.3643168408139488,-0.06396015770318542,4.831382606655296,7.768233769722645,7.6220849965725535,8.349667755459212,9.208879540401336,9.941177075458011,2.0698719788065887,-19.38486277328134,-29.680472814955223,-16.786332218114314,-9.847369680507988,-17.347465590750453,-17.973413364198482,-14.428919535253026,-14.836256051362053,-9.277298268645694,-3.1700126333623047,-6.898017486173195,-8.461581871484768,-2.700395920027603,-0.7643543604076442,-1.9734278673138164,-0.9920511294222543,-4.036180201506697,-11.860057831031057,-13.750880198516187,-8.039578482032127,-3.8741364990720406,-3.401353868768739,-3.696127106742521,-6.091763126662551,-7.4950070862173295,-2.920789034064663,0.3623495548473521,-3.908021724100852,-8.200024939484951,-8.260188280808007,-7.496268219275653,-4.80815821506604,-0.7726369655279139,-2.2709259565141693,-9.782401556277872,-15.117984652696503,-13.889730916146036,-10.032958247756799,-6.960620985090506,-4.595799275137047,-6.281353133402021,-10.27384365951119,-2.0083192967312953,20.63026701217181,38.7673727804926,44.53180355466231,41.27068195571396,20.333206561601095,-15.819640428622872,-38.083958726291826,-36.00898946715506,-34.540252975445874,-44.94507784143906,-50.654775307254624,-47.408038946082186,-46.17942645128005,-47.071033433149495,-48.38249206315248,-53.73235922504239,-58.691114415715326,-42.085538777459284,62.34224985203733,298.98177736071193,484.13311911616955,315.56440426189107,-121.10552890595099,-353.85337315233187,-216.78841265539086,-35.70282497829116,-27.506341978810028,-63.87231776121328,-42.4821622712942,-18.240993257198383,-11.298389465175639,4.444390565764293,9.744587583707007,-8.432827458904274,-17.670458486175324,-4.761882152023469,7.625214950953202,5.743398089797871,-5.643008761113766,-15.740306502830375,-18.484188846385823,-21.23385479158557,-25.8201414792692,-23.12463421441024,-20.79449387843297,-26.855555334534404,-25.032842564216374,-12.511707560657083,-6.557414876416193,-3.713154588836232,6.520458911099451,18.83179441670325,30.928625757375983,41.9588790835073,47.004110125911446,49.695272117893175,50.58420167566162,44.83429000298757,37.23829392341261,25.949026344306816,3.9336249911023846,-16.872769887751723,-29.748843718922945,-44.76730236890813,-53.64780698145863,-43.563153391325365,-29.847077442885265,-27.787939136001903,-29.57434030922756,-25.73880369080834,-19.40756830038668,-18.817985160489645,-23.624710943229374,-24.51008509430933,-18.8335376956261,-11.36551390021831,-4.544346581500287,0.7309958056520074,5.170884157006547,7.13151776722836,0.9232686862455317,-6.989050887863755,-4.58526991876373,1.3876487071905466,1.1301003003398833,-1.0695250059721424,-4.316940511643503,-9.811063198279935,-9.609331495790295,-4.0666011810575124,-4.345481122866756,-8.742911943769696,-6.504630975357093,-0.9528534075398909,-0.9403136124971763,-0.7587859054923198,3.941737939864826,3.2796562388841366,-1.8576269896325082,0.36032706827918304,8.45711862603272,17.256507908814218,17.295191655295202,-8.816111523127617,-39.47664096320495,-32.95677488079579,-10.394926414215057,-10.106315037746413,-13.931142266103702,-9.088722102977815,-11.0329467847084,-11.122457500289936,-5.635260900343313,-9.695005465626956,-11.399105250080392,-3.1330579965036307,-4.552892090288184,-10.831880970356298,-7.406620520520772,-5.366567222677332,-4.839767026268479,5.9204861529381505,20.064290166746417,31.22657241405499,37.797031530486905,29.889729640445797,9.77325566778638,-9.613084704736819,-24.32966462490519,-30.04919278143197,-26.069110198994377,-24.50163516542799,-29.96205098015584,-40.31483484643274,-58.39028620563147,-75.23755366293005,-79.44254875883125,-83.1231640314176,-88.06621578175867,-23.7361771901561,211.52739316495487,525.0728545561974,542.5335662330679,95.75950851283541,-357.2572307791246,-346.97717758852934,-104.21441099181088,-40.38554386584902,-77.79224553876168,-37.393478347335005,-7.008618628405316,-27.492649449105564,-18.959396261232584,-1.307955858300204,-9.698869785513658,-7.518323481787991,2.6447763980898875,-2.200788252732906,-7.342203136045306,-9.112883642901567,-10.524273152849108,-5.535132324191922,-7.144915721792602,-16.75506319478017,-13.263311135084425,-3.310665152722045,-5.954106311246752,-14.10526582227438,-15.380482490619572,-8.626686339287758,3.335430796253222,19.811837395120865,40.458112991633165,49.459255211620544,36.39134731303631,30.846149353328013,50.81444664624439,62.68272263683802,51.305025431659544,40.356495329270544,27.89296703638972,0.19403347369392066,-26.283709162737697,-41.400565096724634,-53.63206353662507,-57.25823202249481,-51.388817388500215,-52.971536555455934,-55.814624470505095,-41.48361476614417,-26.86580846246145,-29.22669958476456,-23.882781830898352,-0.4828694340027653,9.09450985953251,1.1156291410537627,5.342952694888302,15.665796835352971,10.715225229584146,4.0216414318290905,7.499263991822094,9.770091503609246,5.261103810014102,-3.8924806636104528,-10.34641457187588,-6.547130209702301,-5.7656714803599876,-15.353177367298992,-16.096632098914807,-8.465082937434161,-10.380894427662792,-12.786874405198281,-5.644031353820452,-0.5485702386014779,-1.0101705168205513,-3.2900319261646995,-7.639743177249862,-7.103261569624399,-0.37674044787529226,-0.016132142363160185,-6.236235816451019,-5.541138974508192,2.885587014266367,7.441512020080523,2.9600517058422566,-4.753415169148152,-6.861039127817705,-3.342472078183887,-3.9260744961882863,-6.629722485023018,0.4295786403620525,2.221732345279559,-19.452148032657185,-30.782059235832378,-6.566620905349806,6.071794758554454,-16.42433686196921,-21.592442454807383,9.1678879475178,33.2870648535682,37.84946534233173,38.46596898745155,27.567718816631164,0.25443287683815186,-22.191224904585965,-28.96241576258221,-32.10601520302555,-32.76228126570727,-27.17257831051908,-40.4470424920886,-83.13756216633834,-108.39337615624648,-91.69609054534929,-76.60112771170017,-85.41347486280401,-64.78569242491226,85.67867436239626,400.4724394077242,642.7777187190234,447.75732542868366,-86.33356269692355,-392.2219560718684,-265.30900594009364,-83.97407827384593,-76.84556793000645,-87.23687624468776,-43.19408323930075,-29.335223636399014,-36.95242944928604,-23.177189110831932,-7.071535905003763,2.9749289320023937,5.959782167247388,-6.025670283747004,-9.54567352521782,3.149651220720777,2.8028794524969083,-10.037692329582528,-16.65812608346993,-22.028378981947878,-27.13599420634961,-28.63388339953567,-33.61957723488293,-32.90838057742221,-18.372000759363438,-10.168703781113749,-8.81372576579787,10.954148343956545,38.72690641663272,51.17309586607093,63.76141626528225,83.89875575710985,89.35939321275382,86.1716510377622,90.11496544800823,76.22936504967876,34.078513876347145,-2.523222426271817,-24.576896936330503,-49.24475715509218,-67.40943036623584,-70.6042070193702,-71.89288550508253,-68.81764853332416,-54.95524927019546,-45.07198681699569,-42.61450172097412,-36.061292210011445,-29.26011220334442,-25.378144381699627,-16.745528292788187,-6.584163845513871,0.8097242301722929,5.397356780323912,-0.061770873057554354,-5.1912248622565365,6.161834092498573,12.616771663898469,4.338856173331432,10.042700236457968,20.220585414924933,6.005659482601677,-7.343066688259101,0.4030192012196925,7.609320296187473,10.16804365100888,10.101482874402016,-3.4304247198480837,-12.96506800785962,0.05163181240379977,15.646081353832887,15.453649745103975,0.09457823210704319,-24.999808245498944,-42.11169696524665,-36.18500517970266,-17.096724844253927,-8.13860297951576,-19.50307402103457,-30.037892420312932,-18.95383079316256,-6.037036147575932,-8.388799536074055,-6.765133397309217,2.840282575907157,-1.2790607798107736,-17.71996366645701,-21.04315981126536,-1.2058358990364448,20.097637201989983,24.325050759269615,28.488831314608007,38.96363467349222,26.565611125218048,-6.024733023571256,-22.862309248361257,-26.058530194392674,-35.40054135211949,-43.71618128930922,-49.832603862363925,-65.31234131738773,-80.63461861792737,-84.44220215340465,-86.57029284060415,-89.9813184873365,-82.04745039177443,-32.523775542192595,137.90590609363124,441.67129165522266,616.123675874187,356.022255083334,-144.19345040364908,-359.6785141376554,-209.21545005045763,-71.53842979560753,-90.82971679924853,-96.75284762524407,-48.49854032457912,-31.588535986456172,-31.285340581431758,-12.763121712072182,-4.276815541162076,-7.415219790598433,1.9498702098525333,10.810447057161188,4.616290535808279,-0.9863621954823181,-0.8515629328887897,-7.310105604024626,-14.527690313581457,-12.371261159816747,-14.87140859630304,-29.475366452154887,-36.39139890140017,-25.975057941275985,-12.407947502738441,-0.7660898512782062,19.9931874416449,46.13061376187831,59.976981867102694,69.29363952709923,90.36730309095128,98.76976943427654,75.13521825959677,54.63000314779284,57.973883928292686,55.00933247752251,24.125889085738457,-27.874752850677197,-77.30308995973581,-95.0955070902069,-89.69032010609469,-91.59440225766282,-91.73888248871955,-72.20576188378357,-51.796409264570485,-45.937832534939346,-42.04160671536921,-29.8303864075179,-17.492577580489183,-14.353860975449912,-12.056993656074017,-4.405612752939074,-5.542460256338927,-14.0229270227962,-8.88521039110709,1.5450527203522597,-3.2133995819156738,-9.909247426300457,-2.6771048116666663,5.191556168897396,2.1825387907081293,-3.0425621233701996,-3.1952938475061075,-3.0893105242268675,-6.569031052771724,-9.381315101804585,-7.892098559151394,-4.9812975513165085,-5.429216494264303,-8.191355307501833,-6.645174840489201,-3.251909679744381,-8.801955130168976,-16.682352754370203,-11.335892826600036,-1.4368737968434946,-1.4737143181769117,-3.917805742661404,-2.294825948280929,-2.3265100134255032,-4.562933505393495,-7.5954240912377795,-9.91166610193589,-6.399323945064989,-2.576257403246874,-6.82401457066133,-11.999226485032402,-10.869571847734017,-4.357697356102266,3.1564053074302443,-0.1576263556604065,-10.262448180601773,-4.348481416067152,10.780825549946394,14.100930103522685,19.22218763230108,32.316928511336,24.342803594046188,-5.955693060573406,-21.402094488645304,-15.07758332821305,-20.908157173999168,-47.40458914876744,-61.50766279428892,-55.03588547776562,-55.26463896440556,-64.23176472233706,-70.34516711969628,-82.95370105979254,-91.23336535506702,-50.373153210567295,87.72452859082371,327.6384329358096,509.09814545266744,369.00026973720776,-53.89433065340984,-337.4197095447223,-257.30068092439564,-80.44330526281979,-58.69136435409493,-90.1972499697844,-53.99414811584208,-18.63541735876646,-23.147104321757293,-15.966599525937598,1.700625228613589,1.397050130910653,0.21000410349222065,6.908819735943336,5.326796917189238,-1.235176349720673,-3.552907094466974,-7.281092628214097,-11.714266570240817,-10.639937365834747,-11.47234226461511,-20.06688810778799,-25.79645643513158,-23.920546446371667,-21.798856039682335,-15.246700284261546,1.1913846663719205,14.343189782536165,20.917679454804997,37.698323311157004,62.45128173477314,75.94361345356796,77.2692163903411,74.31426852494192,66.80928666176688,56.25888604838939,41.84205238209304,17.72172771524765,-11.633328380060991,-38.04478977252262,-58.62064405318438,-64.31353826604573,-53.366921320405844,-45.734428384718285,-50.40947457765865,-50.946821445861545,-39.316921865956715,-24.88814543113627,-12.267379568170547,-0.8651219343390011,1.7835114221806094,-11.947426393382862,-30.135661383065244,-32.12911530749536,-20.72051873304537,-13.842057354264295,-12.388702857002098,-9.217626538196907,-7.976895571972253,-8.87856152752219,-3.837477435437675,4.468836719820311,4.865384965483809,-0.5472532962270975,-2.153054329091905,-3.8019581038441537,-10.06213114592644,-13.03214319410757,-13.227559579466611,-16.201170705557203,-14.347393232750973,-8.54697058598427,-8.154678069518253,-6.817736169765752,-5.61552769005567,-14.158482167012313,-16.86039877687988,-5.466754973131527,-0.806865919063279,-4.057409598922389,-1.7402279526148448,-1.1669689232517584,-4.716094524479274,-2.592272881964936,1.2567550161435452,0.5711377238353421,-2.8509157409003834,-9.017866943982405,-13.862045531407892,-10.408662358222196,-2.9130219882246724,-2.244617267106035,-9.660219365325062,-14.391373795343945,-10.015941431954602,-2.7565250702195563,0.5970381213440721,-3.9317599872648277,-15.014840671244242,-17.02063204147974,-1.675387854591583,17.824856030500307,34.18647616629366,43.47215602191096,30.543925679884165,1.6628608385953392,-15.967399374327274,-18.003554107503007,-17.226914421790976,-22.182108492473528,-38.63796592705429,-56.25322712660666,-58.81279605896597,-56.10997353123386,-59.92656471395804,-60.20857156702672,-58.523295794037224,-61.328604404522366,-22.80926200895059,129.97673557502202,363.38650791345265,465.35716198787475,244.22332010439507,-150.76562958869485,-330.352276784286,-190.45227943352452,-25.499831372517924,-26.687150130613425,-68.39929173647685,-49.024096746414614,-29.72032922863255,-32.19236999743056,-18.085849973784033,-1.870153488155939,-5.317839990591068,-8.465213124666912,-2.7390510687586573,1.004274563797134,0.9900095930182147,-3.7187474463776553,-12.571612219677139,-16.188489843354287,-13.328748632292552,-12.121300622730775,-14.09274212412066,-17.09471431705055,-19.656923534391407,-17.273110210281846,-9.21238725938362,-0.6832951611308351,7.6072603808765535,19.20698694274928,33.03783379076562,44.339841787275056,53.77629641465103,67.11670670628978,79.56656846758032,77.85810743387852,64.76502448719421,50.40540993407817,28.098100156631045,-5.881157209981626,-38.607334699199725,-62.826566967780266,-76.0808902257464,-73.91934277311577,-64.30153566430121,-56.53921721158157,-47.57035156306773,-37.96180937017738,-30.206819583292056,-20.153922278336903,-8.966385583832547,1.0445206496630064,9.756601115246358,7.591699468547176,-4.86658849961637,-7.447814437792175,0.36406191629567175,-1.6744975261029182,-12.129467873217646,-14.921647085141492,-11.095043905365992,-8.756621389884462,-6.983353642709194,-5.627827428031974,-7.551613151862854,-8.896457013301049,-6.662427250610694,-6.780061622872262,-9.201196332533081,-5.664891193211343,-0.40324261313440246,-5.1601792462736995,-15.308359335356737,-17.15450494819461,-10.813228933802995,-5.993355067035228,-4.529167137522304,-3.5300397124843634,-3.68480414369869,-0.8784903227312864,7.0158795906365,4.468754755880999,-14.570959346611627,-28.009863249497442,-24.360508466765584,-15.24937494627045,-8.382125009907458,-8.113215087777618,-13.596172061517695,-12.107952194139546,-5.6862872117593355,-6.712854523293023,-7.136413989066934,-2.6286780542213926,-5.681073059514686,-10.531118777018905,-5.535859372262504,-1.836379433167231,-5.538976469563126,-7.446714350863894,-8.904578530027635,-12.657901507520219,-10.278291373084151,-4.552437446871442,-7.452009081694468,-11.106957813037988,-0.4996083481204181,15.925535450644492,24.49355150865846,29.127472632515698,27.603600830648418,7.442199884798876,-18.11806341244189,-23.02655864845138,-15.793976526474724,-19.86641452842435,-28.44021590670943,-29.010160127056043,-36.115338063859426,-57.343129165988145,-71.67113685264306,-69.04005142512986,-65.10279049938268,-67.79645736301353,-50.53102898632625,57.049634512518224,288.3111824343436,473.0547350989883,335.66912052654175,-74.33839314077488,-335.41964841365257,-242.3979780427137,-63.02071617338077,-33.02566298344022,-57.39505299757176,-33.73463555933929,-16.722893736587224,-22.911790000144265,-12.386158140654757,0.007273707096466353,-1.9925276305317645,1.7242820262358522,7.316564478623308,2.2931861112633207,-0.5999683694034612,0.730449571022719,-4.1416180955221,-7.434688341803833,-2.4611062325705264,0.16377422572786315,-2.511381451733131,-5.234303945074875,-14.453478614097943,-30.209563694819973,-32.319226230996044,-16.084723609230437,-1.4498260543521964,7.513214644454248,21.110162861619706,33.6233777695806,40.09073861940096,48.661878746273636,55.88310897279842,53.96336686490253,50.947217053679445,48.7713193220804,34.80226130624705,8.77280489576691,-18.293469417244495,-42.79175011715884,-60.21453992144829,-62.60288288346639,-55.33354441089304,-48.977760562305065,-41.61815394406906,-31.971240815467116,-26.781522254905255,-23.547512487561654,-15.294236739453641,-7.534657033082034,-6.799191419675665,-8.264740562078053,-4.373411198682756,4.89848288473771,7.921524024897634,-3.85939403410681,-16.723477665113116,-16.80820423294083,-13.55829593066968,-12.98547052411065,-7.39445406313164,-2.2248637965511406,-6.009832101313034,-10.025848565208111,-9.728490128249469,-9.856487593100713,-6.123778234387103,0.9349629923665344,-0.3266684124575505,-7.906782031158951,-12.141690843964458,-14.330089516983001,-13.754218165321358,-8.984698576094551,-9.620644133020917,-15.19597916321308,-13.645631614260456,-8.858073388663984,-7.918170522217631,-4.4792577268757015,-1.3480932981241,-6.569057263111702,-10.813621854451164,-5.583174008527342,2.410074929250845,5.413225474500829,0.16093451941462966,-6.80579289323337,-3.6210750283862474,3.981348204287677,5.778973928146699,6.8764775311854756,2.357191170316728,-16.480252571261882,-29.537630307374055,-22.21566657833187,-13.280228494223719,-13.984412411003866,-15.68074592231756,-14.723470685699471,-11.691445574817852,-7.559051272562934,-4.788861093475607,-1.8444446326739836,1.3545221870522353,6.197295068887042,20.917239466037554,36.807941576433706,29.10273015563749,0.06872835417528478,-22.364445589412927,-27.21584263843187,-25.462692393824696,-26.38389457554403,-28.579439393841625,-29.064958120274415,-33.57768344583564,-44.159522281734695,-48.06251589442029,-43.93209876229303,-49.709665846905054,-66.68240398967559,-60.310041159963895,43.12946208922459,283.7184417182497,480.2128607729409,324.71783156454717,-115.40919906586934,-363.1714536888013,-235.0630869336407,-57.24377958522536,-40.81055980047164,-51.209679582849375,-14.570389363678707,-5.6514381361779655,-20.517974156684016,-11.496388041216477,4.089273308789757,8.186730679560466,9.363909534940952,5.2503408014557404,-1.8023100613638956,-1.1489729896603862,2.6943191585921653,1.9370149447483467,-3.749035026582307,-13.661131309811504,-20.246594473778032,-17.301867248989474,-14.320465979117564,-17.995962155122935,-20.388975400333106,-17.05262997621226,-11.733594033967455,-6.0110304034256306,3.3924744667709366,20.737718440393728,40.727484377094946,50.546245818918194,51.244940606176144,56.159117343806535,66.53865483683323,70.64658882850041,61.06141585656159,39.43499406377049,11.642687845726348,-14.643924360624109,-34.440770808230866,-52.31222466764166,-72.83815280931611,-85.05719816991294,-77.90194005642151,-60.882548067971136,-47.95112773863704,-39.98857234594268,-33.420415090822985,-26.795506499768646,-18.55117233444365,-7.569225673070658,3.9636176691849805,9.327537416348637,5.760999009281175,1.4244255109818766,3.8415193050092125,9.685437611803248,10.33083912704917,1.2164512597108157,-10.697959433142143,-14.870944934839072,-14.713065756598397,-16.544938246744678,-13.439344861717435,-5.637886683038415,-5.346561530399224,-8.436595512247964,-5.153943273036317,-3.922971669542216,-6.1561281999511674,-1.9789738934204504,-2.172307348252609,-14.257250834979956,-15.660951662299869,-2.2204941375416904,-0.9127998823895229,-12.05727990709034,-12.306637126832936,-4.3689676497621,-3.728384653452961,-6.105742774763703,-3.5336784828524976,-1.4403534070612078,-4.139332596472636,-6.235378435395079,-4.8861610309801,-3.9987838989616193,-3.7150738423645038,-2.1683855984889995,-3.7602776060265395,-8.562149581729408,-8.332852198244169,-4.34642081390435,-4.71316279204912,-6.891301264492563,-7.163817977915031,-8.80290778995607,-10.084254593510186,-7.386906371344444,0.6297166204634193,18.65059369730379,37.954452878694596,38.953152598267906,27.771429609438165,17.940998889466663,-1.5162427526307507,-25.01872602750908,-27.10716488522592,-19.056637142717342,-23.196311116913815,-32.21327375220429,-46.77419876513702,-69.06593588225786,-74.26847104620603,-64.83946465600641,-72.31071616645457,-85.38207471592077,-77.48677989917161,-29.317931192688008,144.90608808919785,458.27454206820033,599.9652536967463,262.93429153911995,-254.93050820839727,-390.4042081321283,-178.46183619795016,-56.89640726336679,-83.60604457576797,-65.27870237227793,-26.790458640243266,-32.740101870686594,-20.99592284371162,3.9594287320042127,-1.6501807710108949,-4.093207087695781,5.124713829835904,-1.103699918848294,-4.2942777035456015,1.3131470456970664,-6.0123515609193525,-10.106216665015774,-1.0086849496295844,-4.748442914300348,-14.368780761383732,-6.137058535119267,-1.0267867213723738,-14.49930130606872,-20.037496025573382,-10.750949628445056,-4.71476636351473,4.316707466447357,22.240499435959038,32.235165947836286,36.14912680800921,48.196428203032994,59.492380158532995,62.479709052719365,63.68590323404537,58.72248305512075,40.07260721084752,11.3988440457935,-18.000404323712882,-35.89335124434007,-44.02801342780965,-56.635200943495846,-63.333727130874635,-48.00968437259911,-33.803530858076996,-42.890377207726914,-54.40019274095533,-46.70820173020972,-26.848323673591107,-8.315501550772481,-0.39200035213473683,-3.4114714882467325,-2.4769461418577734,7.769721823528716,10.685215816612239,6.019708586889265,15.33381479896077,29.64999602482257,17.18853879442377,-11.640361554064697,-20.788300957149097,-12.708367199401124,-9.802030972409579,-10.329672375441934,-6.523653489394295,-3.0959517656861077,-3.6656735763993424,-6.275635965699955,-6.588448432505686,-5.230897374111221,-12.279594175590056,-24.63614219623875,-23.724225693738674,-10.87613596519736,-0.9308397793055061,4.331127925153332,0.8645951524576478,-13.03061530856717,-17.675528038877363,-6.9446028545493235,-0.4841315873025671,-1.691568098799685,-1.8351549681867905,-5.4785711250679565,-10.051631101728496,-4.206190577285769,4.047442891423774,0.11139698174307888,-10.817737516948906,-15.79181351404604,-12.1765753062393,-5.488163815829543,-2.2394152263225813,-3.4584723955193954,-6.378097988989614,-12.845528471333457,-17.595480074513638,-2.418056541984398,27.358833161193765,40.73283543734665,35.66220107502318,29.08765208651812,11.203497052861515,-16.63012757901458,-24.701779202499228,-18.416962856289253,-27.334291373501642,-44.69916378999622,-53.921412568832324,-59.67864667785213,-66.48296057931701,-78.74469380339495,-95.33790740165321,-95.78886310036914,-73.83733343189016,-12.121214681000097,183.88530512362948,506.5521210180012,624.193951537767,256.06330600699414,-264.5045738657407,-384.57495819511047,-168.68209422181772,-58.34162653399753,-96.84128176903178,-80.72479189180719,-35.757386513676224,-34.10148724066315,-17.25676343231533,9.87554803183724,1.3900275399968152,-1.989156755876345,16.736202932315276,15.001235818987574,-3.580007377064307,-11.416738534411955,-12.977927856492402,-13.882678388542617,-11.329615039905775,-10.025381962745957,-14.904107090418982,-25.80249856154166,-34.65790354434189,-28.64331220390573,-8.556131047980978,8.968926956460823,11.553558730478844,6.344167070059924,13.166601526098912,37.259223396709224,61.89473743952567,75.30204921314474,79.09971666112139,73.16841808585286,59.09903531892191,43.739345339702986,25.515828093432802,-1.6342177335332,-32.10788685454615,-56.14022256019946,-71.81962005174648,-76.36911105019111,-67.05480344674083,-56.37149727693412,-55.647212034639736,-52.11541854405735,-35.97955881209112,-21.96909839358515,-19.035601688392468,-17.798866507853802,-12.742127360269876,-5.478811846310549,1.0989455887854902,2.252904971314642,-0.6768939955998228,-1.1826982214212372,1.1051759883310552,2.5080641967357824,1.4130144849051547,-0.2056090240975461,2.6721565507556013,8.232417914643401,6.10321886013699,-4.533231897892872,-11.402723410349893,-9.708969262787582,-7.9781477250418575,-10.275220804195891,-10.38754197384748,-6.743832550584068,-4.891917847480725,-4.2278795816503365,-0.7198570446060284,1.8566297672317464,-1.630190723657929,-8.080924158128312,-9.286196525068291,-0.5608142927711004,10.373495427192559,9.039457541598022,-4.84782237490421,-17.121610283674496,-18.780499465596105,-10.16001761736814,0.3711219703727231,-1.854267810306558,-16.160279118078726,-23.214683080349594,-17.163701209660907,-9.554435811383236,-5.620562920024545,-5.295901682038689,-8.726140806044533,-8.458526246287684,5.800928434111745,31.769597463236515,47.96198212261941,35.01850281321208,7.01889567226568,-9.515943729969308,-16.80579138810565,-27.032854763583742,-36.21284308430276,-42.22351063402918,-49.04225451902788,-53.58271385364742,-54.788667439221335,-59.630176295921736,-69.42785565495475,-74.9612403307388,-72.61783004239066,-66.0994136475451,-17.461862108463478,160.9552609675082,443.1968999060951,555.2280610230956,260.3298668873307,-204.66419229252102,-361.5235262771803,-183.102933762691,-49.60367299255121,-75.53241273818935,-75.81495207586917,-27.482467573689007,-23.9176778550557,-31.561120725327086,-13.43832329701492,-6.8786747353559505,-9.05787861124985,-0.760013838401723,1.353308713967456,-3.5772228199833602,-4.3587321627670335,-6.345236086878732,-8.871998201250577,-7.442684521879232,-6.9903946322122685,-9.504838499722343,-11.47254624750609,-9.790945004282904,-7.000213737728084,-8.386932545645552,-7.251473892322474,3.686453554550461,16.00577216393169,25.314935393297212,35.90017160217256,44.79016766665583,49.7011513416943,52.582632266200115,54.26194024370544,57.886441351728465,56.59897183368688,36.77611853101822,5.779818954532647,-22.077460619428102,-45.35079756935237,-58.22934972131904,-58.41588325468942,-56.78966238407172,-53.65600661401798,-49.28720923605192,-54.26069132928117,-56.23825053855646,-40.10588390238193,-26.900311594120552,-27.981853119045258,-22.44744598886077,-9.068268304691003,-4.679738198085332,-5.467895350188368,-2.556791566610517,0.33937639366380523,1.5941688236807394,3.548311383271386,4.82089013381044,3.9388883300231043,3.5748710143239997,5.933119727149691,5.7906988690174614,-1.602402901510299,-8.988083773705313,-9.5785148861199,-8.370109486251497,-9.232788267848772,-10.566717995263486,-12.218432917573955,-11.179068154330032,-5.226892829966015,-2.6496247378330455,-8.657848877529707,-13.842065391115685,-10.863715444454614,-5.027023283884901,-3.163517960801908,-5.941491675504157,-8.62733751900174,-6.749314088586374,-4.41473696826033,-5.869295030815289,-4.086037626162922,2.0261326449242585,0.2719666390191211,-8.148265866438376,-9.175854983335428,-2.5769793317210103,4.405110619820444,7.964832256502454,2.230235348851749,-6.512514066374161,-3.334893334927801,1.813935245202357,-8.472700233388753,-22.992316646938946,-28.153717080712923,-28.18028928885686,-21.489931272597687,-4.1487586898287585,15.742494411336065,30.759342799077917,34.3422424325696,19.829133923750902,-1.814217452810512,-14.15044230807194,-19.888204311843374,-26.29793644862781,-31.386297076175442,-35.53717951552357,-39.78002602370341,-38.549601076731335,-34.23745634341205,-42.66866040150961,-66.94517964881385,-84.942653488088,-69.80795200393119,12.40069704324766,197.69244610220034,411.7907022981684,419.4035793759265,103.68003265623454,-258.2582839942756,-310.4186166190997,-126.99300096415568,-28.54862801969182,-57.0379275896132,-55.14607061543094,-21.347897288284415,-19.159497605528735,-14.406363773964983,3.873627772459688,1.8660155043697237,-2.677061700076912,5.140758133481304,3.7748062067766366,-2.6298370123446198,-5.156414066432955,-13.598543782650426,-19.005628375710995,-13.828248216094835,-12.223334854650895,-15.828424257024102,-19.66409297020276,-26.27405453782147,-25.624885567930818,-11.38210531418702,2.1528658080753793,9.794879793899248,19.134138822699278,29.78894671589208,40.688041472361306,53.886777949741315,65.24071568684063,68.85307884029446,64.4286092862863,58.838007322027124,56.16095767479505,43.046691846751834,8.31194094042268,-31.570441475121928,-57.139263356331185,-69.57567850052506,-73.11397017674504,-67.98878547514627,-59.38846142931229,-52.18317443722779,-46.637986261870054,-40.32219369229935,-29.885504181662437,-18.468868804682387,-13.522914629835388,-13.87383124995877,-11.568787814054009,-4.9923724386793396,-0.8097327493767246,-0.5782292507250748,3.0900286412085904,7.245783231910609,1.9467521678822273,-2.7078611259586864,4.23975400085291,8.392444720307655,3.326821435835404,2.4283487452019976,4.184916141650434,0.7167716172049321,0.9486614916700375,8.674562041676317,10.7064403016724,-2.5311831176058064,-23.720454298579405,-34.65662382185994,-28.381577333850988,-18.3935411357337,-15.05510415981932,-14.656885337817005,-14.266782808568419,-12.422857909494384,-5.795291669722374,1.258402169588173,0.8749170591623763,-5.364721555398727,-10.450795955290609,-10.29503951912164,-5.082025426947325,-0.35518651709543825,-1.2294788668056285,-4.726152050051491,-7.254485061641171,-9.827855363772478,-9.014016965965668,-2.068351587177773,1.2340495713723882,-5.419886329790343,-11.404901211373026,-9.093207570595345,-4.883629147223187,-3.9786990598974796,-5.183464155251386,-6.848300004587038,-7.009113935781915,-4.283035728395159,1.883099419957074,10.591207098702432,15.120819236337042,13.11034425011934,14.300061073000954,17.603237726559158,7.5564132216443,-12.705185908430183,-25.284614589629385,-28.779965307329917,-31.136747678973183,-34.389236920165075,-39.75041050052047,-45.29293588992373,-48.24662387326498,-53.28626308834213,-59.42549345306785,-58.241230188998955,-54.66565787656312,-44.44301459310638,33.66125846771358,235.64008574086614,443.52310213654033,389.8193323248161,24.40287050040368,-301.4791079712489,-287.26927916890156,-101.04940501865482,-35.669616543497426,-63.61945412352486,-42.96089292371391,-4.759605378678373,-5.3479973613746985,-9.37562683858594,-2.1543625638637742,0.4613844454360727,7.791516855974207,17.320464210303378,13.4182777195125,4.617276072410371,0.8943966930441949,0.04498912904987051,-0.29498818137462735,-9.900814260726921,-29.492550078569437,-39.2126292377943,-35.09897832607511,-31.002885459486663,-27.213325208825673,-20.575196675765874,-13.11912342543376,-1.2937533756476798,12.62496250246195,24.34922233664463,40.96107452081741,57.826142313152715,61.30271743330376,60.12896324136756,62.8776176158184,58.009746207314336,44.823938669907655,30.389640042535085,9.741880335529572,-13.513829269243688,-31.86716389858684,-51.37471329387156,-64.67874587285606,-60.00647454122344,-56.76533744468594,-64.51108859572518,-59.087330017621554,-41.46334474382888,-35.38043530523164,-32.38669531110509,-18.310455521593564,-7.852926525849046,-8.020608832520246,-6.391914823572382,-1.666047865727684,0.18975795606625567,1.7077284134366408,2.970237756074848,0.4228086041152661,-0.8710802806948728,2.718928748791953,2.7520823552264844,-3.430984556188678,-5.8617820036929995,-3.0528266926710153,-3.4636061382173295,-7.2534798701524625,-8.874937341831952,-7.589995396466282,-5.260736974119343,-3.7504636355554624,-4.0874317303890315,-6.249790690163788,-10.254202673087507,-12.798878089442123,-10.0096322022899,-5.969229185987821,-6.879534508709417,-10.360611236796771,-9.022338204674533,-2.2428041795120865,1.4971106545586093,-0.346408185714532,-0.3833560737350812,1.281307585713984,0.7229460834367885,3.016017350143029,8.959190293783085,12.476418021424058,8.698268827166217,-9.340094479945403,