ECG,-3.576309761347071,-17.555167726070614,-16.808185752527613,-27.29838886738908,-37.023551936898016,-12.413821204199813,9.182677789160987,-6.579406721097508,-10.700426851017419,15.42947876985891,19.007588630118505,6.902645602191894,24.039903992092427,24.67470893108632,-29.041256063841715,-60.13185177248314,-43.54035683993457,-59.18216559209695,-99.6868289332202,-96.45945023951803,-32.2553717831817,151.1349539760366,390.02863139014363,336.2911453776586,-56.771984667493605,-268.22894455370545,-104.01173240535732,11.960949787527369,-61.315102171038234,-58.710378439857514,8.609002482481095,-18.878653996816148,-47.089641876700604,5.116588442347762,39.162130611198904,12.913869308656743,-21.367925647552553,-31.064722847764386,-16.555165325813093,-4.983269746889327,-17.24898571264462,-36.35668182590038,-44.74556392505704,-37.067716467078846,-9.439562029837703,21.364197325226765,40.7573635632568,60.87959541979593,71.33610843458555,46.70454686177009,21.777982066589537,32.0729902883939,25.092853280123983,-20.15344001396237,-29.52443590928567,-8.204951278401936,-35.02078750651365,-73.67892198928661,-59.830045898697804,-31.26045521591971,-9.443898706574796,6.90430330419731,-20.343910341788114,-50.877385180114445,-17.76047254027499,15.229962464847492,2.623628523722008,4.739785881729347,21.63171662344187,15.131757950334103,2.5028289018027188,-12.411314518695704,-18.1930280416161,17.59982887273793,37.90166327736337,-11.782317234620768,-46.14721076500718,-4.3264241182775764,34.55137403044579,15.903642962153405,-7.433099962402261,-1.7786372504272094,-13.729526029995956,-56.325829243613526,-55.84015186403505,2.5765937189377905,26.67475784543358,-0.31923994733761685,4.20179743167434,30.881487545593895,1.9384672813559831,-50.66194641606098,-48.64580775430946,-16.20174175465806,-3.5237360013661467,10.156834221623248,33.81216767817172,25.177539966068032,-13.499898687723064,-32.82623249323147,-32.56633093091487,-46.11989000692439,-71.71597349119473,-85.81494235520883,-25.999053364421663,183.6186286548625,395.9030040641627,284.45612942901926,-95.59102698462655,-271.7972684173345,-121.06665281835852,2.7951559347992374,-32.18654523525721,-43.24847669501307,3.4387983468176557,6.201301387858667,-32.32211753890628,-48.05410409431829,-18.96300019666659,11.99829659262145,-5.3218143747216935,-38.03661805527782,-37.48446308322504,-27.912710624516887,-29.49430982351943,-25.239158311600068,-17.97902535770001,-17.57033634278528,-15.086470809452475,9.019985266496121,60.57071460139949,95.25560916638331,79.68491358537243,62.862352261019325,66.46678713375506,30.96453166963435,-30.381929586198872,-31.250053826898043,6.220533302055786,-4.267605761709516,-41.25346944287714,-45.682415379503084,-45.183898496134866,-62.56083209235174,-54.588576386469015,-19.843159196079853,-6.017392236606614,-8.041424022050478,4.2250655658928125,14.44339756083524,3.329002986429604,-8.857619255023886,2.143185977181144,28.96601706411718,36.42498386799732,6.503043777019498,-22.870758146035772,-10.56310695989725,10.986992201898943,-10.163282805287118,-41.91857119352241,-26.113436696628813,8.23515040325858,14.91565772469287,19.024991326961512,27.219638733814882,2.4564194058720616,-31.37255068440059,-34.09360824225652,-31.032417835579096,-25.35749103768859,4.993454105756744,9.066631703916821,-35.29665922311176,-37.65305255673539,22.427229936796515,43.195654890261466,6.211961347343495,-15.114733335931957,-21.607400125742636,-44.090724557219296,-49.883817402064025,-31.81691297785838,-40.35535424314773,-73.77297911553624,-35.087056013003306,158.41101687873302,364.6654389770083,270.11834620383814,-98.63707291036764,-282.926972467061,-125.21714085620826,19.035911403986372,-13.778991076630057,-38.692577395708454,-13.307995776052294,-19.561263983794053,-24.17319282887852,-15.605069330060772,-35.386441398591806,-44.48720802269921,-13.308561005819781,7.996969116044542,-3.500807481994947,-22.789572215022073,-34.2612052468065,-37.38691795293665,-34.719436379282534,-21.086515617591072,8.556488977751059,39.41274811718802,56.80612787897122,62.3240098595839,56.50746146364986,44.90667447108157,44.28259542617558,49.486854855350174,30.76172927297185,-10.494298036375042,-32.421894107678604,-27.292336365207404,-36.25656773650543,-60.94807584906646,-54.45037189843181,-15.783063425830184,5.727016230904205,-5.969294657433881,-20.884312059293222,-17.802071298281327,-4.959371906054729,11.431382436895358,33.90919010974365,36.005961781426244,-6.321311091029386,-48.32664292332352,-47.335964038838256,-35.29919070939917,-27.20144182799756,-1.874853837539007,6.044551598278929,-17.349582208825712,-0.2764440673958042,45.36131372126494,18.82283991810553,-44.29086904667416,-35.98225223855945,5.801047140804222,7.611771775734729,4.678444962487591,17.90256552850885,9.451857393962047,-15.251295559310083,-26.854095316832982,-25.939232654057257,-18.312316415961515,-6.686788632905615,8.384914290421362,22.32836768396892,12.585837459555577,-15.170581823377375,-24.047053061537593,-20.886472837987622,-28.303120850879214,-33.54187727783063,-38.53173054183409,-56.10200860869341,-73.07090340307259,-52.63951768417719,87.12996880307894,317.8926242849706,339.69559623873243,11.65402928639827,-267.0324596241734,-177.0790764367006,-3.5596357836912205,-24.826345719566397,-70.34479373839541,-13.696769561374943,15.543615320523624,-12.695775772484936,-16.401619470617845,-10.23837174282837,-25.98954760468156,-33.35335629636005,-21.745451981897475,-10.173748038722273,-10.254445082679027,-24.225867606541552,-36.04443819493692,-30.396920781290646,-16.59789928498961,0.3011451774988325,26.690436502040388,53.371654967770965,65.98980403740025,64.77308788902239,65.07861278395858,82.79566106214435,91.12392370220113,43.45009283593771,-26.271138906335715,-46.5915153065135,-40.59838732486784,-56.25811356886078,-60.77591089873523,-39.23676540408641,-33.706124422084784,-38.68836308400127,-29.583570470693715,-29.3448240850205,-34.335394318521764,-9.284151251923193,20.264474079193377,8.127415005389457,-20.536283414491255,-16.1918080600703,9.82865895440905,14.5182803341365,2.7291527043032477,8.105062254924956,17.100638783078097,0.9222589451314231,-14.49457524757136,-1.8758989318513413,12.695062410940885,7.677061721463985,-5.135911493501752,-15.19463259217908,-15.12367645312546,-5.709477590552456,-5.813394619581114,-14.587998345274698,-14.503638183743677,-17.572538515443807,-31.18735316034217,-27.95500334579509,-5.788429148072247,7.183957690833708,7.745869771586797,2.7102566789910654,-10.85482255773471,-24.68454151964272,-32.5776636912942,-34.778165759383384,-21.902572136630305,-15.260063324959233,-62.14924686414638,-110.95230737282995,-3.9317638101853873,260.79947556957796,381.62981929638244,139.04771334227704,-189.54738752258237,-210.94229476973737,-34.41156773724547,0.31400293604967366,-77.05551370538072,-58.88897775540424,13.510715742439935,18.003025218276,-7.033594377778386,-1.5222911640041055,11.198567973293652,6.7127377166739635,-14.46832981989518,-42.68633689943448,-48.47385132564763,-25.645928961036724,-18.348689755259148,-40.5680799681575,-45.20090624671636,-16.39511033201195,8.448718704117889,21.076692914594425,43.36779175412584,63.29784893785334,59.91385191299024,54.51186146918034,62.594495931099,50.30292337301499,6.195544262098705,-21.626664108082444,-18.43138184911265,-27.154544753501632,-50.28858524304318,-52.593184989240314,-44.00795979269995,-44.42304722252061,-33.600675552115064,-10.046127134817892,-1.4381760052759276,-1.2733422275494792,8.194861400961356,10.470927091733692,0.8364564531314302,4.210070069162057,18.04355864476822,12.699434718020234,-12.187219347676603,-24.16063738561069,-6.1988644802025155,15.44697670426936,7.584912277248556,-18.189097645436757,-28.943682645806007,-21.793024347758916,-10.305570585200869,-0.05533068124670315,1.4835327487476775,-10.003478065484309,-24.343030964429804,-26.56137464225856,-10.78479843068441,4.602241125777443,-6.699720296012572,-27.95097794339428,-18.22871371749508,12.490634390294325,20.36112517157253,2.0871546408125043,-11.998204230060571,-10.924224663276174,-11.533720249243926,-25.876751667777285,-38.12219503736276,-42.100852252081225,-58.393947533289726,-29.061189981713554,153.49612994950138,350.5668471076607,236.9903663864908,-121.97237909265404,-269.6211786771165,-112.37837030577433,-2.0446984468090683,-42.53754977886929,-43.544471152016925,3.206453003839897,1.8653507516950967,-8.138256180936853,-8.152893805654667,-36.46551113926791,-44.37056093081729,-3.3768054839465176,5.992056609237007,-36.84252899509344,-53.78642128854254,-26.10135020717859,-0.94694418867876,10.804828428099503,13.109110758718648,-2.8144072495640806,-4.500147701793821,36.98188803718376,71.74410281501724,66.29687113700327,63.61539636622092,70.66829369869286,47.9887604031849,8.753365610435242,-13.843273151435266,-26.266624338823036,-36.331675993953766,-42.59994522704861,-49.11336297505893,-47.00719385428253,-32.23035839878203,-25.34625353779391,-30.954491696046,-27.34825323964371,-11.51778795437307,-2.6518315685035994,-3.343409368609821,2.1666644752866677,14.947794101854662,18.320881404132006,7.725418195416908,-1.6235022256558995,0.6134372462123139,5.623614095731847,2.1839499098377875,-7.500720126680472,-17.37165024587756,-22.118913617757663,-15.881710123670814,-9.049713819460031,-13.204485515932031,-11.462631753726921,-0.2930920311025087,-4.832481975060466,-14.090706346331212,-5.794806209186229,-5.753861464036683,-17.98009811645813,-6.172288085231836,13.841762983147627,8.298290294896846,-0.5551241052280105,-3.4610843124525132,-26.223469860206265,-53.07809796243512,-51.06407935126051,-33.81516057193053,-40.05884529126824,-84.99432098762361,-89.01593361441061,84.50733332037242,342.2509469694526,333.76925596959006,1.5621911507131543,-236.57824892533034,-155.68191348706574,-21.694324003342253,-23.043248693178764,-37.29416592224156,-8.43250512432062,-4.971211812308773,-13.44310887386333,-3.2220012842325927,0.48004610283490834,-6.524675822674283,-17.499136432095604,-33.289081660255285,-35.83001074957167,-28.953544486265567,-33.29639894891975,-36.00698659119104,-31.088476105463446,-27.204488344867332,-4.333506014668212,35.669096615052716,53.979598134279705,56.06471603012259,70.13814636078409,74.65973736946785,46.94237949664435,16.95574773341222,13.21780005320586,15.719011432981572,-0.5532837333084757,-21.093415597413067,-28.255392097688734,-36.25215625921459,-53.15380286560491,-58.94569691781323,-40.946548949238235,-13.04637232843,-0.4542204681040829,-11.219865388418283,-21.536163524778583,-11.006179824292428,5.436827237820227,8.69745710802717,6.654927279038472,12.280908091910327,16.663348804468246,10.122269788256691,11.244430048560607,27.863448543267097,26.31654262034467,-0.5029437786439068,-13.684702372369363,-13.293358218966386,-28.077015729664673,-38.74249638286668,-25.329216814778448,-19.633872812189523,-33.57879623436857,-32.39186946830041,-9.773729003926187,5.551674185698411,12.143707756490699,21.550291567441665,16.479679857450872,-8.832528650172339,-26.110034055237232,-29.433956899623468,-34.4942855040648,-32.51848689047512,-34.84654885914138,-81.55025386772338,-98.04888058141448,74.80135770945512,336.7669601538442,320.43023415448147,-15.450520482965722,-232.0209539370639,-125.22518317400079,4.127384008591232,-23.11148400718862,-50.8467692345515,-18.170292049347548,-9.169876930772737,-16.99124584401638,-8.4316913047545,-4.718602330934665,-8.536689194972945,-15.382272759719147,-31.882767559982874,-42.63061857776643,-40.616356155067756,-36.93822135120955,-26.465968997883245,-12.67059679977438,-12.197188996486123,-6.187383233847674,31.77791695258696,73.55827702385105,77.26459741799259,56.06088623104692,46.80502386829603,50.47769523771713,46.87670719226108,26.566571776545498,-5.643620226420415,-26.716169593542045,-24.05015692575288,-26.913130412797155,-48.01138128717354,-51.14021972262762,-33.108923123004296,-29.146427841445494,-29.37140066046758,-13.005717816029353,-4.444750778986627,-7.306889791886288,4.752956312733854,13.922258280269535,-3.2943772178211894,-16.25608671494778,-4.4185640874022685,7.927131300397909,6.314110323845,-2.8447110723971605,-11.401030389628854,-8.182799050949177,4.519396808414654,10.799117148321331,8.495537160208755,0.05574523859017155,-16.157786105025654,-25.535098994397124,-15.324522619504718,-2.122158904949883,-3.700047965502245,-10.387981510042081,-3.1793414948283107,14.764102246149823,15.891736718838198,-11.525426062304689,-39.99069329281531,-44.75429073149129,-36.72386824684767,-43.142073794713745,-82.50090021390078,-102.66685283497554,31.85095921733526,290.43485528171396,338.9692310110187,33.59075991366969,-228.40787110430466,-142.20245502591922,14.122903551738366,-18.337339509289635,-67.84926947454983,-14.813370663773796,16.129657280466056,-5.951163576705012,-14.590019332592007,-19.717291929035255,-29.75017650659173,-25.01292697786203,-27.629204071995087,-45.47771911645387,-48.213881881158954,-35.27114448021321,-24.400820103307073,-12.942754015027017,1.8489772272867446,15.863162534980885,30.58730693611188,47.85972886195454,66.01498611783782,77.75161468363976,72.74300858434691,54.5666133848017,35.3806379446303,14.930377854032363,-6.505788899445521,-17.887190472929177,-22.709238785523155,-34.933053121051834,-47.97729800056156,-49.384424799201426,-43.47403259049135,-34.47836414601696,-25.518561950940033,-27.641349345330664,-34.731171079468474,-27.316922571760415,-11.460944455964956,-2.454723539813555,4.53732219183911,9.958443365434235,6.903857874504555,4.308681150516206,5.958276811750373,2.730989596816432,-0.7101938369891378,-0.9807022864736652,-5.207203485472473,-3.612325250651475,4.471911074776074,-5.893181789225164,-23.193666147266704,-13.312798328179628,4.081353235312511,2.1348912441807704,3.5452919016351307,13.452940564859308,2.6485668119427785,-22.701263940462514,-33.936064214980796,-29.826521205716666,-19.135793911144425,-21.45477211631293,-72.55578180699857,-111.99947286095724,26.147145788308947,291.2492022763357,320.8829086280166,8.694326920396477,-229.42936825152728,-140.9782809015655,-6.625080463377955,-24.77329147728939,-38.470191993739675,3.925497275407878,-8.984246202419698,-46.993287996806984,-39.004332912778516,-22.327985510057047,-15.235853980982316,-8.57326090272776,-24.14906992262393,-40.99020537015463,-27.963945218602504,-19.905276889966977,-30.129205808938824,-22.526221743705538,-0.15791148419709056,13.668975048660082,30.68141290658319,59.362001910303746,79.72962966179134,80.38623456127675,75.46838867221402,71.34693238159842,53.421963899076324,25.389492732227353,4.506378960816997,-22.066754676608653,-59.69379512318659,-73.94314554504786,-57.99506402626,-47.32199172170274,-52.23883120629474,-51.624502661815654,-32.90068097707352,-11.243999839749698,-13.917947799460102,-26.331255784910645,-9.253423944344028,14.161361894418,3.140039813826407,-9.531329109101188,5.635638083473661,14.616512313197068,6.969252286429511,7.708694797475186,8.136661821857349,-7.696939786514102,-21.570748734847363,-18.214495945658015,-8.462140311468701,-3.4704929381425202,-0.5064182160421327,1.2125752960431377,-3.805932914111273,-6.6559970182319415,3.389382664229625,6.629497430827817,-13.486746879760984,-31.09799942488824,-23.800557616074784,-16.663574809113495,-48.6906781511882,-97.5900287834699,-40.70096053220584,185.23232055416156,351.9001233382157,181.26849250309806,-141.01339568260462,-197.62906922863715,-33.30724687648246,17.87017612080595,-34.17411705551896,-16.192761834215247,3.2349704838103435,-39.811990281369525,-45.1604234535564,-13.603885016329325,-25.90915565586539,-47.432498019332144,-37.68426291509617,-33.156690587521986,-36.34968947710573,-25.542853383885202,-17.477691393989108,-20.20019628013582,-19.38780123690433,-8.215015885133232,22.70371375921662,68.60043585054748,91.14109033437855,72.43122195287994,46.76906717707714,44.11150718688121,48.2754688240073,32.92611395483696,1.716580348644575,-26.52329055010143,-44.00849810704257,-52.47117541404826,-54.810679539446134,-50.79060169814096,-40.20148549661977,-31.67898592601271,-30.07964815961252,-26.251631246203598,-18.184068612877994,-11.401311624019613,-2.7088367493035967,4.185118987386295,1.843258408706081,2.0758097787688445,9.086308766754781,4.7820701881046315,-10.426413327354407,-17.151126049431085,-13.021638243405707,-6.457029116423961,-0.7086107826350254,1.0579940373522305,-2.813319377499763,-9.167601704974937,-12.656322643617647,-10.621064682712483,-6.484308842194681,0.9829835278070114,13.312962259671037,11.997647188644535,-10.76735721961143,-24.571189184245032,-17.95164597182379,-20.441176422654728,-41.29336447398222,-72.96708724944087,-119.12496746656531,-107.15152568148885,96.57822242452414,388.277622161609,387.57360459199685,23.497673203272086,-233.4902773959386,-122.52854910758921,25.91723220836266,-14.149834135491695,-60.9979966392531,-37.37262733343005,-39.12626706963741,-38.62716938882467,-8.736258198853163,-13.391493942985463,-32.17879343710402,-17.42334398371195,-9.387442587593409,-26.509556120513995,-34.875217109663566,-28.782495633360984,-19.628946285250684,-14.81924243633002,-17.086747562143852,-6.422028275808388,23.10002977554239,40.87433246822384,38.063427681088044,35.47485506053725,39.139714210681035,44.596167692019065,43.508250001665616,21.741209014974068,-12.432806387197655,-34.951009366638196,-41.337553389570886,-38.826511803976004,-32.82940303035503,-29.609172339645934,-28.914658205981453,-28.242659108719597,-27.364048264596043,-20.75016776276555,-10.432980460506231,-7.7169717514765175,-8.832024615710242,-3.115944036249516,4.674567412832614,5.046978653282812,-0.516141493374473,-3.293563574400908,-2.775645482478467,-7.498781288533742,-11.96371002146218,-1.7516661935100335,14.945535866577217,16.583947123823137,-2.6846436126932076,-27.707694072062964,-32.30299386176886,-11.597449276397576,5.757487927783139,6.7439313401779994,9.23591294415947,14.826801011941567,8.531920241581886,-9.188889429141671,-31.02838951904311,-47.049091725317695,-45.71848065133511,-53.134400755230956,-98.76915670724482,-85.98744417053743,124.56332991781076,381.70943273658145,314.3036222597896,-55.543894619128004,-250.32561931931644,-113.66528702713458,1.2341699916482796,-49.789882836274046,-55.138096814249785,11.43514903334664,7.3938454231202755,-25.175790276176503,-4.565310936990231,13.605826869973498,4.641581759843244,2.181400691669495,-7.810144312309483,-21.67357769413294,-11.156065702237678,-13.358738617749388,-50.95869610465684,-68.2105183827477,-42.659162723110974,-1.9187574842176804,44.80109833027819,72.61584943355625,57.837615331631675,42.428326774190964,47.93963519545973,30.778010007933545,-1.95856280926985,-6.390261722224893,-8.602314374319462,-32.26141667544323,-36.13886456854158,-21.554398188094474,-34.95533916708313,-58.86486059157137,-56.018000768294314,-40.72486825610775,-20.009946804216113,8.459914466319388,11.191584536702457,-15.613613198202422,-24.562630550158516,-6.922799337727643,5.150158588991596,3.5030098954722755,1.7049787110788888,9.30362355522271,16.256393924782103,-0.056642403900045935,-26.013793889102995,-22.78776405983519,0.1382206653375082,4.504308016704243,-5.006725961025506,-0.644624251048648,14.411950159196477,12.481310375787496,-17.546056556092108,-45.72112498210467,-32.22725889263117,9.265358184698016,23.184069209387374,2.097101220107632,-5.132746206490854,5.873899844860606,-13.459422208948226,-54.9446142571941,-58.642328612748194,-38.06136555585672,-67.79116871226847,-105.37962232730061,29.999135063542198,326.50964092836153,408.82311519761157,83.1796064523971,-235.5649070425802,-179.60811053109109,-12.044737744649348,-25.71880594920247,-69.74074487688151,-24.748602704111313,-5.51499978647351,-28.315667866943166,-24.85471990854396,-9.511490760292627,1.6053974595545295,6.542236372356493,-14.739123264230296,-36.49150742779925,-30.6387657499965,-26.823992189651378,-36.046037048246326,-32.27658354636138,-7.717784097679784,26.25734390018237,46.25483795797989,38.117541924583335,27.442547278635594,37.58825276148458,53.32063956746276,52.48100442783373,32.50420898929434,13.070154453250046,3.7720179822136153,-19.699033750764343,-50.85675541228626,-46.966726852512295,-29.267961462940818,-43.735276791152955,-57.70331911915443,-34.37939383057386,-6.314276964472235,-7.8418342681302065,-29.98236297727789,-34.887816870147475,-2.496440878190313,20.498933526253182,-1.8157793094634318,-15.582295126237002,10.099626022524806,21.641247286587337,7.132617947456135,11.326671109058665,19.934095377833017,-8.170334990421875,-37.28976550638417,-16.168347726498276,14.917604409370563,-2.876191317547251,-29.521686405534513,-7.162816763660188,23.40633504223969,8.318515793010988,-24.242001724461808,-30.96069181817075,-10.635484147665931,11.527881229916742,3.9281485853984703,-22.970908887879368,-18.79850363307451,13.492481472244673,19.15535792755402,-12.194450063756893,-43.701880735163826,-53.10968181747289,-62.22175660304349,-98.34980351551265,-75.79909166091355,138.01916194003041,386.87467352565227,302.5943809371664,-66.53837258262377,-245.1576599102193,-113.55735875298735,-9.7098550478815,-44.679574782420445,-45.237969364920424,-4.180396087212436,-9.410945385301709,-18.41745999205987,2.83828394956594,13.65791730011113,3.9846869790067725,-16.317528695683528,-40.80332829868325,-45.7227284298118,-29.269889607804515,-20.462773495257395,-30.03006721304488,-40.32467958599044,-27.343111699572816,10.32613727673255,43.42030169185161,57.015286671214966,64.23203920590541,61.50526474846677,41.480977381538544,31.972930174489875,44.09660692222459,36.04974282543806,-8.15939374509468,-45.94854999887279,-54.298583832326926,-49.92719933801036,-42.072731828470964,-36.63312181845823,-38.24579131257761,-28.458881029394245,-6.057558537923153,-1.8264419752310417,-10.069289195005743,-2.3928477177594374,1.6331000349614584,-14.18366768537787,-14.401354322049503,5.036509358387423,2.1626767213327938,-14.996210151232711,-8.189762463567078,3.8649117665207005,-4.448923340628763,-5.503888104540573,9.958151639021928,11.53631757556176,3.9239307436902293,6.629347149298482,3.7693929376866286,-5.287412813366521,-3.652517095365381,-8.697991496094478,-22.15678299597488,-14.095950753034039,-4.953258410808315,-24.10102225174878,-31.452311403354653,-7.329214377561572,5.326312309245316,3.096956651128716,12.125645205856712,10.776909000594406,-15.598549266763449,-33.28327195703204,-28.513280834958415,-32.08603597543732,-68.40130528362201,-82.25835801200029,54.24402159443903,301.59549406641366,339.8603618783982,34.330663236930235,-243.47326127289483,-185.88976552310547,-15.308524035353251,2.2461351787933896,-40.745156149525265,-25.891873473270742,-9.163324974590662,-14.069890535035203,-4.3221932267718675,3.8457121792271973,-10.480555386896299,-26.256241859802053,-29.586847910203833,-30.33360100824786,-36.28662198592009,-40.454711008398135,-35.17641083617528,-27.846730658053573,-19.683129620278848,6.237401413278717,46.018839616782124,68.2466286919354,64.21530066381982,55.776822118889385,54.33441996351128,51.71292273569372,40.02724126707837,21.35314010540577,4.895231051864804,-9.037984780973737,-30.54533860463534,-51.85131661635429,-55.1974297423597,-50.51570765627064,-51.80515855336228,-43.592628508496134,-17.565006064812017,5.009763747722971,6.789435053483064,-7.221701632559823,-16.67318987194305,-6.0415323052262915,11.020477798015467,11.265715237077725,-2.0342012815928054,-11.646662736674106,-11.453129137435683,-5.2407835649280194,0.7921960677138618,4.143496754194702,4.133642872200664,-3.7364769692496083,-15.468507399800062,-13.371422495439852,4.986821471397871,11.662728577475553,-9.57764842229135,-29.130688884257914,-21.48446886381935,-11.35891766434847,-17.03385811150396,-12.972325318158676,4.920953972346828,6.450770404263286,-1.8328585970633453,7.139849551463118,10.691034025066868,-16.686833622920737,-38.358517140672724,-27.31287959851698,-11.0749769052896,-5.676302006203517,-28.494188504961528,-82.9789538875402,-27.182604317432336,223.31928380751506,364.6203500724703,122.36041127912426,-194.34476490881758,-193.18224914492743,-29.70825989152031,7.381012194181331,-32.658887404470576,-38.96009624313921,-38.228151553918494,-32.295189951048464,-9.262626234977885,-12.097387889404143,-36.033131128736926,-35.78410607728153,-26.55609789684441,-31.063858847670595,-29.49207165591187,-23.12640420324854,-26.080422177506385,-24.924983232098317,-19.262241672341872,-14.303137832997136,11.031840159209203,47.40036673012546,58.463773978322905,55.73415088844223,64.3221827824122,72.8659800956219,68.12019137712599,43.76360240562181,3.1853386738382525,-21.85580151189057,-21.385523922914317,-28.867914265545583,-50.955034565866036,-58.85912021860814,-47.7759199622096,-36.833221015115186,-31.335005781694456,-24.456548246774915,-20.738008244382897,-22.904880662388898,-12.72140196439252,9.740524708686229,14.436753469596596,2.0407731075115514,-3.800741932936692,-8.074898390009606,-11.562445033110825,-1.1607709182641148,3.130145343166502,-12.265167094917498,-16.436088183219837,-2.0046924446068424,1.9795544912170868,-5.564804933787469,-8.445851215622442,-10.739865191006379,-15.646543914940983,-15.741877985135487,-9.506310980907047,-0.227822018959829,6.1989106711189494,6.835102801359367,9.905741126391275,13.747968816670351,2.621108052144347,-17.840254809618735,-26.496612002124813,-22.9158306849719,-32.71254583298338,-83.80099503137234,-110.22310788780409,51.59308257819011,334.5128517812927,344.08894380492643,-11.774038380614947,-260.517702488929,-153.26355259875558,-14.601249789674355,-35.45028630326651,-44.715959236760305,-5.9914027122936275,-16.02943082065636,-31.308539273935427,-17.525550783914742,-23.279022503514398,-30.521202028678893,-19.073872109726597,-20.599830980704898,-20.138886418645797,-10.836669856394614,-29.53561346470445,-43.853562717364866,-15.544174935622777,1.9647209841009472,-4.652366276418196,24.100650179428737,77.56164171191335,98.07639585471074,87.78125194725949,75.89003146978636,62.9287206086735,34.478645926773005,-3.439618760785467,-19.67906825791615,-12.108065038416179,-19.18836451046387,-48.52676082612254,-69.0166687154626,-65.09078131041286,-46.24639478490848,-36.922778689956104,-45.42268072452485,-41.78072615739724,-22.506985318341695,-17.753897248506362,-7.2891703952515545,25.383486320940005,24.891565523743186,-14.196455924748376,-23.30210683662788,-3.1269760898576084,0.28149211274219255,-2.5686140079322675,4.494283429352652,9.160475691295442,9.419018510355556,0.8237383408913601,-17.870215915344556,-23.199823611952453,-13.469803983451808,-11.049451078366422,-10.2604811693467,0.9642689422576303,17.097191560449975,34.937870766718774,33.39336302923695,-6.524379469612974,-39.85423837726482,-29.218881451150704,-14.462258718035493,-21.838077577993936,-50.256735178684806,-102.0165651289842,-57.44658982949554,190.64787752301908,370.7980303192922,157.43342861045704,-186.9633792427182,-210.63201133480194,-38.10671594894587,-18.311320170446265,-84.83566092981026,-50.20314451381472,7.128264129694951,-0.289907970786242,-7.445515822148437,-0.05468615627170337,-23.267603969193317,-43.09445033898818,-20.866808684163352,-2.056036458532919,-19.229497876129813,-35.569045122108946,-26.68295039486734,-16.78677131127643,-22.60431003035726,-22.16124368842196,9.46414089925571,54.22322041967301,73.63782716590359,75.10270579238855,88.08307873631466,91.17624168339312,58.88295798386136,22.493932540900197,0.865406029342612,-22.583218499315624,-35.521332337567955,-34.62757820557513,-54.69758151571776,-78.73053436555509,-62.79971112460491,-38.31954547073613,-39.10132250551201,-32.05371655598748,-10.075221380247356,-5.849212242192852,-10.6356067366581,-4.03945260517151,-1.8734947641063364,-7.64460471967211,-0.7001147544071351,11.80290491078677,6.404016822803806,-6.944036312587972,-6.688733934563015,-0.6389142916224468,-0.5085789001260785,0.009886477779082803,2.838192579088777,4.716999977174339,0.35443619536772175,-20.652156689310488,-35.241404314142,-7.271864695806681,25.306933902107204,9.783872191538046,-14.346997033659624,-7.742015965925234,-6.449810780854079,-18.64906905822293,-14.974693932415377,-13.557844946456711,-41.887512975216744,-92.20649616259418,-111.40052279422527,30.014700697587955,325.8787150591225,426.4464939046723,115.22719941286974,-218.60692506246406,-186.4805067661983,-22.919292633676918,-31.67072780405966,-80.21078422093908,-41.28324510632403,-23.708156995948983,-41.914600161041655,-20.900088132032124,-2.0153056373154783,-26.242763946307004,-42.71544064821171,-28.704804098000523,-20.014075026341366,-34.78031764491705,-48.278954557339915,-40.04403308777441,-30.90324367988403,-26.222229954833775,6.396849459514911,48.86454766925765,58.846831083123675,66.24777851124317,83.49334140745599,56.34084007372251,11.448712624476956,22.30609787583134,40.33597124059858,5.730481100440414,-22.873373515681553,-20.13034563996876,-35.80320194672882,-51.75693070005018,-36.600126798180135,-33.84964545828747,-45.40906439390744,-24.242442177150224,0.6750286853562208,-11.966495994866683,-25.911811165009368,-16.198184908913127,-4.600098163860775,1.7769326699165067,2.521653189303427,-1.9804333860479488,7.043659901539707,21.494242374627014,9.97048208527383,-10.227870255119303,-4.1658748195353565,8.129058469408832,-4.001002211593068,-23.366778918843732,-25.059021237818417,-15.855322884092109,-9.053500591280844,-8.26243114673617,-11.731832526106516,-5.058138188870123,14.420990348939657,17.877270056123017,0.28410334961361094,-10.867959553334428,-22.77380486196065,-45.434677991412,-45.64083851059541,-39.171716782549964,-78.07278051426367,-67.00503967270646,144.14783886458045,396.2581043690237,326.0661353529305,-31.51518596230121,-230.0569583222309,-127.24424156242955,-22.112020594322637,-45.89781879427563,-53.637892132162186,-22.167518113957875,-27.953859332844928,-39.29941296402531,-24.9592535646716,-23.31894209173501,-33.521975820684,-29.59429225963727,-25.4877197631193,-28.01046246409542,-20.358608425853983,-15.694996670664423,-30.56205744678446,-30.111662827084952,6.256387172544539,32.34737938960855,27.492154592161768,34.18859759308462,61.50391186233915,71.25269005650007,58.12637482230372,46.93332616591016,34.99356296098121,1.0490673870614415,-38.39308778297044,-37.89736781272769,-10.071411317131528,-18.09206147312824,-50.97928968192651,-41.752208939509856,-8.24224790217464,-11.95868325602332,-36.57214267668323,-40.58849487984811,-25.572413906934486,-4.784949020685133,3.329580834552745,-5.667626746240456,0.9356011615207676,22.62126211398757,21.134510982790804,3.407068731975386,-11.25131956155834,-24.64529950633476,-14.283722714632548,15.362032985804884,16.672614566299607,3.0299042667791545,8.930344322348002,4.575554367290258,-18.750150538127286,-27.22782829706178,-26.422642584600972,-24.07413808422207,-1.4488959471899823,19.868523328558968,9.264557344499808,-3.4698276817965477,10.040703448117174,19.603295426707895,2.253475520789742,-16.792323906049404,-22.16121512155435,-27.484930159313556,-39.45237488928396,-71.81788940616357,-111.015037194218,-31.80839345765183,227.62009626531804,410.08061796195284,230.63796152163678,-123.02193826365291,-241.76117852754373,-119.97987335366719,-36.754776419664864,-42.666779192808505,-29.071810555477093,-11.36394851439335,-18.909073194074136,-12.1860997888431,-8.90223076330117,-32.936313952639345,-36.66812299910502,-15.82033791319662,-16.281412648799634,-29.047474255584422,-30.523671912222138,-29.53914753521906,-23.058457986695018,-9.756665666784771,-2.8412210221758833,10.22710939509899,34.684723797030024,43.285099535759954,44.98309317485739,66.79498091776243,77.61870930249685,53.04043836379955,26.145938403903536,3.989292892600817,-27.650641750110644,-39.88384300512064,-25.59140987916495,-25.186758989176177,-41.93255884085661,-49.0956254575124,-39.80454063241767,-19.79122770888153,-14.720364562823109,-32.805657629638596,-26.40489930484039,6.335175346991361,5.5108473295353235,-10.734757430901963,9.234364001115573,24.72907629354652,0.8476750241687245,-15.697338872853074,-3.093127193455665,8.441277788711231,7.117532425575467,3.366778803487814,5.456620738385382,14.083679977077548,17.823619150315487,6.505614819631253,-11.63366770471878,-18.769341287491045,-9.169302656296649,6.506038561268223,18.09454307157721,17.21354696645719,-6.450454125420777,-38.38875621683685,-47.376420919915304,-36.468164755393325,-25.279956359801858,-8.613509741908238,9.772507488241024,8.585998193200343,-3.352250843290096,-6.561123885733617,-11.866557489431361,-25.35788489700454,-29.980718069841217,-25.497650202016317,-29.439110474674653,-50.62188157975177,-79.55291946169578,-43.61396522898546,150.38023798353697,373.7952111009989,300.6736612415568,-59.48136607730077,-254.99982837459163,-114.96077552905294,15.263916857736477,-35.56837138064368,-63.48750468015784,-8.712243434077529,0.4740700622756222,-30.424359354136236,-40.82137345361505,-46.34578892266132,-37.31161952745572,-3.710680666538183,3.1682439971216017,-21.15356883539291,-25.52988353339277,-18.269330971387546,-32.56990072341835,-40.65142992941466,-13.711285780711666,20.22919344222643,35.67292489146641,43.42914770842537,53.27661484553861,64.17846388009943,69.53039307241463,53.89207103636106,23.272929431654376,5.3680698035976615,-3.1112476403071803,-20.960627897457684,-35.034705558365886,-33.83375776748373,-31.11451269219032,-30.25113860354152,-24.927876298234857,-18.506354218700654,-14.642681926134959,-15.247097568609142,-17.680765400572987,-12.345911503345,-3.6836573004977353,-2.812037325981649,-3.034513759372164,-3.0209800191335887,-12.872945913832027,-17.245943617133115,1.477466325103828,18.360743410435596,10.850422037406299,0.018623737538737473,-2.8784626490031027,-15.692116845160246,-25.70209275010192,-4.951287405813121,18.6696447703173,6.103317801328489,-14.538490712344757,-6.059039098756048,5.732730727568093,-8.94599322621626,-27.0967110909504,-25.68045703870665,-18.104591073258568,-12.859896522904819,-5.76486770493427,-6.073209192457963,-11.55232159797474,-3.284057176549835,10.833674971816949,14.919883392156319,15.683098219758271,8.41657935639242,-12.77425570825119,-24.661184757664536,-20.807346625661268,-18.098363146779196,-17.33279464302478,-37.4445892958653,-89.27333298232507,-61.70160171341868,148.6093500068343,348.30918707174,226.3216165905818,-113.30445704741832,-248.01280623544915,-108.9278323663486,-6.15591649588997,-33.7908442966674,-33.9703089070264,6.382903383900363,-2.36692445494144,-36.788108150426496,-38.75680229955858,-14.440826138668049,-1.3708579171756785,-18.698951619228644,-33.217918222868576,-19.194711782657766,-14.378065923219317,-24.17408941683525,-7.4554141309773705,8.377619574995371,-12.81407893994977,-17.392382451301863,26.434215266899468,66.88971278626924,72.30677168650585,61.97732374835448,56.010697213712874,53.66695114558326,39.05572828718681,16.081168183332224,2.4599257459122814,-19.371894869825695,-59.6183733001708,-77.12295622208342,-56.600636884473545,-34.46294827570935,-27.6482430136298,-25.882947869961427,-21.733716390932248,-11.485038130649844,-3.45265494962786,-7.730351972987243,-11.505291686954617,-1.1648052211895532,11.05327096811238,7.864376218801491,-2.5910872402620937,3.218897700597239,17.857010330727494,9.145924593364759,-9.890264924215392,-1.0000956067891185,13.479000310202704,-4.86179211448454,-30.630548076822087,-33.166052216196775,-24.019179856501395,-10.070012623449525,6.758214317647787,11.725942084099332,8.782739059011577,7.732932141286912,-3.6267719934140636,-22.74666025292288,-25.126570531349426,-8.977354937015903,4.050989102199505,0.2765463579013172,-11.355536031430129,-10.700165452466685,0.21788737264881775,1.724972148883336,-4.699431601488676,-10.897403511412072,-24.03057959395397,-35.635140570415516,-31.036584510557525,-27.106754886153503,-38.53048793789711,-59.53820149192283,-75.20791840083429,0.8234179205029335,229.7452954130263,380.07707473725844,165.9329308834611,-186.54556704803332,-234.25869057428554,-60.87378484042796,-7.609155574024108,-42.38648857693794,-19.89908028835677,-6.082016706524897,-22.39993059925359,-14.349240987003038,-23.28010656297429,-53.39198775122742,-44.744316306441725,-22.680094575654294,-21.26290557086175,-22.447297048983224,-34.10762512193333,-47.04948615167417,-29.89641309892845,-7.989814238019833,3.027195739272832,25.822835936972826,42.151367021736185,44.637517639718055,63.201903090650006,78.12450394929465,73.64253811885402,83.1026439114111,81.30788325206206,29.056932682210167,-17.571905813057853,-20.572062504846553,-23.888038508633507,-39.10585029546261,-45.23322570406133,-52.50532987809261,-63.600590138248194,-63.16520926949707,-51.0244514617235,-33.44093522097273,-20.262114497892284,-17.25279724758014,-10.651397021049888,0.9470087792169064,3.101912070856242,1.837862590123434,3.9867864593351747,4.304299472609124,8.544608129287504,12.68748337374944,5.229174225897517,2.0178063868623735,7.872947526588226,0.01786756970678205,-14.363877992653876,-14.041974054493544,-8.417280029209728,-6.489748931036338,-8.02276054017476,-16.70891818538507,-17.837699343285053,-4.589080955527189,-2.617260607149099,-10.576946884283013,-5.444408769722118,-5.560112398567465,-20.83639361885921,-16.344859943249993,8.289908655986281,18.096598757192897,8.881417959713387,-14.428759346898957,-44.93817965903796,-49.59142477633742,-27.78905890264936,-27.52122042912619,-71.01465010896675,-115.56179310726066,-37.070619675026016,224.66650530544604,404.32268747150954,193.8409089048863,-171.86733976411784,-237.57015713059275,-75.56287660186554,-17.823014663985163,-45.51308817263973,-19.87687425155875,1.307460811511369,-17.60594667621922,-17.835065535973815,-7.7977352417776125,-15.277196246996091,-23.817912764588783,-32.476225616110426,-37.83057788923111,-23.58163309771885,-10.36409235312373,-17.609914361589265,-26.77420717157236,-24.432492719123633,-9.907813658077906,13.95436283250826,36.47567249030359,62.1223602480263,92.35719450378713,99.83658545482331,81.07890113854202,64.02473390288361,54.798855198645214,44.1789017357912,16.470709044262577,-38.6341905281387,-77.11334543194985,-62.78577168097058,-44.940408645629,-55.29881734655397,-57.011332299450686,-45.3327654987183,-39.52264224851515,-25.93104206620975,-7.859544597519335,-7.712529857590258,-13.288428497504635,-3.1136949041733963,13.907312888330061,14.50805471824555,1.2537772420239524,5.841993178719136,26.186313360479808,23.066662203384595,-2.371377945985479,-23.777215150055,-35.514064556824124,-23.76987710727671,6.859131039996888,13.61561066104872,-2.4464913754941193,-10.19551342496641,-20.525864754883518,-33.893265882629116,-27.601468467989122,-19.606001438128814,-25.031702188387413,-19.740567168149372,-1.968029253499779,7.398403823789948,3.715641777236595,-10.467647031804937,-19.467825032752316,-5.618768759089447,4.984213004156693,-18.832881689789517,-47.77694993677223,-42.90589943910317,-30.813482019302693,-64.08406038813244,-98.5168813001417,22.099666937956158,299.83481901930423,403.69069398938575,120.1774791109533,-205.65840907598027,-193.9767041767766,-37.241104145362996,-36.99406817213451,-81.99677279686439,-32.540241402287826,1.2327531128325049,-20.803883084022186,-15.325650016748938,0.591916226310051,-16.62363931120819,-28.869025529926912,-17.959312024827067,-11.991965867163623,-19.186793831875512,-25.380533379791707,-18.6556871940914,-7.396523239608406,-6.295211594935188,-3.2926304272206686,11.88016457426765,28.272090129602105,48.61107365640612,68.63722887510548,65.5875417728495,55.23853789313432,58.95053836620031,46.389845596016414,9.918155114425987,-13.365131759182198,-24.65515007173112,-38.292107869369254,-36.38334439261771,-31.471437909453943,-48.474965464574026,-52.52392938905896,-24.625895245410682,-10.851992342336352,-17.572100423942164,-5.244361035587588,11.309507464823419,-1.062497552746624,-18.04530957900336,-14.524543113699153,-11.234127852712515,-21.58795024466252,-26.781453768108967,-15.36965040321375,-1.7101593657407328,0.4215496082090553,-1.1835077694393128,2.814555855560858,2.2092715182790386,-8.221925706541118,-12.997005034596263,-9.912403963128842,-12.91805594936138,-12.978398119821755,2.0534153644095277,9.812492183173644,-3.508679691807547,-14.970570230705313,-14.873986496697729,-14.176368881193664,-6.6850039075252665,11.543480728095345,19.720568282600876,5.349802122549685,-20.24760842674676,-42.35410977239631,-50.04049387868452,-37.57131405397081,-19.75148475542588,-35.86754129398991,-99.13748023975371,-113.811536763116,65.05456809186958,358.5889577999452,409.6814799327513,79.99156897974275,-239.0457401153647,-205.63650820677907,-37.5972770716525,-20.755176875636327,-52.021155909544454,-14.058122706092163,2.723057893929081,-12.790033541297536,0.6918817722534136,-0.3169326410252076,-28.2676352536484,-25.368234910110722,-18.72544487602444,-40.03484379211884,-31.530771556613576,2.88183653615879,-10.983874087584201,-48.47788434776136,-38.111917046746086,-3.6567001833367367,10.030087780356823,25.43767638013788,61.064237554048546,92.12938019091112,100.41149734023088,85.30958019685744,49.56033752081531,6.049601800461622,-25.935305651503967,-32.66093845067281,-22.829867506943938,-31.499704977716505,-61.48682580092553,-64.4129823638407,-39.339536241459754,-38.363530324477274,-46.03927786421634,-17.36045232436475,11.345192380089921,4.949618073941316,-4.836190648432552,-5.76576138998195,-3.6008775992375597,12.300521695334723,16.807722965705103,-3.4010572616498678,-0.9887225464289102,18.403388541493893,2.0249966380872735,-21.538878629051876,-10.446360751927514,-1.6807031320859185,-16.07334305671483,-20.08092904816513,-8.750079019128068,-8.767060930564973,-17.38282333974999,-10.275675779655398,3.2118528858489555,-4.89379889381992,-19.8222615157834,-15.84706288928503,-9.526409331680858,-11.136384946795253,-5.174176753703703,2.7093954575437076,2.263442940758,0.5755136225219646,-1.6732292542877287,-4.706043086934908,-12.570151432969602,-36.10887414656536,-50.71569567030637,-38.44887161453303,-56.68970583496215,-108.79972439945061,-38.581947622124304,223.820694327541,415.99178932444,245.74055927300816,-113.52109074268398,-230.88676301223455,-86.76489303159346,-9.951249641198636,-51.17697598496103,-31.275616023957685,11.166250075614599,-25.885955247865574,-52.058740890529585,-19.092918560886805,-9.122385365697543,-21.464364451605448,-12.811656647301469,-15.949228683110334,-35.507234751461425,-33.102044117298334,-24.057720492711663,-27.21431110582815,-23.353811744020604,-17.658823563785205,-17.033057047359488,8.47916863175023,59.36105857544228,92.7371297103368,92.1086582438718,75.75085530563756,60.7128579190192,47.480111554495124,21.330089128068355,-15.446063723842522,-34.815602170718314,-36.04530121730013,-43.74907109099459,-50.96855007737736,-43.66115632159871,-39.24325824548889,-41.522224409340524,-29.563449620561947,-8.426275877885718,1.5979246001600238,3.8077883355460127,3.3861925950750695,-4.399830013548277,-6.746057588634738,4.457999393184794,6.197005858664294,-2.968221551471112,3.1623714216190297,10.038593343863846,-3.2679220446391675,-7.727091030551619,3.5934692446094196,-0.5215481097330894,-12.828801636026009,-14.660485640938981,-14.855822407962485,-11.082136349922305,-2.817793932868044,-1.880749612131126,-1.0867974149511568,-6.047072844586907,-28.044012410212567,-28.283932607358683,7.7758605642154635,19.91151945337485,-9.729404866572327,-26.45558644123314,-10.950343653581319,7.593192317097126,13.002904610256842,1.3538098819647892,-31.78365837166127,-63.77302009950173,-54.68376289925559,-20.159386040570944,-33.38299055817729,-81.54552775215431,-0.24229855332661998,263.53875462710414,406.4906359552588,158.9678937184163,-189.43104328222188,-213.07903866275757,-52.05292946047515,-35.49415070375486,-79.22203069546845,-37.881251984224164,-19.76198048041649,-48.09558637117817,-26.80613043320927,3.3939228117116187,-7.566747197417481,-11.83031690909047,-16.33006994223499,-43.18140622540244,-38.82022355466831,-1.9380844149518595,0.0983608872725732,-28.0203037681799,-33.2877644433114,-11.621685232188144,15.256121204716816,33.4895776323486,39.132896035140064,50.07858362971721,71.39198567262194,75.34157542348328,56.932891566472655,32.62629890919349,0.872180696734167,-23.425268307186812,-20.6301642314706,-21.52657861415382,-43.99500494883338,-53.283388321670294,-45.60080770852259,-42.981607823785936,-31.33456406414449,-9.151719443141547,-3.3147698682109947,-7.444569166666916,-4.599667083970315,-3.450856152738277,-3.384705799286662,1.8800673011232893,5.08777913119242,11.456940859434026,22.826532037733763,13.718921857234722,-15.288512192826925,-22.890572388569232,-1.2599800401586787,10.521602016921886,-2.5552477984628084,-13.848349802773969,-9.92319312573893,-8.389745427104046,-15.749856278322195,-15.497874383481543,-6.513556417734188,-5.244126369412534,-7.06065972299699,0.6570339008824106,0.04036466912238623,-19.258177762884834,-23.187649166425295,-1.3922564167966058,4.1209106312652,-13.259775743748033,-18.813838314579883,-16.46412459520066,-20.93853434578257,-17.520126501074778,-13.898213729821169,-33.13850784465658,-75.08193944101392,-111.29017838381432,-30.578086828139448,227.16375061687776,390.83354259029517,165.58001931432148,-186.72381854934406,-221.1751028513793,-48.678583256930224,-12.360330164459839,-62.247480480746624,-31.639031989318916,1.8743978371023715,-21.38232839917113,-20.947917576907336,-1.3039101667416197,-19.774767045271478,-35.615676804738385,-21.228602212754673,-25.954521675635185,-44.507331870870864,-33.3419471832855,-18.42305124089351,-23.484578066664426,-16.34218487409144,7.49992983616747,32.314262867904944,63.73443713547094,79.33258199888827,61.71719863179768,53.41752073225328,66.13308867332779,57.566621727190345,30.82271716797144,17.59072802472657,11.94388143124274,-2.9061970881161265,-30.5893728394853,-56.87068479716948,-55.53133241632487,-42.949284503736564,-55.69516969205681,-65.30557467293883,-40.883907154490664,-24.071849006743335,-25.574730365257608,1.342001964084833,34.12303754265574,19.36662743071336,-1.0971692253851444,17.719521871670523,23.2027059059935,-10.100111910130288,-18.0719715405347,13.214459673226706,19.571523545308853,-7.77297744468197,-23.491668506016637,-27.20950604194059,-28.820266593806092,-8.589689827750536,13.085460612034321,1.1142065411606819,-9.041347148652587,9.93050972789106,9.00947043091021,-25.599282985876513,-34.70279355735387,-1.7547757249287619,23.43215478119577,8.831432125547938,-24.9335693012396,-34.74445607827752,-17.707953325148345,-23.228746675248797,-53.15766281785029,-45.521433220487836,-12.351262629060415,-36.24930621644397,-106.03903477397017,-88.59418924749465,115.20618650632196,362.05088388467686,321.02046418475965,-27.42813971110749,-248.7291047363516,-141.57499256204568,-13.742729444665654,-35.4395785353897,-39.93669333729483,4.945541020599137,-7.356562807597889,-36.21943110767542,-21.80698352081737,-12.319466685374298,-18.643859983749074,-8.029753354473307,-9.256681742762318,-41.70687504900111,-48.73967097573461,-9.695295281623835,13.44059841277093,-4.0574543030990124,-19.79117253777638,-14.261702565873552,7.843633080483052,49.145982518669356,86.77875579951231,92.71328050675474,79.92970142726357,65.74221029738794,47.42804449189193,29.92083231686568,17.08847409925471,-5.853311873813996,-43.8436978910581,-68.98374222754606,-58.04836713407629,-36.03392247323229,-32.41205461534436,-32.52062333979135,-29.581953264665813,-38.24504664531269,-39.05943827189763,-20.49215243106504,-12.144589632815162,-9.69167952721401,5.556522216701401,7.3544405720586,-3.1165277673489538,6.509580218157949,15.027495837595326,4.8640652515771645,8.306139279168855,18.159518711152423,2.6493114518212764,-12.915467066638403,-4.522908339548355,0.1566294333139826,-13.91512495466878,-26.57320189225953,-23.74346387290184,-10.715817397360116,-0.8153863200781402,-0.5622888260361734,-4.725869290923477,-9.741369500665186,-13.412629981230143,-6.359192346791149,9.432823004242241,9.90483598449066,-16.821920339443672,-46.93401073202904,-55.890114350947144,-47.71017339281944,-39.673171984255326,-59.13736245746375,-95.9850284761703,-16.294493179068844,248.9453084687827,411.7064325730553,176.98938409460385,-180.3755477824103,-215.05558529519567,-45.986072273353564,-15.654253732170407,-62.676834668347574,-21.93800701878592,6.284104290901588,-40.91360596114104,-47.83866139182231,-0.9101942601356185,2.545910285998268,-32.384825246333236,-41.48497221756367,-29.29051269442526,-20.357083568152063,-10.011974107422345,-3.20564384385807,-8.985722290797973,-14.512065013567053,-11.873128553186264,-3.322864196605079,22.330574345533,64.9053713712222,91.55475547590808,84.11025439400107,66.60690028557204,53.604244960157146,27.19746579177081,-8.576408261213281,-26.386084469418613,-35.870914308620414,-54.98540354136208,-58.391183827442184,-37.43097639716103,-26.31280578796073,-28.548868833393108,-23.829427177747668,-24.001630235083983,-33.17736202801501,-24.842278106103834,-2.2107593707293205,3.0993709101654563,-8.746239985232005,-11.13066423721888,4.8784728305858005,23.16129620908071,25.011625462754644,11.525637979699303,-1.5444444630715175,-7.273738663787338,-5.492325483463847,6.129407155977413,17.450259725328266,11.315630584415125,-7.60838272403149,-16.49147371446521,-5.15949428324889,4.790293379405114,-15.86452798394896,-45.98816553299708,-37.56610353826391,-11.804656984117958,-18.77106150466198,-27.230044097918626,1.3492506918526193,19.81813509386469,-3.07576774448939,-26.015937098055744,-28.104387537716036,-26.64095575748118,-38.27083228747142,-85.53538005867404,-121.27559500105305,11.468772324465391,304.49672696804134,405.6319360702014,105.77401542271281,-224.61363922834332,-197.63577518699717,-22.053746241793785,-14.272077688506684,-66.62986876252765,-36.854564276924236,-14.659215886850205,-21.968147813767718,-0.736002735978369,9.098398696166045,-11.471487992664692,-18.705569835063038,-16.944027547693956,-12.990593523104993,0.3372480935165605,-11.543390527740812,-46.41736886908778,-48.210448680229874,-18.23968602542304,3.407250351014754,13.861773816256838,24.582055248142268,42.978078757733286,69.9600183364483,82.42446568385759,67.90882583999462,46.727772266440354,25.763071366191618,-3.7840096163668355,-27.540636972473443,-31.343367052516978,-31.417014960429672,-40.586744456795,-47.509902052284104,-45.70171720307587,-39.66839371191616,-28.16351368969047,-15.23689596284142,-10.269568657620376,-7.8211498765926954,-4.162564605817364,-5.244207625510498,-0.7741752738603127,14.10785890412676,20.45607434198687,19.495337823145206,20.661610665039472,5.694267442798494,-16.956554567566897,-11.87758440241969,3.4159124636077935,-2.6781513284707064,-9.881925766600336,-3.7855803595933732,-0.37903928354437255,-0.5884752557788158,-1.7014582864245007,-9.658086058854877,-18.125038350093387,-20.242673802209193,-13.94248934417838,1.829752357438677,6.845403730932755,-12.09554192423036,-23.79169180434603,-11.703222754240606,-12.110294155894284,-41.01766938226525,-60.40901214133156,-51.33243441107618,-57.00150068720775,-96.15372769488125,-54.50709611931529,178.38644117392283,405.20323152559615,278.4869725003618,-100.49262318957207,-247.0812044164482,-80.53431601748638,22.497364363804024,-43.54321041262788,-65.85888363916781,-21.624167377805527,-20.521525406216437,-35.64807617688736,-27.62129026551143,-23.205681208802073,-17.280737432851062,-9.024645737377995,-23.943122930872068,-40.13097379420361,-28.89701377498429,-16.316343825713524,-23.191313487993817,-29.089364402114104,-17.108708982143188,7.606110062359755,33.32793031831655,51.027101331671545,63.37902587748732,76.30304801674231,76.94568784710555,53.92937984707528,26.403067524085113,11.493049013242551,-1.7668607094308513,-20.867129995580115,-38.81883984534585,-49.51503616782018,-47.031476358236134,-38.65225098974102,-41.72022830389784,-43.94706894275804,-25.72010265563241,-9.177159718723797,-12.778243609014002,-13.332332311732541,-1.628429840187076,5.158606502126503,9.929686010947162,18.763797688861597,14.9705920703639,-1.2619810528267301,-5.4270849177992,2.108434789228773,0.03208969669559636,-6.495832358029965,2.188195369153454,14.768476253319156,4.844239820030165,-19.433556972496454,-25.26094676356559,-8.498644400093436,1.9832666103431826,-7.2145827868494905,-18.493926324567894,-19.548610665712797,-15.908418784773943,-7.415229411571783,5.246800590955258,6.330157461451526,-4.3393612113281765,-7.752011670029216,-10.689473448196303,-27.674222490660156,-35.22933902522049,-30.223350136190206,-68.68209617977301,-121.70567866143105,-16.169221443826274,258.29956733281045,364.6338593127623,95.5797208244307,-217.44937650169533,-211.85165264873666,-45.06528883297132,-7.661766289061092,-50.40714496120524,-34.788079944309416,-1.6544841491276543,-5.6833261478572545,-12.736063500705118,-6.430023249786018,-13.600256534935738,-36.474634532163535,-44.50508929063168,-30.029762157629634,-18.07333446506991,-17.10107648455361,-18.81110359061968,-25.51715983604584,-28.12546795681333,-8.486585193534484,26.47408176002586,59.50194474475356,80.72654640562538,84.31608939154249,80.23254226832795,80.06731814606923,75.62434413866444,57.615746277093216,24.112224898161827,-16.235421426438993,-39.486309704311324,-47.898719712910136,-66.16253180032578,-76.26202504805802,-55.923295761460274,-38.02277227453334,-39.54027492915172,-32.572653846312434,-17.026543081033342,-11.36488963481542,-4.641336856646793,10.306459412317418,15.01779206567398,3.6887352559491395,-0.6045434497158224,14.756472698173663,19.79196528607433,-7.139815839051076,-28.983699444163292,-18.562978663079733,-7.265180811152485,-12.499550963681735,-14.798227797112158,-8.745329553181495,1.2043046902788923,9.978953944718038,3.7109067475506077,-8.076374093614074,-0.67593144256284,14.968222862523831,14.111980012561252,1.586154555275865,-5.202054476227991,-6.2650108924400225,-16.48028503659553,-34.452103898169526,-40.76529252177231,-35.9297050691148,-36.34831434593946,-58.25903817985113,-89.90673234954633,-13.516417988563525,234.85308344900372,378.8172633520612,143.55247063065218,-192.09137176876135,-215.5954197937988,-53.13399935965952,-11.574329956460808,-45.77921600279604,-24.54194536330648,-2.8074451402068803,-22.52875747587093,-32.63942264663602,-20.888914974588793,-12.875472026180692,-9.643834574394095,-8.865431745827888,-17.070827934971817,-25.34181449001978,-24.600468559565925,-26.27659751408699,-31.83104946188277,-23.917798054781912,-2.009834826162918,21.53251742956877,45.698948710990116,69.02705565267132,81.78039945364577,78.70324992202326,66.79696080005807,56.541886146217934,40.43526665704159,8.085590126325215,-20.69880808214525,-31.511296030273652,-44.95799257393041,-63.13055204116775,-61.95813288415965,-47.81179745017853,-40.58377154897274,-32.15628319189804,-17.105467886372928,-8.634066538573553,-5.441746910282852,0.005843777057826571,-3.2113016726595234,-14.69562572935974,-13.548670737866772,-3.8716002745218603,-6.118268672444895,-12.314883749641108,-10.190496257388467,-7.573697765380784,-4.585003018542645,2.025463849839676,4.042080270923199,3.1091440531420167,4.311974747210012,0.8737443885937548,-6.114804722711256,-11.494612169320138,-19.465465959949007,-24.53198855167252,-15.83952412226005,0.10394076468180735,10.574073561985227,11.58890662240061,5.898692111102994,-2.725703601863744,-16.134832200863293,-31.52746779419149,-34.60130716871366,-34.51563629819656,-71.75542706621175,-115.94901301144785,-11.907874779026272,274.1763042365465,423.92527895310474,168.85475531619414,-191.7080849846268,-221.61137745340528,-43.419859086248806,0.0660072495775843,-52.95680714598049,-39.79880226751571,-16.619414802161344,-41.574757566530636,-53.80365139647459,-32.19081658637754,-12.18989186150662,-9.896743962746408,-16.174617474958456,-17.184850454261174,-22.071412483578943,-38.4675698433303,-39.39987362646848,-24.89174317370733,-25.09395163901144,-20.215757175844978,12.175070274023387,42.168921256095295,63.98460521476136,90.24337336654563,90.89873188176463,61.69411332311594,43.99588922116642,35.355340159844395,11.103836402577677,-12.035977789790767,-21.634096485794913,-34.40292167655872,-49.63342172380741,-48.62206423658643,-34.71496003051324,-31.095593994462234,-40.4242121194366,-39.41115604164675,-22.92031687844747,-11.646801813920444,-10.457656833362606,-7.670307605779584,-5.2175750839164685,-9.281279946045174,-12.134740146398348,-6.316924964454689,1.5565259623175542,1.848786468159231,-2.728642178016216,-3.192664750560608,-0.9324404270028541,-1.4901181023646544,-0.7650294012271015,2.9386487688692675,1.5364245838576984,-6.437821266302093,-15.21628801229906,-20.918784703526097,-17.085286482873023,-5.961808043417526,-3.1749422029964762,-3.732777101098687,10.720731986492755,22.73807745793458,8.086933897342993,-13.029370512935023,-19.667673285809038,-22.62977468167612,-24.912611782777947,-34.443812701734146,-84.69555274319593,-126.69248910314434,6.227311820117322,313.53413126078124,437.7991639751552,136.6873304108691,-231.55083703348566,-230.97014833499932,-42.9414320430559,-22.100503063242392,-75.27938622102025,-35.51947281095832,-10.727325853771767,-45.471119013590354,-39.0126552763177,-7.2443842048282185,-10.632546151864698,-16.95574631483766,-10.31435452103237,-16.71156787076603,-29.184924320302343,-32.81939702878075,-28.286733184882614,-14.744326181624949,-3.546765824427874,-4.585250538357122,2.221742043077092,29.557196854739892,56.58989459941388,70.06195368015572,76.41029723328063,73.13134740487212,53.86821736431889,24.693170371139622,-0.8514601206294357,-11.37387315996284,-13.862832459090246,-26.41078516376341,-45.2144512699077,-57.47284244712952,-63.88512024071525,-56.892367416677686,-35.225298799379644,-25.966964196650462,-32.94826323703809,-29.46987662064189,-15.08974105560657,0.2943594168753343,17.20765261938925,15.683068509127196,-7.621286762741239,-10.728203084411282,12.436453819884019,19.537303888001286,7.368856588446352,2.502791574010251,-1.3777465702615412,-14.293404401491204,-16.471995690402327,0.6520978605279701,13.742527170110465,7.180268146113939,-5.944008469972243,-10.368685131469999,-7.081131579560418,-1.8521461826839118,0.9023677768592151,-4.358484617086251,-13.327280859442755,-11.739292224383599,-1.6327326833121196,-2.868674086442512,-19.514581128408345,-35.53584239575901,-39.61401002781051,-33.32678456986716,-41.91222169518079,-91.15161096427742,-99.71713331505852,83.01333378173169,364.56206259230635,376.3699076458941,31.36282203867061,-245.1864669432729,-174.28322194195124,-21.594279135882495,-32.35133801249387,-67.21198532539127,-18.779158722145443,3.1854904530670822,-25.825037484993224,-25.41488759051526,-9.82726531642436,-19.38059535870891,-23.329837564293072,-11.324339828160765,-12.549896359855268,-22.977535893404454,-27.29611074424343,-32.758795150913556,-34.70489858477468,-20.334426696856113,1.9073394683850384,24.40548964619882,48.397153409516996,62.58266308341,63.166279813654754,64.19582537817271,60.84848327522399,39.281439329094454,17.07666521416351,11.181059283189011,-0.5868963725290897,-32.90863343304734,-58.042044708284195,-56.94872802504939,-50.4788162540719,-52.018980631903766,-43.524730443184275,-20.750683809410276,-10.027110911258454,-18.27117271944376,-18.31919457809041,-2.422915212860474,7.408283935589502,5.921000561461864,2.161395787793113,-1.088218023833396,10.041437373840502,32.09872915042132,23.746044654898746,-8.58446129571685,-10.129925454755048,3.969697547177905,-9.661587462423627,-21.00928358768764,-10.187246222286916,-10.39438279106431,-17.34954284373486,-14.083191358685358,-19.840690409343477,-24.622765477819677,-7.128330031522385,1.8467294326709283,-11.60824793830199,-12.024934079432459,4.105645095142499,6.660090060053495,-1.907443153792359,2.7633151296063847,15.673027482839514,10.816113565598446,-11.838601657380181,-32.356710890199416,-43.88449030756034,-46.46104487364088,-59.07484390503991,-82.37059883492574,8.00745516960886,267.219454768244,387.7047672285219,114.08074169304692,-215.72311520347915,-199.65041386039672,-30.33551825631792,-13.524669182756707,-54.05112299192445,-30.229241236140133,-20.72808788115986,-37.607704114816826,-26.237352722975807,-11.286615427663278,-13.108538422044159,-17.81855061228104,-29.069550316516636,-29.785944721826585,-9.907904423335658,-13.403743543813274,-45.05506466097361,-46.4706156797683,-9.285688203651933,20.64110887731448,30.7192846008734,39.5642035846241,53.572259768653666,64.95830848268325,64.52856077342834,57.748900078388075,57.072998435902484,48.08355394366306,14.198451052135564,-20.267697793406107,-35.591979528859056,-44.18862892445088,-40.917212277349066,-21.130077104932116,-18.35088194708797,-40.370506916109385,-50.24852463325922,-38.19967916965487,-23.535274180313927,-16.31849804202806,-21.565893513829735,-31.462698878894976,-26.470612081413886,-8.430480450247607,6.378900554438724,11.352540618407243,4.462369234203635,-5.219081092497873,0.44084615715130226,12.193576630005872,2.866263654855956,-16.745818079776456,-13.873234188781897,-0.37483960938103955,-6.430002401002314,-12.89807727497955,1.075832621335465,3.2386047147051773,-15.645016113705905,-15.785432515695751,-1.7755949339603347,-7.674104659170293,-14.341612291689762,-1.7619473582623595,7.562870304456485,11.982300163387482,20.789474635538866,13.167011658538453,-10.141147299655193,-23.15843768657465,-30.80371194932301,-39.65747892288155,-34.12649256574966,-35.86327382229392,-85.19237546044299,-112.35661403789817,37.90631032401417,312.12028454604354,364.8436077201841,57.906692552231206,-233.35818486348128,-193.19717735792779,-32.33295078784016,-17.337210118955937,-59.06486688951793,-33.678512515599536,-2.245931786891937,-6.537180904684561,-15.241419958419215,-23.212156423287603,-25.680867830482608,-15.195562505022105,-13.889435759346085,-18.163218143260124,-7.418128506597796,-6.611884400908076,-21.752685185274657,-11.431081972428629,11.232145993125279,3.8386740394548267,-1.1704441183044176,31.39896573994973,61.1113405144479,58.339620440443056,47.51627475348414,44.456697913215194,40.76572086108429,28.223208119606028,7.137398845976586,-12.579027023089125,-29.344622620011805,-50.595673900196935,-62.16143401564693,-46.925939735650466,-26.256942793581512,-28.272623071304324,-41.13705200080082,-40.68041406811385,-33.30038180450141,-30.347890431715665,-14.363334145118213,15.112233558252445,19.543060007100475,1.2779249817028315,3.701779097799747,13.38275164499134,-0.36779788302705896,-6.00496790381929,6.906935095047505,0.27705848778749953,-10.199877699505864,6.555077835937006,12.530149298872676,-11.911460447592594,-22.74682587742571,-8.244040653636333,0.4593524459931153,-4.638852019174902,-11.684984678995432,-12.768261448413394,-6.6987641296521705,-1.527232533245387,1.3211152756100097,9.573828583281292,15.850506076300364,8.890008330699796,-3.413748645108795,-12.54322826122938,-23.969075882965043,-41.454504712451886,-53.72869760842543,-55.19402355246394,-75.24167653334096,-93.79556989921477,32.765440266975475,304.029027638264,376.8052394795386,72.41022312254955,-225.54421801735788,-186.32953311791522,-33.12805891437989,-14.849572921849088,-32.1273389310915,-9.14437244995505,-17.07787753091359,-33.569208716117075,-8.880405867771369,1.7307461263941377,-26.769887657652966,-41.81083038793447,-33.81315448791475,-31.867414179571725,-28.84472981764182,-14.791820561873747,-14.686138189077099,-34.22171689839047,-35.86200622973588,-4.839856633568113,28.19654471816344,49.66270822665753,73.75412777723673,89.6309165243842,78.7299313811674,61.18877213023609,52.290874543965046,33.88665479738409,11.55686065844479,2.75735454321528,-18.64647735967356,-61.28107360689019,-78.3559204887752,-59.90999269646407,-45.89299746520965,-41.710931314730146,-30.173339744361424,-21.36551925258218,-21.862995356901173,-16.33009214401965,-6.937859928173211,-14.229867375590441,-29.62765050229199,-20.125157355668467,12.522997683748446,29.71311541682029,14.242805552470356,-11.230208018188932,-16.42001514821577,1.421269164849594,13.43352813358442,4.638176260840001,-1.6807729955698685,5.199858299672009,2.2392924698819314,-12.662541888804041,-12.53643254899824,1.9982046337978794,4.167520404506925,-5.3930011846660815,-4.508105116432718,6.4357727100191875,11.081316339595304,5.092986116785214,-7.0267372760184745,-20.39146855265501,-32.0764565292084,-41.2131759907519,-38.519651595617205,-29.341382022542536,-57.72878546089686,-97.29406247043534,12.335616214171353,279.72096699525866,370.5035908501829,87.49086855771986,-222.59353679684182,-204.19674689814062,-38.34220309292928,-14.81536648270363,-62.42429922308116,-40.70707473058941,-5.206759606715629,-10.086226674509525,-16.148255678623666,-8.962493032812425,-7.814600200025694,-17.46332255782479,-29.12960286022956,-33.354129843812125,-40.689482021113434,-55.30458754557023,-42.69818790118998,-6.52741458583851,-3.9287072726458536,-19.272362627884625,12.440007571067,66.64827541048336,87.26493539467614,89.38386833637986,90.7102867777316,73.89587343621128,45.02948130475902,21.80700292692823,0.30964546765927836,-19.610455986183137,-33.327119228017295,-47.86820511889507,-59.268658112028476,-52.92545875578961,-36.90204361542429,-29.71681911796837,-31.704017256484054,-36.727624862043605,-36.803749223872565,-20.59094177139395,-2.20084987499164,-4.9488625765677945,-9.746584856715762,3.915603238523669,7.746933656893123,-7.854988308867258,-6.180669741563105,11.369320279266551,7.294553444042156,-10.04694896716466,-9.62336538152761,2.994640540897394,10.475085532400287,7.924003567378454,-2.8331865763654793,-4.2251172292764165,11.435422834412059,14.364426078001518,-7.2589686054412095,-16.479326296602448,2.5595443781937313,15.922328918236191,3.0051069836586395,-14.424663117931393,-15.848654272107296,-13.616766947347188,-27.098364932752972,-48.25120416000543,-53.76775816229304,-46.77749638896651,-69.51644724205099,-124.46592345760072,-76.50451194293885,184.6323256922156,427.1036272110696,289.5499658364619,-96.86187396202558,-242.69843158623618,-88.91990499144394,8.131203930737696,-36.20134133105003,-47.85092222308202,-28.749169649588517,-49.43334619185925,-51.327826887928076,-13.583465879521059,1.9786223635296736,-10.534324444785252,-18.005602519796106,-15.819034454765301,-16.744524382777136,-31.373059174143275,-45.72330224651787,-37.721313593109116,-21.30108340698155,-13.236791954102394,3.159101896891073,35.94100909032865,64.6956099218146,71.52834621086814,61.66204557494336,56.22582515977939,58.293907516106714,47.33584654296456,20.186118706934845,-6.859207583396161,-23.842864995710684,-28.69167889426722,-37.680020402962384,-65.05867297300904,-77.34033253779354,-47.06759954197253,-13.216103897431122,-9.492995301449692,-16.22701528433638,-14.27826676823996,-5.615120243294692,2.2794504103653797,0.28849277336470536,-4.58086403152331,2.7911810852222345,12.094419077843376,6.662608996137822,-3.9713748981969363,-7.070599095189361,-5.429745233438064,4.261339515602339,22.574642082995474,21.147356487927436,-11.4942226457121,-33.14345553442835,-20.131971218651714,-3.8778008782986646,-3.416587123897335,-8.705289541615826,-12.480550197794859,-7.148601898588998,1.144086365772786,-4.221255480122743,-6.308842772732651,8.723740962399171,6.81609562971772,-22.166954629410785,-36.32904749626664,-21.710424646545626,-7.8721867486461505,-20.803559384206842,-72.61248548313239,-121.18626198750259,-29.9395623472601,244.58561023989324,418.5959611754829,194.26258392524755,-189.34584720612452,-258.78869349979004,-69.91544231522285,-3.5685688580793737,-66.12226549849441,-56.2880156316112,-12.73268416308148,-16.138323483500255,-5.084318765434742,18.642155183760202,-8.084234326815071,-47.797894928958854,-46.00243522668945,-25.88896935307084,-11.880937883135921,-4.2637682810589705,-12.241791945296802,-25.88081981688881,-20.454781265942145,-6.016282461407204,1.868765917194878,21.758096268657223,57.10440832189658,75.18306020500312,64.04376669043906,49.03995083655348,49.10403435705796,46.49910974570511,12.373632556600334,-33.61654899334678,-41.77304137793991,-21.580817640824197,-22.489156093752754,-42.144733383561785,-48.021006283864466,-39.7158643693716,-28.211375895654875,-12.41242473180094,3.9210340878168246,7.970031072225902,-7.590562373401127,-28.233709643895523,-28.366152262760963,-9.839575865441736,2.6406386981396555,2.0861403490173185,-1.665799045547324,-1.0080642076768633,6.488882556118913,9.880025461309515,-1.386919322981898,-11.839885038239105,-6.777304582727543,1.2569683234350633,2.5100320360787274,0.6567704124904274,-7.869785033647377,-18.626660277623216,-12.341338611576756,4.661172775689733,5.540725998143048,-1.5030319870946953,8.804666906892253,21.669313401586127,15.674879249444555,5.884663147933623,-0.4133524844816012,-17.15048754732957,-37.57859047272249,-50.5122888739333,-60.29956184069731,-67.74598471302801,-88.77630725907913,-111.85644987660882,-9.824871740434759,265.13212395005775,421.751404726155,183.41091030938696,-177.09749223571595,-212.01352400732506,-25.698514517524277,8.613541066521464,-72.63061314882151,-57.262050828944986,-12.384494556923535,-30.17604588045695,-26.93918081151442,1.4299666033136162,-17.475330658794768,-39.4268561971301,-23.700463999765667,-22.440228630834305,-34.49815723686309,-18.274123608327482,-4.942588981385359,-19.39890222489492,-18.996728757476134,6.3482895152201575,19.044049029115897,21.44056145506992,37.9448348084424,55.16635943586225,59.01619556368919,63.524838892014735,66.68984023492237,48.92053230506653,14.357918864915069,-20.603457311947896,-48.652574708058296,-58.95923777447778,-50.724331422904775,-46.7339228242992,-52.64663952448315,-44.07396714607026,-17.1531111998213,-1.2267491637919434,-10.504494397955824,-23.982032325181326,-21.290451682344738,-8.341790044008782,1.4189526269692472,5.342051359358514,8.320319619741095,16.590929075582217,23.663725320487956,12.67674155713682,-8.393093015445151,-12.017854342133422,-0.8842600404422107,-2.7530618065550705,-18.209386423094468,-17.57697434866055,3.7825762072143547,10.090417033464972,-5.883116051163976,-7.555740166864476,0.692297020421849,-13.46283739252042,-24.23649710461453,-6.88016258621753,0.7733349410931627,-9.738539008829303,-1.1046411372313356,18.20683450443012,17.528107534281776,5.838971811248397,-4.273662138554657,-19.37535382150055,-34.15696517142518,-30.63525138963138,-21.064153539331137,-58.02415223815473,-117.11474604700011,-27.115306075396084,253.06464159961567,397.78413248619785,146.7334763699628,-201.75279969538485,-229.42367741227844,-52.65598850949954,-2.478520556903911,-49.006151953627395,-33.28614437285777,-10.09760151012572,-35.29047864725839,-44.907501737779896,-33.67460143766384,-34.15946292409171,-22.59622160680299,-2.6948478176171573,-8.906465577261724,-21.198338017338415,-16.31184652476401,-19.87921034574419,-38.08450373785115,-39.43531701670029,-18.92838327170365,2.0493898993735176,23.027603162356524,49.674765089549375,63.33366058165459,54.04303568990977,46.3482258931975,54.31301708224716,50.06319004714999,11.65407714329135,-31.422025148103994,-39.20496043060962,-23.36587144817569,-24.45224325672863,-44.25306077044433,-49.6022765939849,-34.15153518009438,-23.18261120378488,-21.74523145259667,-15.933602470239798,-11.161014623978204,-12.054010311528737,-4.543398903592394,5.049939480060582,-2.7137564335768545,-16.839674574560668,-17.287468417468236,-1.1932740897694938,23.079761509037958,27.086841555135177,-3.0736644379223392,-23.68579288983033,-7.456933742852847,2.1651068803734788,-16.519538827410017,-22.490445002225965,-0.9590767027758433,13.65387801905376,7.72095619294892,1.3247678086277324,2.047043752731658,-0.029337741751452207,-0.8656445338115482,11.221009358024464,24.925074757385822,20.570523650255474,2.108196547063166,-15.461888659808892,-25.930083479377814,-28.011511947328813,-29.8844105844434,-41.67812910815886,-52.686036124485966,-64.05053322986055,-96.2427253236969,-72.28435945574341,133.43863554991196,369.2777864471325,278.8342462063537,-85.59256229743266,-251.31554805789418,-99.97076173488513,16.988895735722018,-31.791124396026316,-59.42476461431105,-25.99586843652976,-27.360278106852995,-44.50285601063508,-28.542403188296305,-4.152783079815492,5.048062643624073,0.23620533996713178,-15.6407727398479,-33.114101722620234,-45.5982975042693,-48.092230589630645,-32.450228564524636,-10.772539810981085,0.4012614292492893,17.940473029888093,55.14803876352053,82.26943078339839,76.40271052568218,58.927482993351944,54.228841340184786,57.30783322350596,48.24586322396054,20.621564402678196,-6.617009098977132,-20.757558839293615,-32.92580105298661,-41.80126407548953,-41.239231790005945,-50.975964795731535,-67.68023838020694,-56.73488498259894,-27.20899260266237,-12.349468986851825,-8.696279755832904,-6.881341746387598,-6.236970747974151,-1.488746684729703,-4.212809117846032,-13.660980031391992,-2.9838660513152275,11.85152355819948,4.498234016241291,7.220836555364536,25.85866749434335,15.117160027402612,-14.724641746987396,-23.268044570966154,-15.006307589966575,1.2359938961657866,16.01111182920844,5.008567987336757,-10.758543058512084,2.5812223100985223,14.450322732319846,3.1321601150454996,2.3823138438862834,11.579815533109539,1.5145322627178652,-8.226110814794549,-1.4576275320967689,-10.493313298683283,-41.278548880278024,-59.93553370454674,-59.62421459367955,-69.05844217311365,-101.0486108589812,-71.66672807621208,135.13936038073612,368.29043288039327,275.39569481737533,-90.25830227616544,-260.1295711958657,-124.74565510821746,-15.70833536777307,-35.301698922792056,-25.913055007295785,8.51949483724951,-9.168541641446168,-29.064356338622808,-12.512847261381127,-0.21427917724668077,-14.685117471173342,-34.98494540241896,-31.612680204802878,-13.229820729120085,-20.421569080428593,-44.32310629259117,-43.94275960035383,-27.89033587268807,-11.60023364000358,19.618998823187074,51.26178928638774,61.55987013623499,72.72510618797959,89.21273436154941,82.60491514366777,64.3197390715062,51.63822050057955,16.94294308930199,-28.29085838525358,-29.10426001290544,-8.478216197192243,-27.094855514051204,-62.90880336176211,-72.89258497454986,-64.08604476922768,-41.87566915524313,-14.407345762752197,-11.264297688807776,-20.50072337554252,-7.325667925277161,10.23538859234823,3.6971224675456362,-12.551707008570233,-16.96837504048371,-5.3828756482481985,8.19518643292229,2.4718292421885044,-7.3862046128268055,7.285163517772535,20.359807320947947,4.375475614021195,-7.341068985981176,1.3079396008396227,5.292943066372632,12.537846313504566,29.412849298767032,19.179282971635438,-15.556196463676848,-30.61019765017775,-24.240646130164308,-14.06042327422065,-1.8706814650344086,-2.1387354353463532,-19.12102016979926,-29.487358054073745,-29.009408093353777,-33.58877955228803,-41.73920395626245,-40.741869239477026,-47.04269695388291,-94.09629097324321,-102.15440197814044,94.87390726311538,381.08154838480584,349.93399644461476,-23.921269770008486,-243.84984753872493,-112.30522929451473,13.943603724915102,-47.69693697006801,-87.81666878707101,-29.245787817423192,-6.888764361356806,-33.988472440325175,-31.52053989115715,-8.275962698171945,2.3069241380424117,2.2325214141037417,-15.4055400417108,-41.792073064675535,-40.06133727707437,-15.811709122698607,-11.033245190992737,-27.72146229585488,-32.81384030403891,-9.330749463577824,33.88676657229071,70.652649322727,77.5274940082499,64.73036487250154,61.85242315925612,66.70363477927675,48.82456248269296,11.386941218429943,-7.564614115736836,-8.334084287236866,-26.836404005713952,-56.08097818383141,-59.15888259138679,-39.95089828245107,-27.741790576872724,-29.57649372988263,-33.99551402958497,-31.75139822039959,-25.709204561333763,-20.190199196563047,-8.215995241904565,8.344610118599462,16.038648142642057,17.029903808288683,16.66012874111322,11.96912720022343,12.608131878900647,22.021019702340105,23.96565005258573,15.881017327702747,0.8542080441615525,-24.075000937282155,-37.25194725751386,-21.640637856059502,-2.181013619328814,-0.24627853089460672,-15.188403946463819,-36.303977827231115,-30.01773335476321,7.166706540101715,20.916464117874206,2.4372242940033795,-1.879155652361999,2.689222339254023,-14.439053700537013,-38.43100671704873,-49.65703972900649,-47.04103925001907,-42.711571850036286,-76.5184351490898,-122.13043294992889,-15.128328004512412,282.15509125981083,433.5063019053487,158.95793990690896,-216.92932956399807,-226.41344888238112,-20.74233575494288,10.370890097683473,-67.87778900911839,-55.57439859469507,-25.2340443462408,-29.45587563555112,-5.460981398045414,8.102307136777444,-18.572177906489173,-22.15452216428822,-10.179223951737047,-19.183392624131628,-17.846494285952957,-9.835439427198583,-23.347375110883114,-23.84478943258203,0.8839164931471148,9.976614974949758,6.175376412472721,17.62261104839461,37.838179677089535,54.131976970168516,60.1860677952123,55.21270959092274,51.57656447362956,36.82916821615949,-6.059079899371866,-36.949492731506176,-32.38792659797309,-34.1665128879043,-42.67623725602262,-24.491126279827515,-8.847493002526257,-20.069800797421927,-28.779471917303788,-28.846377692733817,-22.643715071940136,2.1668579064773663,10.326847540247597,-23.812015928241742,-39.6818305654925,-3.7516580893619507,23.06300042522456,7.904259195573828,-0.8411936304366061,18.48941826586298,20.95742630509875,-0.8846805366244919,0.4666372311465715,16.531928272019684,6.398828550279717,-7.269473170613811,-6.10814358708588,-13.416993174841963,-16.40809667528506,-9.591914337239333,-23.292434307463775,-27.559424231750505,8.857962244403339,28.08138913040339,6.557108187373855,-7.613571968569591,-12.731316322410217,-27.387993415279364,-31.025228502323976,-20.779541872524184,-17.151032272483274,-39.06876609055679,-102.11164033823819,-120.81344495626654,65.86872824962298,359.8675871729897,370.1461422063492,13.617980044737735,-259.15653527316,-171.46832089488643,-7.974485513713075,-14.81590760899735,-53.98179073119593,-16.41352746128632,12.457225049001448,0.016917407478645785,-13.352319441252071,-19.993179250620955,-20.748371424677988,-22.28804492630617,-37.130754885239384,-46.11023492141584,-34.252168318823756,-19.146119268709985,-9.787979865958341,-3.506217534428817,-2.0683940908591554,2.561183223757829,19.771791441247608,43.084979478910455,59.62286794657623,62.190262920583194,57.02924887759459,53.6702628712382,43.588937043602265,22.296689250116458,7.7321434038174,-3.7256846581931296,-32.315248048979555,-52.573660651224785,-37.782773156451,-26.762147487267434,-43.660319796605805,-49.10271348243725,-32.16324221107354,-21.828620610381364,-14.982810799558795,-5.095861740820535,-9.713203471408391,-15.777680608834476,0.6060259744987331,18.999689975008987,20.95965288513336,18.26894819411875,10.620084398107142,-2.940194891327714,-8.347494664520802,-8.11143054433624,-3.583169389914592,12.77187150458281,15.788083289797708,-8.166629777059448,-23.13292392906207,-22.096134640121928,-27.896237786389015,-26.759650264028615,-11.398193847913607,-0.005393003820183928,13.170678818720898,22.604501060647905,2.411031923375192,-24.00767413880851,-24.940978566621904,-27.026732161622377,-42.62811689467089,-38.4840856080404,-31.865031149789225,-62.45752717724436,-34.09533324356396,170.0233235802984,361.01201668137145,220.83622191633947,-128.35531825031808,-253.14872056007619,-106.32225392747625,-2.5251971986352704,-30.082042411731717,-44.18445976807854,-15.026833608161013,1.6404148438979114,-3.688093535546777,-29.68429261680141,-52.85244492330341,-37.14374732156003,-13.497430494700218,-19.548444960810283,-24.28710258190929,-16.212419913630896,-26.637032112307963,-35.61309108984858,-9.250597074790267,17.452797386171586,20.445948084309556,37.456792154904875,65.91352645563165,60.624600028445656,40.52038166420517,45.951718638881005,52.78335003173853,38.552490503002595,22.652873881223584,4.369730864704103,-27.481352578846238,-54.81327651158136,-63.09120009496197,-56.96036298540879,-43.33289043526764,-31.88586839676556,-24.351622148377295,-18.350159750935603,-24.34363131828556,-32.18912064547641,-13.43071996795485,9.980799528439526,1.917234020219066,-1.7704919003716655,30.476741353697648,43.92075947458374,8.38703488675441,-19.057093263842468,-16.63353178922173,-23.8547402349311,-34.32967239461639,-16.69468382184472,8.839174685672042,16.211122795701783,8.964278341112584,-8.755249124475455,-22.17731979767351,-14.267779015039675,-2.172331101845244,-3.054755566064811,-6.304802805304744,-8.965797270197367,-17.418185325324178,-27.315469345399006,-29.87815775908129,-24.08589033862987,-40.268481145735606,-81.89258566135472,-21.74227749287546,204.0367145561167,331.03534826759596,117.36064566581865,-181.332287891835,-199.53606910386947,-40.79826032899355,12.165727621281217,-27.06499216139649,-28.367812617562564,-9.922297103427091,-16.777158132593858,-23.62425268030111,-18.286402506467034,-15.213687402501979,-13.114092202813577,-12.252703008224701,-19.597318348477177,-26.2927986708439,-28.458697607607707,-37.2404175554249,-42.686625287233284,-26.353278758699197,0.9375542818840552,28.951914689805584,62.99439931219521,84.86002422120745,76.60390847221093,66.12815801593689,74.25870071865239,68.74457660387168,29.79120080361752,-9.641224474514088,-29.92302144654725,-50.52176121026889,-70.102338996819,-68.07724456775802,-56.70885842847633,-52.09875073152207,-38.46425964433483,-14.53223606261637,-5.804918700817382,-13.766349954579596,-18.900895161313763,-16.615038770565025,-7.1515972561385395,11.03455345521896,22.598185524963064,15.847698403143953,8.036125863267296,9.70282295171937,5.141368313623913,-9.511584553075206,-19.685882752932425,-15.3909336358481,5.971653966683831,25.14772553627095,10.37883568395942,-25.59525180950809,-36.426944419541975,-15.62727336227325,1.6301829108329775,-3.3448509559045148,-9.697650548004376,1.1606008484795787,1.1312151130152408,-31.060922844566598,-51.580385028030946,-47.14047396142192,-81.9041950591037,-108.50328117136587,49.509470854367976,315.8741042780315,313.09855716798126,-13.384169074270112,-217.3494908648775,-96.52406533543999,30.46297796832262,-12.32202097452798,-45.23197578076741,-5.064550380411617,8.775678053716337,2.0057405993564528,5.664976077437702,-12.381627511170887,-38.58108153109243,-42.887301196273135,-40.905405290018024,-32.408692496467495,-19.11917155433408,-33.13914506929406,-52.86642938089976,-33.040868284592506,-6.528046186988102,-1.0566788335629074,24.496403126947552,65.21794207298196,71.55209950842944,59.046257632783934,56.419129781694174,44.23668160220058,23.180630472992053,12.619619124291912,0.25225589301338935,-20.194176506232758,-34.44355958001948,-41.8792853150948,-46.25333097357715,-49.48056192290284,-55.2471208122235,-49.386156593747906,-25.390141980993686,-14.018626429792398,-25.59588515285939,-21.367498914956656,9.930563569796488,27.015623221681956,16.3946741123273,10.902190909165597,14.569108464049199,1.8500978574526687,-13.156597372477785,-3.645197592903166,6.405057810912865,-4.839300569816992,-6.2052783879366205,12.900058570560976,9.26428785234303,-23.770854754536806,-34.07852229004038,-6.4032983703588195,16.329781879179144,11.39379422204707,-4.498295975182969,-19.167136436540545,-31.03105275673493,-32.851358753653,-22.934507364454614,-15.696774651539773,-28.980327962762985,-72.7091600414696,-115.24319476729652,-39.54617083004144,209.91394834412404,384.81383709086623,189.03382606741093,-170.46375501495513,-236.579725133357,-50.777122869571755,21.634611463238578,-34.87835573682599,-34.872084944894056,-4.9746971557790545,-6.492919278805745,6.9251887809509585,16.22108890067792,-18.0447706393847,-40.936616353189876,-26.77567173025971,-21.24376445623769,-30.667266378752842,-33.78188472058508,-36.52039491696653,-34.87004329714009,-15.882666423294351,3.0198425012522505,12.290668924927107,33.13560960425418,58.72641722242486,60.703574936679516,53.829560005684215,59.29767681171404,54.913216438404966,29.800184120879734,2.182910721168005,-26.237098637411798,-49.44058035348779,-46.338507030733496,-31.51706866145964,-29.560808521255506,-25.482495514263263,-14.926728038510344,-22.355339350948988,-37.265650273780324,-28.79003938280819,-8.544291743366227,-2.0254556718067,-3.7159973681492957,-2.4092749967691933,2.8921046748079595,14.510823693085,20.96433011174841,7.958575516219528,-3.2623296093574776,3.696491700145545,0.3476958616757493,-15.40735368133781,-6.381469715250118,8.861573554338253,-14.37644978394541,-44.689448150772456,-33.10401246544782,-0.847334902009127,14.254388045439807,11.76325328249234,2.219839487522555,-9.68922977397832,-18.612059503321653,-20.460003167177454,-16.730506042548587,-17.23686046001281,-41.57558931240818,-93.89134252774093,-90.81012385551233,93.8816061529608,349.5382418367602,318.0026913767814,-36.16816154331942,-255.17483404902305,-129.07804094852924,9.443438032032699,-30.33759301009883,-62.762038015392484,-22.156674113973878,-14.843066446758094,-27.0420214567174,-12.684206078277967,-6.646517583258078,-10.333756278675247,-4.1459208161532395,-8.567840717920069,-21.44779634990923,-22.254347014677812,-19.328296321397357,-17.72964806227835,-13.071276180018565,-6.683802071275286,8.236193539945049,24.788250224764514,30.814138170033537,49.51294373389814,76.86523878970691,61.98231708882095,23.91364567706412,23.754077193081457,30.311969599952302,-5.340757565345598,-43.120906387908455,-47.90599952600614,-43.632964394464764,-38.589745547687805,-29.24018298149347,-35.574659433666106,-50.00914587859408,-36.827977624596826,-9.658455946986049,-8.085252176766804,-16.375632234434473,-6.145722530583981,1.5058981344539468,-0.5593945754888683,16.391334768864315,32.974245529873144,8.733093949260041,-23.235446872868998,-16.463563828060455,5.733339284058489,8.164072150180282,-5.1139077401531585,-12.352846518106578,2.0229338956952923,16.081580149771682,-2.479109689729274,-23.855010352539175,-16.63358261643372,-17.636640863136044,-28.774891045857665,-2.7778700681818878,25.195806586512496,1.07527512180868,-22.081184470217565,-5.430145158359796,-6.37367777010699,-42.65798549708232,-78.48082297963526,-112.24946846551464,-79.11922056286777,130.07038207728073,352.46037578283114,244.49156718720985,-112.30248490426672,-251.8927599066055,-94.73071355257113,7.7397350815743735,-31.80733534209033,-24.88254890062605,12.569806766934501,-21.156644841729392,-43.885269311169424,-2.253909396064069,13.837311757652305,-18.710555665895466,-35.137292273958025,-27.617260193314415,-28.59242495312305,-32.981038420058916,-19.135761069352466,2.3488627017252703,3.0629222036268384,-8.26048445203563,4.791937679555814,39.11473742376833,60.35596553835552,63.556588708588926,63.13927751425571,59.190317137337274,49.56928358408517,33.02755684330627,3.8168461786555032,-26.257578969153485,-37.99988680138651,-41.995601515268945,-53.34609428777655,-57.53673920733982,-46.22522338747765,-33.72812729782582,-23.802196576141903,-16.707277843414857,-20.353178720998493,-21.747011331144513,-8.189269937556805,-2.0509777785702425,-11.468889722190974,-10.922040405078864,-1.3392235311332819,-0.7660808432600259,1.3901309433089395,8.266793625105098,3.6186859829611233,-2.74611129168337,1.9258273683877878,5.017074481468684,7.645821119636707,11.88045809891338,-5.1690881181406425,-29.12006130965193,-18.030379706574337,4.238031586469211,-2.85119833097564,-14.747177233525399,-15.448521846677238,-26.542895279972242,-37.27504510604487,-34.50255590689903,-42.35692956367395,-74.58227250932423,-109.39833825577935,-55.91651954558263,167.596209057818,365.6173226719851,218.57305295590834,-132.0486865506964,-231.28213282290426,-68.66640700599218,9.876864904416275,-39.21426038518236,-39.30796658564604,-1.9443359319987081,-5.581473780431196,-14.569439011255701,-3.9199902826553306,-2.632264834752167,-14.057736576424526,-23.46318634445571,-25.244582742204383,-23.837183411192708,-33.07493202449157,-44.86470123697628,-31.456467838812152,1.4782864687143746,24.726735648672424,34.99204144613752,49.148541581389196,75.30641821695721,98.24514837240608,91.82574196498172,62.15496481696259,39.066737542361004,19.09552857275568,-12.668360552059278,-33.54580808616683,-31.867283711206273,-42.333941009639034,-71.61677781446117,-71.72485974139428,-36.1896598629721,-24.625535120521878,-49.55859494396787,-53.784151221960435,-24.783511583757736,-5.089118779399808,-1.8915396745790218,2.885363344334751,7.549259327823053,10.361503236067895,5.927784382496711,-10.820391648494146,-6.817491016052594,27.598302039675175,31.966666003958494,-1.6218793142615464,-5.6199538768897686,11.016693545316794,-10.318584310341446,-40.83672979463017,-33.0402609946832,-9.664730485513912,2.88098627750463,7.2948338400603205,8.87702228486619,8.808778759608733,-7.721377273546764,-39.722777869852266,-48.756411315474566,-33.29555625007923,-41.049215809722156,-90.66678402029125,-122.19465806795435,2.101851055229716,281.52530695729934,380.88626490100256,89.85771084982659,-219.78009727572004,-184.52365552650465,-26.525262263197646,-18.461883613926464,-49.44877524429417,-16.853748391069324,4.652864035615998,-3.926234579307181,-16.22038837061509,-28.628563038219212,-17.98180428557917,-4.07935685170534,-27.969939767143664,-40.44657124878426,-7.628455207780915,4.840960971178525,-20.935900960437223,-28.79006075155199,-12.124113174266494,4.4618505051428325,22.95668333520515,43.681176053488514,68.1586767720434,97.272611016966,98.37506081343477,58.08319428115991,22.055940181075123,12.882057192580278,0.27529535022357976,-26.50365686147569,-47.85451692764391,-56.24348293065488,-55.415770623961286,-47.75019579582333,-37.14909462058886,-27.517373680490678,-23.152128683869805,-26.11311093927929,-25.759379680398165,-12.248216565959194,-0.9229901816621968,-6.1135162598971,-5.563424270441839,14.592203229974574,21.655524515756046,3.4229658551905295,-5.026599558366199,-1.006316740976379,-12.891859986871372,-22.689742411587495,-3.106300476325991,13.561641717147426,-4.136134805101996,-26.707101788446792,-25.064559183529543,-16.492029578217174,-12.473444824226792,5.334247189837702,32.03912673682207,29.846058740820553,-8.00144511308187,-38.99147824188954,-37.86618837508449,-30.639298437546167,-37.28002418333808,-54.36276273775772,-98.95276522246701,-119.31171696444106,49.42479087130373,351.6840849339378,388.6100759533073,43.14890590008589,-228.84415168319816,-147.48171816681383,-3.807874488965184,-25.912302706895687,-69.84797360265804,-38.84368691791727,-12.595429620087582,-15.549698375086969,-8.064677079599369,5.732830273290411,-1.5866453711633355,-23.68297811570092,-28.063624974116927,-15.538004503571022,-17.699882041299446,-26.531507729135672,-14.954451395062364,-1.417480476396463,-6.55362766832131,-3.430519728568499,29.65812152962189,64.13286755694979,69.52469024020128,61.05556696285776,57.589071828594115,45.390841694593725,20.574351658826963,0.020083893513925588,-14.532554143405635,-25.99458800845273,-29.863430872812824,-30.06466524049111,-31.44644057349288,-35.771980119523974,-41.360163851776534,-35.07785444912862,-20.24115455659696,-13.88539019632888,-5.755042101202481,2.2286497603881408,-16.16642548220814,-32.43494201429283,-11.01732728401105,4.425047991430558,-9.116845499620242,-6.163948065080592,13.755992459335417,13.359476894149157,1.000415067414906,-3.935058041768338,-1.779515235615074,4.767499869215507,1.8166658314979323,-10.786353486871631,-6.74865214812559,8.546458797096024,6.33358428357378,-8.332270803632245,-19.865570787294146,-21.996969543330945,-4.487918790490786,13.464849620098846,-4.304198415620952,-38.747234733621326,-45.23931427656617,-27.744454499503853,-16.40948112070058,-35.415085024821174,-90.3675495543711,-93.2407218172103,89.57551126865624,351.5942047682802,339.6561978684547,-5.595684381994417,-256.2568932325663,-159.75207119854616,1.1104255386158473,-5.932057956262923,-36.01229474286804,-2.990721812927852,-13.159670537688545,-49.14583589014128,-22.903850605764976,7.85243959434537,-10.740316279797904,-14.529491577108226,6.974223014245647,-9.951875825669823,-40.05838538058134,-15.320672140837043,22.607934180063594,1.9277283670199665,-36.51118159201292,-21.54642991475619,25.210767137986732,51.00067850006823,54.039002355588366,51.08741240645684,49.81047570217124,55.23553366574173,51.765140074219545,21.50549627606477,-11.476722992193379,-18.04146086564497,-13.493863978163976,-23.037668332483506,-47.646550712830496,-71.17578224816711,-70.69235672202333,-49.13739275830322,-36.70866922934809,-30.965509965579713,-11.231779544722801,2.691771819958692,-2.561325049529305,-3.286339156171092,-1.0721833884032606,-6.983398338670694,2.466803404464382,24.835122925776687,25.306965216857243,11.467707181725899,5.735905788361443,-1.407410100644194,-6.019315009570313,5.079450436063009,11.746634936484329,4.682872369599437,2.166772554916067,-2.787901348323601,-16.648839461382153,-15.379160907753961,-11.954577478945197,-39.796838076677254,-59.285365035033514,-27.098501386648074,8.461550166419276,8.909093492239084,9.734136848102672,16.914840671205155,-3.7554565482925035,-38.630732159793524,-49.52501802310664,-34.17531763253403,-22.3612325121129,-55.735410348549244,-106.36039301364829,-26.346810296559326,230.5011087622494,397.9518815239471,214.69635485898323,-128.73009147725878,-238.89759793701361,-105.41695056409698,-15.941977928443494,-41.00405678899932,-42.226298283378114,-11.126291773539691,-18.36350516737447,-23.455822799763258,11.634216744008796,28.138884927344108,4.083449520208704,-13.843167461876165,-20.073231349291554,-36.62913553632174,-41.61865995328524,-17.905589007862318,-2.272590201748123,-16.26954960479414,-21.66986410772389,3.564301958407897,24.571680356984913,23.680535417252585,27.532418625417215,45.64417629970882,59.39641561535703,54.484731916052255,28.93774563112924,0.16990942571498024,-15.195099570878659,-29.698857216486672,-45.002776177491846,-39.582945592954715,-26.07024949981237,-32.408281108781594,-46.54066318222608,-47.318515697523125,-34.94384867208805,-16.401350175240527,-4.09376505908817,-2.8602961745785667,1.9125024687760845,12.63002183009126,11.584157145218803,-0.4148889414826602,-3.8255125244679427,-1.2529446085103224,-9.850197809896853,-17.600816578910095,-7.329324211171189,-1.912808526187705,-15.382878673765987,-16.225313230490357,2.188283443047183,4.235444790462264,-11.70788322629101,-15.389592326646138,-8.88064232988716,-11.344224601116206,-12.331312904108783,4.159240476775416,21.636936516087818,19.014553032630605,5.442406268674138,-5.587347388011764,-21.661167553641057,-43.54277129294853,-50.51336728875854,-49.62402759933687,-81.4318541715163,-91.82278902918942,67.26713448894816,317.8043326414489,305.8142007206743,-27.244313632855423,-249.0858613244045,-134.29920994245566,14.294883721161057,-13.01811194126039,-43.909034113411835,9.810112394913855,14.231318338800598,-37.83757992160146,-29.397117557571377,13.033016381647805,0.2032453445456781,-29.646450278653358,-24.29342950276172,-25.112439046450135,-43.41870922829135,-33.75019143245362,-15.902438051903271,-34.44709710774613,-49.389645909006155,-18.517529857767336,21.02040518517412,43.348278176752444,68.77051594861722,90.25034188463226,85.85843910521716,64.93270214675717,43.12869441023732,28.038444518954947,13.826659806710794,-23.384140765139016,-65.93116494376866,-61.57064012298544,-33.57253684077009,-41.23045823986958,-56.388963563801724,-38.252697840862766,-25.261419302422254,-37.72634711909191,-36.34605399395268,-17.291068177385384,-12.372746434673694,-15.412175833369716,-2.691187549201116,14.548669504753702,12.361089862233543,-2.5285704978049672,-6.018660120206638,4.480887706100435,13.499511133258562,12.9409162174637,3.305793285907864,-6.764320553564062,-3.8428065531740216,2.956444260944009,-8.338361286540747,-25.05889804634134,-21.62743347099967,-11.394516009468841,-10.68660703243533,-2.381314459051768,12.46997782319804,3.0126814596651705,-26.761025188025087,-39.77646638361191,-26.9198779242343,-18.899458408974354,-56.23218297738096,-111.33322820541933,-35.563652608360286,220.78861113990098,366.95561420452646,143.22122558616758,-176.6305822723009,-194.27416292252184,-31.342233725995314,3.6186136098983255,-47.41995689904083,-38.38833700837898,-6.614090958998325,-1.3994469128949696,-6.120784724601037,-12.724702159571464,-11.153788872974197,-8.619938994044851,-27.586223370728554,-46.12803863124126,-41.706788871521354,-31.674680674662937,-24.73283081424908,-20.65444500806486,-17.899014204581796,2.3970638548147596,33.969852787626216,46.193798771399116,46.85097155073665,57.42644378144531,69.93668698623978,76.0195753106864,70.09988517154258,39.66495408938719,-3.0072627273518906,-31.359992894959642,-42.91869399588437,-46.48305827357714,-47.49250286029785,-48.205683480582,-41.82628919178934,-36.02894200658234,-46.33036861607923,-46.33753347029805,-15.412515591602848,1.0617674913060213,-18.845594369791133,-23.7601221574228,5.989315570502842,23.30090743661297,6.7396943528273505,-4.252023238657444,13.768274765773432,19.93133367380488,-7.817849681985939,-18.38431741790849,8.838006163630709,23.960859235537235,8.208588247448494,-13.522721455721806,-29.258002933376588,-31.116429306314615,-15.79384117446769,5.283683195122186,20.98622854913145,14.519483207802061,-12.448571477524618,-25.065756952793016,-24.762618567553478,-38.088993133699546,-42.94139601875302,-27.567503920691966,-32.4543888789023,-72.93662977855175,-94.83873485355397,20.7287188107196,289.6960313008978,408.122466316741,124.05435403297749,-224.44264363627337,-200.12451191641162,-1.3012883149063628,4.93955925623932,-71.48487009573554,-37.62638805276107,6.6013859451751,-13.048932693242449,-24.35765450508164,-22.79044629894424,-35.45167989803242,-27.11267454506023,-2.4348220663699127,-8.1270053828984,-26.54038065732664,-20.762109045875377,-12.287337863103405,-21.661249865533385,-28.453607938091732,-22.025955004837474,-6.280625366035611,25.556399833088705,63.682201957070674,79.02020848281848,67.45312065678448,49.68682184105292,37.74706151214742,25.598488311627932,1.6745090024057756,-25.742378826950954,-34.032311602437375,-32.68267850350952,-46.01355542273456,-53.83961311426852,-34.63640418704782,-18.508802052124903,-20.368882487408175,-15.482504639904537,-8.71039116453424,-17.455737169164713,-22.125991538502145,-9.032836190193251,7.513091998064214,14.560539998070421,6.566227865212625,-3.50418102874346,0.2430861661238577,1.0706494926137236,-2.2948425212124377,16.781889632778054,32.1441346669586,7.328855716735916,-20.322655178164393,-17.35638751187613,-2.851368998033058,6.842721063968605,-3.3020323428918292,-32.071058197575724,-32.525141209764044,4.60184680359373,26.19715948163184,12.919213469980015,-15.329316831256676,-40.57319696040142,-42.79279878131905,-34.99374414484348,-58.71412351712647,-107.7990279701104,-108.66684147708679,43.82934859736977,320.5751080483317,407.92445022117005,104.77249336296778,-225.87927822295273,-191.0403326440022,-10.814315896893817,-7.172661216721222,-53.64723698421341,-8.046690176867155,9.264852516711468,-29.24511636252666,-25.185560673184117,-4.22328084554057,-15.294906769732163,-12.561440402262988,0.3309382575821047,-29.87910766407727,-66.01346521677587,-51.17935212025468,-20.03641688490694,-11.83915642453891,-7.467045193695773,4.231996374407768,13.956486807772226,24.10069064687463,37.46298986113623,56.24618783021745,76.9610076085873,71.74915011361404,33.2596405855821,2.21626403152421,-4.104921326994261,-16.067139727983303,-40.93997708240107,-49.536677270251005,-35.13868374266902,-25.13557368612441,-33.22915914298953,-39.63536293987155,-29.305703024064687,-14.220201764241288,-4.961927609883761,-0.4837782744804837,-3.3313991215496497,-8.367075017793677,-2.1813968919769113,9.35023746446344,10.593050892357418,5.694638268560356,8.315579627012283,17.702816228229988,17.98603431816678,1.691718170303825,-9.586733159026116,2.444946584843053,13.696030764815273,2.7311584587959405,-8.510413871030108,-12.542600043940546,-32.44249328541994,-47.86089064807392,-21.931643506587754,7.585903409876058,-3.366147879490331,-13.323334552289747,5.506108930719832,-0.37286627320341736,-44.362569310976085,-60.98146881919686,-32.97616705350272,-25.864139015675832,-78.15095394607737,-105.78893464854758,44.72388334787945,330.1289734678243,401.64160384191746,86.50110731305134,-234.5681050770076,-198.2487806183367,-20.73419083206445,-5.015287678049869,-51.049102143555274,-24.1781167980913,0.8894699116675717,-3.7209993507189214,-1.4233180522623812,-16.958159599041675,-40.59901402196342,-34.70701966335159,-30.615607558621008,-38.788022838523425,-18.403351919930437,9.009675762239603,-4.708959450567487,-32.574782438011766,-28.41680654731175,-2.0145891271871164,19.436916929361818,35.31351822743759,50.97650923346832,57.96257105949012,51.99977177996888,43.13102903011658,37.676242319582975,27.958181413858266,4.255704508870483,-25.82474476102692,-37.151228102230476,-26.26598022698339,-27.141299397255974,-48.32456969062327,-49.44571046683894,-25.83614047680463,-23.490818888530654,-37.95604592077743,-20.672191011127865,13.258925417695174,14.323864045211229,0.6280341787519772,12.482364478065353,26.013004530000124,11.634934363441861,3.376701532565243,23.680920311780667,27.455513454524635,-4.551977597445724,-22.384227553596276,-8.43258722282323,-5.611298561341997,-25.793516521525646,-35.258890428528794,-24.20756086234239,-17.809975221263294,-26.050857059033248,-26.134464047590594,-5.28299699168867,14.764594579262557,17.643456661646237,12.299971242573429,4.056574735769427,-8.301506371522223,-21.30440721683504,-34.27208839719148,-40.1920846938615,-35.91285941062026,-58.35479473716867,-103.77442828864682,-23.899713472718673,246.93083500575622,403.9992872814347,154.6417574311731,-210.75679821201726,-234.3207436722032,-36.52839601809279,14.80623931265509,-47.28076815845709,-40.84318766367097,-5.608249575946857,3.8642264903854926,19.593923509907167,16.51461904023429,-22.629205555793796,-41.88771834591139,-28.80066424953508,-23.05203248915344,-27.624587112198355,-26.314084670411788,-24.784653589937385,-27.408333176323723,-23.37494824185182,-4.271874853013193,24.374100638527906,46.48699951001516,50.51708390439705,43.465624682625915,42.83106573367451,52.22188940384564,53.26960130271347,31.411554933318126,0.17481833642259215,-20.03488635195806,-30.923135198745012,-40.442331054789484,-43.521271182121595,-36.39111957348077,-27.636950953972672,-26.439767580179943,-26.866107034955515,-17.479568630947792,-7.767810796481228,-8.228725971205694,-3.531280630565064,3.468858076945697,-10.869878399630132,-23.955094459464938,-7.174609384210562,6.6414136798044865,-0.8586416410992275,1.6985677276458562,12.346552784802554,9.038737589949928,6.594778893112746,6.597067011795474,-12.362900895988197,-31.78690334093894,-24.999079887568634,-11.651677456339165,-11.792266838471104,-12.691497898859447,-5.916183995437345,-2.8550161427335023,-11.558399341735331,-21.487000745018364,-20.30369419417472,-16.784825223329015,-22.379579402605465,-44.37859226922877,-88.68410483910145,-72.29020906699844,120.97164669066893,329.2876689063694,220.72279337735154,-111.78454170187513,-230.29015047637387,-84.92633749304841,7.65769929935733,-18.42644889490547,-16.401223627640753,5.018013043971738,-10.551704063546122,-16.84178170787777,0.016594569318366226,-0.3887423245027257,-16.473390631884918,-27.645193294821706,-27.008027385399007,-14.240221070095583,-10.53262736107748,-25.640005892312928,-32.19937251792647,-25.244313731922865,-19.528207435169566,3.6194083426197654,44.425870242380185,63.04218802999162,62.523533386157474,70.41789860204837,69.7003286437494,50.82977687382068,36.008592001511104,19.24999829265981,-12.045283774199701,-35.94611153557689,-40.3461523809187,-40.535700847904586,-45.72114642092774,-54.84050172794746,-61.0087296822559,-53.26552852610595,-34.42513256507964,-19.340841281925705,-14.791997595788398,-16.748698982528488,-15.221058572849767,-2.014744186542286,14.596284797996175,17.001272784008155,4.758893958133937,-6.843616125753229,-10.768817121307858,-8.542236366097011,-1.6537924712575904,3.050770569942392,3.758972960339385,7.0200208445298635,1.4251820563416597,-18.85856637370841,-18.095858052350856,12.039800837566954,18.4365634424156,-10.342980973373983,-27.266565487653494,-23.91911658164978,-21.739963914405603,-19.48050467763628,-21.472420651672294,-49.947709329092355,-99.91077576366624,-80.52962346389509,111.40904405693074,325.0016894651344,233.45398389212937,-97.1454350035453,-226.3640356119793,-79.21425694019878,17.077510230885448,-20.781007354293756,-32.032306703977426,-5.278110877790013,-2.319903788038104,-3.981438582588373,-1.6920933185465792,-9.801119109447093,-21.04054541966545,-32.987176398928696,-41.23527701824688,-32.56866139860317,-14.92062486148368,-7.332316865824048,-11.065176758010075,-12.534487924430147,-5.6179169905134945,4.772425142605139,25.08815930116264,59.899364942088155,83.21905210010127,76.94232231121894,62.631841292971856,57.80818249667622,49.40474752490788,23.47048425780049,-11.29190392849567,-39.00312461606316,-61.548364907374406,-80.65249806926863,-77.49114838929145,-51.048346661758316,-31.125650255894563,-28.749086967364164,-29.49615456686205,-27.01048045953059,-21.511220357830794,-11.448435644400249,-1.8116016368031964,-0.3507687580927268,-6.118001594522468,-10.50779731848313,-8.387939795080946,-2.2433133835996966,3.513478183182679,6.281632988204331,8.450690509413693,10.368521972026755,1.0757017238613606,-14.8559427070468,-10.33426412830845,10.199305983902569,16.85453553677034,12.932428055600251,6.964171967022738,-10.392377894431073,-20.98957343630882,-15.231377983438627,-29.760361377161445,-59.855417273311275,-57.154325762665295,-47.41381254606853,-87.02717492271272,-94.4953830064768,84.02335755001053,348.2068977815249,335.2297467971209,-8.384596330343427,-234.99378773395506,-123.00201298742081,0.8264201282247896,-47.47932538880141,-61.002658975188936,10.194294090733472,9.304736403215792,-39.328333501096004,-29.0590474553979,-3.2072991520653957,-16.4699388920337,-30.629751406370417,-23.293477212730064,-14.907287354497138,-8.512305347675591,-1.6702185203507582,-10.78355314668386,-31.095535745653656,-24.38569639929314,17.459606927825547,54.36036884790246,65.04587145439412,66.99094663215362,67.10912311139063,54.112524473342475,29.423677192256417,6.274862916881391,-10.331882481148721,-26.125846526038114,-39.910327191317734,-40.49060962099804,-35.63812830845654,-42.10204555054477,-42.903722090755835,-26.851387117876428,-28.031868035819425,-47.87101550335229,-37.99472064561645,-3.6070165906412655,5.2661487486602,-8.937207331955648,-11.660385157953272,1.0390847049856333,13.656080190165193,11.564854309592132,-5.864445152587816,-12.9208714582582,1.0390245698394978,2.5637066213677233,-17.853365556015504,-14.61578904217402,18.052884890450485,20.494541951344075,-13.427198855846214,-18.384343671606167,12.025308609234719,17.180390837895736,-7.025515438243324,-15.469448742901623,-14.145172986026726,-27.959839238125703,-30.687052566937012,-9.613335738445095,-21.837394326806184,-101.5253658677166,-141.17641978416196,30.488236419526416,326.6305838311025,351.8297079237426,2.3923298748857107,-257.9866359783254,-150.85914741439387,8.871326394755993,-8.292606268945717,-43.345211139861846,-20.271067025815107,-15.56570885163655,-12.232269121272834,5.726559862631158,-9.459251315642074,-41.34467269152343,-39.00523952397665,-8.043639676543282,12.413819799482555,1.5878664709526227,-19.863441504459487,-24.327612501175942,-17.45970506274975,-10.095685557533407,2.5189265029306718,22.807823306162472,45.91766441749535,63.9745888508927,74.79635816965462,72.97468279405703,41.222421585052246,-2.9568658058536332,-15.072413270413465,-5.737555927798306,-10.758016382480891,-25.551784096495112,-44.9445243356779,-65.99939731687337,-65.08321208047626,-46.57333548411171,-28.971682474055278,-8.277854275656889,-4.274264675089217,-27.380258441436453,-25.67669948932774,12.86554257606278,28.44583122097005,9.468518501774893,-2.3868330567504508,3.7968708691779476,10.973295728753545,5.090060261255042,-9.399065114273748,-5.3665540147759465,16.87511640758282,12.465411566430333,-22.155654028053583,-28.354659317329713,1.639447336243161,7.770235237245002,-8.477198595849895,11.209350913748208,46.13100559165143,30.004659563484857,-22.468858866502515,-50.81180061247241,-40.461670502334094,-23.140563747496138,-38.510610584287164,-93.94037224188456,-128.0844663972336,-23.708111055322092,225.79421772719385,349.6111472672435,122.14476087197212,-180.62006316068474,-181.9951097879049,-29.173799194696457,-8.822368957013062,-36.89844555978591,-2.4719420739128033,4.450295355566762,-23.240849935466237,-15.4208199141496,4.2081403148597385,7.284965834029014,-0.010058524324435325,-25.66992712891821,-44.182050341793484,-25.8293883093938,-1.423197542709012,2.060282580191343,-10.385384372326975,-32.074361335786854,-25.65634064436265,27.73233877617305,54.96651491786787,25.650897005055818,30.01103087825701,81.13755014375742,83.70157443740128,48.304669761414644,35.33130626054645,-4.703704204674183,-64.92344735666452,-39.781535674396295,13.391911623451342,-33.93015595069271,-90.55709914759652,-45.71125562747898,-8.17898527223382,-47.73566989981355,-56.22738989034961,-6.092414901429748,12.887354043234161,0.3523560840491502,6.651558107119913,10.545508015747853,0.4276109116254627,7.970108997242202,17.53034328597321,-0.7526490463024125,-17.631966008301408,-6.204471067948883,10.691636804937367,9.6136280849429,-5.003376797015399,-17.188234004485707,-16.954265729064932,-5.5314582866590944,8.638036677475135,10.31679171904585,-1.3656965476719458,2.7645665459893847,22.291853792902334,8.930329541943138,-29.775327583291457,-30.979859135976895,-10.954877111007672,-36.419217838900366,-93.93576291263803,-114.1909622120301,-24.099480294167876,193.01571992882566,332.1737849279052,146.4898135024693,-173.04213926313957,-221.89023197273616,-54.94693469590683,10.198646464645925,-19.62428503710737,-1.4475051159349803,16.6578313633376,-11.50115831715322,-28.65665061158643,-16.446107936836917,-8.033683111066555,-29.993862947468934,-57.557842190044184,-36.82148540708805,-1.478208195761237,-16.224100972247403,-44.84662607336426,-47.79529926629506,-32.68724834578539,14.006405976964192,54.42344847373523,39.379904609922725,43.65325101896846,101.61305293059638,108.7920783079693,44.56993993034186,3.181575192783331,20.27695972013568,48.78762542421811,21.495005214229153,-47.664624182063676,-53.71237304372326,-13.402617496314,-52.53821995834547,-120.94164051752647,-87.19177774661705,-11.872857355977121,5.67238240369835,2.7681250028437425,2.9976276572419707,-20.291578682221843,-31.878876785112652,-6.508255564134721,6.89243527331596,-0.48315092528496706,12.96555267310039,26.46684529350908,-0.31145805612711186,-26.836291903688476,-12.68610896977248,-1.4109321099321903,-20.03582729189545,-26.205065045761902,-14.59642294569677,-21.285225734457143,-26.600665693433236,-2.9693072123890474,20.098149032486614,30.02706039340464,34.72176364316838,6.623361284556378,-42.53364976933101,-48.65026653498707,-27.286122649044867,-56.44626241498429,-112.21814952694348,-44.74207413742942,202.48135587511908,373.91968022887636,183.68582345486323,-160.81967051507152,-233.67345421928553,-85.81540681349993,-18.0634151298197,-21.0850904219859,-2.2585288046666108,-21.195617531774964,-53.68471957608288,-30.08951188519268,2.798446029208769,7.950382809450982,-12.726771579985769,-56.65176946684859,-65.06905431310658,-27.245233244903623,-14.201367103651673,-17.780716811548377,-4.37063324978378,-6.379006732788675,-12.390074526517724,9.174746106893284,38.80609488776884,83.34495549681002,134.109215159657,120.4768121444183,55.65419053363151,26.918848970032343,28.57701337428692,6.004471505634295,-22.965197262106486,-21.099338250127865,-10.075127987318824,-23.66830442027068,-48.33993071022586,-66.41048595225871,-87.66334898129126,-89.50590435680463,-41.98563053685085,0.03741752293399969,-16.19094505683486,-31.130641329478085,1.645700081639962,22.65851002329731,4.285370935228024,3.5233428975524896,29.66631900999659,26.566239642121435,-15.224018515114125,-48.641554366232924,-40.024616030734265,-0.132655079301097,22.086724464487887,0.5640487417113924,-20.937639637821206,-9.644477600165912,3.3267392900042205,3.4656946452453496,4.3903364353096,-5.002617627318884,-19.06455750325003,-11.657046946077429,-1.511646341508575,-11.374644811486702,-27.148338681504253,-57.87408412669432,-101.11787501642672,-46.13947721862516,184.65643762171956,375.408432201039,213.42000902605116,-152.90759554376555,-246.87294286983382,-55.95303407775927,17.69571328553885,-60.299107513176985,-49.000242084188876,5.860726930869568,-14.35516509196766,-31.34871742442281,-17.54245045768494,-16.84395514832658,-9.945809612664348,-17.193225419321895,-54.034595035031344,-48.75561169065918,-12.483481357851279,-19.657148064045092,-29.149142716688768,0.8861940993410253,13.328488600374262,7.7040251295311535,42.645609581717565,86.05052395691612,80.74402702459417,67.60218992647566,83.39820098426082,76.032938853913,26.117784126848356,-14.116518258640788,-31.034410887416758,-34.700472426843824,-8.673887460514022,11.878501775183015,-30.19512139633894,-84.90497905359231,-78.92898703295418,-50.91402671734278,-43.70192899557426,-16.58259805471007,22.666372809111753,8.93964102608821,-17.661867912004723,11.385390427902706,28.430193874315208,-16.29765919294165,-38.97591264453473,-11.98997944805566,4.838260067798759,13.18602985753003,22.17365071114295,-3.199843268230783,-38.70598208733432,-34.01614351454695,-10.615252851214692,-3.4376077645371605,-4.132990937075673,2.064314669995947,16.2671839537417,30.069177429085165,25.785173728860055,-4.872698117551828,-40.200957969951844,-52.52261281673244,-42.94360471069173,-29.693909576204373,-41.909964082972444,-74.19718180255721,8.874886712085654,266.8559272294984,384.1844583584115,97.41595878220603,-247.6414546441692,-227.2518429707443,-21.1840122414633,23.663907254851697,-51.54914447321772,-67.65360262880218,-21.15382674397127,2.1809891586501493,-19.087365375705346,-26.8746837786465,-0.2779760575545893,1.8603530995655326,-33.81361075538641,-57.152991134268646,-51.00239058956199,-24.34965178453581,0.5102593243523099,-9.977834878035853,-24.69374773336631,10.510772082624804,56.234816140194724,59.31086223775661,52.06284810184937,66.4935555915137,80.41856521354808,74.0369318733406,50.26121876250425,25.89342307594037,16.931225032278054,2.234900116165587,-45.80737436479849,-85.92529668573917,-61.647189696209026,-22.683950126212338,-53.20481846447142,-98.04667745595707,-51.68164194053035,30.060923133706687,35.422488870856746,-4.585866168207836,-24.550372912306553,-36.44214768963753,-33.46004006642047,3.3397711782870685,32.842974916969226,28.929203482366717,16.121257844021894,7.866980233171489,5.550195190695446,6.994628496843278,-0.3698130446657526,-12.579897993216132,-18.875577070742175,-23.26059446779866,-25.03032499096796,-24.341163506281408,-21.513224334387335,1.7382761588153137,37.006477649633396,41.09121599973424,14.060473879789013,-12.664123154029557,-37.703542882866174,-52.274673678978544,-37.487355260469506,-38.968809191691044,-97.59031308085707,-94.40543811419026,116.5365058335185,361.1977664984712,268.9916286261006,-101.89983832823356,-258.57220243530867,-78.43604600701536,48.221839668997454,-23.40522072203185,-60.57562487095282,-11.165170891126767,-4.1744735363967465,-20.772624545421635,-6.351271339046696,-3.2331732030258244,-17.562690860855383,-17.84706404196499,-16.177425329436378,-16.677756311640767,-9.330128909310606,-15.174671789697507,-35.01996274984805,-35.01385721087488,-18.80888368964975,-8.600626696231672,15.857688865148818,63.64367067595953,87.80608977929349,66.18514598738717,42.866312420135856,43.92005051319721,39.33510601879031,12.943679375575574,-13.019089884527752,-28.66440754840524,-41.37837007422588,-47.463339723363426,-46.92949024418294,-47.3315635737797,-39.97250071438531,-22.56913114735251,-18.451306248087867,-31.47323760780544,-34.8439807169659,-19.61830935418213,-1.7182356458037766,7.572150742794836,8.046308454294998,5.509363045088172,5.288345039621036,7.643531532926697,11.516934221990134,10.190221763680817,-2.0960739238554957,-9.295289125812824,0.031828435458740145,0.42828704288663744,-18.855571916762152,-21.437741236817025,0.08158934480189117,1.8782440467993702,-19.175637643129207,-20.929158090687224,-5.681762941953618,-4.295147790287064,-12.65130165332203,-22.19676145233153,-37.25813579300499,-43.11739454343522,-42.892412794306345,-75.74553572605421,-102.16891330976773,19.53272948046704,274.26078764232426,353.04926788456294,80.98052886624652,-213.07397148910349,-186.12094673271605,-20.259736106400318,-3.0689957310594167,-49.60646077288898,-27.06983087641113,-10.375532655152085,-31.2703054790434,-30.00189534171709,-17.2363870774008,-16.92488970420668,-11.188650959975675,-10.840290240070285,-25.330364617707314,-27.570258828092385,-21.102888120431842,-27.851503910962336,-25.55525714460517,-0.17836308403800594,16.211482399665165,18.789943053053708,37.5253747664793,66.20714162567175,77.36489166168452,70.74909576675262,57.81958561172635,45.11823452446291,31.68417490968904,7.962322105526654,-20.442405415293376,-39.38481740553017,-53.485833867659565,-59.706854946122036,-47.08448011565933,-38.32728694995592,-49.644629040175055,-51.057563191521695,-31.844576378828588,-20.680956749726853,-21.02300676787229,-14.580330932641452,-5.826019915150098,-1.7206892818195971,7.549433383204494,19.426455408312417,19.76790123291165,13.171464126092388,8.815715106839598,0.30878592812537065,-11.31874793918619,-18.578161978186365,-27.519817320277077,-30.416536969874652,-10.775343135012111,5.93500169639519,-4.296329812621652,-9.615713970961991,2.0618578235442575,-4.716786310530907,-25.1276982778721,-26.789577381171288,-20.897678697198963,-29.48713173012738,-61.09672565241054,-98.85994995480496,-32.52549029420619,197.2188674287717,346.1418804207922,152.9018072854434,-159.3999903612406,-195.76200434969877,-34.46246612940064,8.809744500901001,-52.2604666248029,-49.56414381294648,-12.351135407714708,-11.472610023201199,-15.392554765657373,-12.769649452033391,-22.18204538591614,-29.28631534578544,-26.792954071112106,-24.08064802369828,-23.17579857806949,-29.725715742071763,-38.062017804616346,-29.10572993196521,-6.953474587362037,11.654989737037738,24.87836862018782,39.530210759899006,62.790724137688954,85.84717585728596,88.74070995219529,78.5869029991912,68.38826270132083,42.674936496298386,2.9775024476431806,-22.45916956755773,-32.1478005741362,-42.16094394268059,-55.90946605438694,-70.34558742779848,-70.97976137857273,-52.29756127957003,-40.325182807958214,-38.94585720680508,-21.591075126062023,-1.6574034347028004,-5.3473537625812,-9.254431980120879,6.32473777788713,19.51284165303371,14.172271714718706,-3.645441598690873,-16.349526538919076,-8.267328537209227,2.1600083815595035,-9.397835234515448,-21.92357036632159,-17.395926998687273,-16.981273172719742,-22.0626949086935,-11.398926267209902,5.202173285052233,6.584207812727034,-4.93128040734015,-18.076326841988397,-23.995439577474897,-22.842460785879986,-24.703687308486508,-37.10523235709004,-69.8077342107832,-86.0138020198142,35.84185740453588,275.3498198980101,320.24259109958575,25.65224209157772,-239.44628338089993,-168.24414399672773,0.4337959503088147,-1.4263539395008493,-49.12002501759224,-17.062018095405833,-1.1116227787200117,-28.707947641028063,-21.456666038869496,3.349270758920147,-5.533189597188166,-19.511645296241433,-15.992493344978698,-17.912193312477772,-21.458503081128633,-8.037727964053158,0.3660496574877623,-14.296438741928302,-20.27947812870842,1.726336738147488,31.22650058171243,65.19422161645288,95.36263996850344,83.98022198122185,52.72129199507761,52.58883930161757,46.6111288514174,1.6387993005962644,-27.46464564177945,-24.779162786684104,-33.6662219296985,-50.692953090523204,-52.54878787515982,-46.34158204350785,-40.53861391094298,-35.9154612142627,-27.398336546213024,-12.945817498109257,-10.717631283341145,-27.788450730973608,-38.00815809561511,-15.498569908846454,22.268888690479507,19.335297210406914,-18.428797968759596,-11.97650922996318,25.269052728952303,15.605881517254556,-9.037764751132855,-8.477572163559245,-18.385970092523387,-17.3093676205581,11.521299581326055,7.15599141152706,-10.948443417410695,7.308991040172037,4.9175730609586665,-34.67105678833836,-47.98004910631515,-38.438984326796685,-30.906632472137307,-19.64002796762393,-31.425826812126278,-33.906591544124936,96.2664005852399,287.5951871336356,233.33766465644612,-85.0992505509864,-253.4627400698304,-111.11700484984624,17.46321154614592,-7.952312320149888,-0.8318706662755022,35.23102285156332,-10.959850645622797,-37.007565681819834,8.73567544855673,8.007364217952391,-19.354933502777868,18.77961461895447,37.03231504020437,-31.8052960691166,-72.49838466533251,-29.291350709280152,7.167288991362085,10.92373851472858,33.00947344277649,57.470621951168916,59.30332780730059,76.00643522341109,99.23584876314031,76.51484434691494,